2.003999999999999915e+01,1.109228865122569886e-02
2.007999999999999829e+01,1.526107810244123689e-02
2.012000000000000099e+01,1.153176986599348253e-02
2.016000000000000014e+01,7.452701726226880659e-03
2.019999999999999929e+01,1.518508440458289990e-02
2.023999999999999844e+01,8.659196855929796738e-03
2.028000000000000114e+01,1.212756825804849406e-02
2.032000000000000028e+01,1.210104012153548174e-02
2.035999999999999943e+01,1.074626513744885749e-02
2.039999999999999858e+01,8.272919599289125375e-03
2.044000000000000128e+01,1.034225690803888820e-02
2.048000000000000043e+01,1.283064847689217164e-02
2.051999999999999957e+01,1.315209003140988334e-02
2.055999999999999872e+01,1.095712175150454978e-02
2.060000000000000142e+01,1.302526926533457974e-02
2.064000000000000057e+01,7.335106381664775396e-03
2.067999999999999972e+01,8.843524389876853201e-03
2.071999999999999886e+01,1.496451901553172252e-02
2.076000000000000156e+01,1.171968766983631609e-02
2.080000000000000071e+01,1.078099697484347433e-02
2.083999999999999986e+01,1.368607149382485878e-02
2.087999999999999901e+01,1.113927358928635571e-02
2.092000000000000171e+01,1.404375772709731511e-02
2.096000000000000085e+01,1.268453418457266696e-02
2.100000000000000000e+01,7.620739326205230001e-03
2.103999999999999915e+01,1.597591688153000844e-02
2.107999999999999829e+01,5.529848555948183725e-03
2.112000000000000099e+01,9.690917387242791933e-03
2.116000000000000014e+01,6.373247139596096254e-03
2.119999999999999929e+01,8.506860690633647262e-03
2.123999999999999844e+01,1.266704959553438190e-02
2.128000000000000114e+01,6.832387663063071992e-03
2.132000000000000028e+01,1.343821170183988681e-02
2.135999999999999943e+01,7.952424979099877167e-03
2.139999999999999858e+01,1.448777264422696637e-02
2.144000000000000128e+01,9.420754149036597233e-03
2.148000000000000043e+01,1.350929796138517804e-02
2.151999999999999957e+01,1.270510947828131822e-02
2.155999999999999872e+01,9.524301461775521241e-03
2.160000000000000142e+01,1.382164816475984527e-02
2.164000000000000057e+01,1.553269979355671737e-02
2.167999999999999972e+01,8.856419420596433473e-03
2.171999999999999886e+01,1.902382442243885294e-02
2.176000000000000156e+01,1.038998780875909599e-02
2.180000000000000071e+01,1.650307664573719829e-02
2.183999999999999986e+01,7.309525078927623862e-03
2.187999999999999901e+01,9.158622712065821181e-03
2.192000000000000171e+01,1.366332809223818820e-02
2.196000000000000085e+01,1.446346817828691837e-02
2.200000000000000000e+01,1.218807134890359696e-02
2.203999999999999915e+01,1.459515143102534974e-02
2.207999999999999829e+01,9.593390219218530732e-03
2.212000000000000099e+01,9.134322392329844234e-03
2.216000000000000014e+01,3.922310312865114924e-03
2.219999999999999929e+01,9.333597355397071915e-03
2.223999999999999844e+01,9.083344462582522774e-03
2.228000000000000114e+01,1.099945747555729561e-02
2.232000000000000028e+01,1.235614809148530453e-02
2.235999999999999943e+01,6.863135283407444456e-03
2.239999999999999858e+01,7.310657900552235133e-03
2.244000000000000128e+01,1.230087590985490774e-02
2.248000000000000043e+01,1.134998743244690182e-02
2.251999999999999957e+01,1.452244276381581441e-02
2.255999999999999872e+01,5.603294860816871760e-03
2.260000000000000142e+01,9.404209014819005577e-03
2.264000000000000057e+01,1.397365104878540640e-02
2.267999999999999972e+01,8.548251027053555343e-03
2.271999999999999886e+01,1.164939296312828519e-02
2.276000000000000156e+01,8.390078083636226883e-03
2.280000000000000071e+01,1.456590184834100597e-02
2.283999999999999986e+01,8.859800177608220806e-03
2.287999999999999901e+01,1.168024146830187217e-02
2.292000000000000171e+01,9.048823131628988201e-03
2.296000000000000085e+01,6.417122525976660594e-03
2.300000000000000000e+01,1.217218160606866814e-02
2.303999999999999915e+01,7.023804704026872202e-03
2.307999999999999829e+01,1.333743661427286287e-02
2.312000000000000099e+01,1.496802230786053491e-02
2.316000000000000014e+01,1.317361829126765561e-02
2.319999999999999929e+01,5.717680361047452510e-03
2.323999999999999844e+01,8.605480019559181085e-03
2.328000000000000114e+01,1.792306472259231481e-02
2.332000000000000028e+01,9.977041907763746845e-03
2.335999999999999943e+01,7.552208454686183160e-03
2.339999999999999858e+01,9.530292387088717954e-03
2.344000000000000128e+01,1.444356165770800671e-02
2.348000000000000043e+01,4.888904982025142967e-03
2.351999999999999957e+01,1.098978073049409858e-02
2.355999999999999872e+01,9.611932454319753807e-03
2.360000000000000142e+01,7.115533696469718110e-03
2.364000000000000057e+01,4.618856935024701071e-03
2.367999999999999972e+01,1.267559656486161139e-02
2.371999999999999886e+01,8.640740236574856112e-03
2.376000000000000156e+01,8.659343480920411035e-03
2.380000000000000071e+01,1.077443015124558354e-02
2.383999999999999986e+01,1.330859215769161601e-02
2.387999999999999901e+01,1.535323356658307992e-02
2.392000000000000171e+01,8.591204939204608038e-03
2.396000000000000085e+01,2.318144414860402822e-03
2.400000000000000000e+01,4.921093948274115996e-03
2.403999999999999915e+01,9.969988484089708364e-03
2.407999999999999829e+01,1.313152339290579035e-02
2.412000000000000099e+01,6.158441250205507096e-03
2.416000000000000014e+01,3.168929174988759177e-03
2.419999999999999929e+01,5.770503744725815481e-03
2.423999999999999844e+01,6.065367605892263772e-03
2.428000000000000114e+01,6.290065463744745795e-03
2.432000000000000028e+01,9.100494108730854820e-03
2.435999999999999943e+01,9.394536755265803230e-03
2.439999999999999858e+01,1.010765825059108287e-02
2.444000000000000128e+01,1.061083071782532167e-02
2.448000000000000043e+01,7.619129740544421450e-03
2.451999999999999957e+01,1.147657367102987609e-02
2.455999999999999872e+01,8.134867906290196155e-03
2.460000000000000142e+01,3.604725918300459575e-03
2.464000000000000057e+01,9.558114329113411370e-03
2.467999999999999972e+01,8.452137825813089977e-03
2.471999999999999886e+01,6.507185922970076634e-03
2.476000000000000156e+01,1.672317351240843256e-02
2.480000000000000071e+01,1.016480696685834358e-02
2.483999999999999986e+01,9.267423094939974612e-03
2.487999999999999901e+01,8.859013096870118481e-03
2.492000000000000171e+01,1.040730952172195904e-02
2.496000000000000085e+01,7.761815370933382134e-03
2.500000000000000000e+01,9.239680585029655044e-03
2.503999999999999915e+01,1.001835643521998068e-02
2.507999999999999829e+01,6.952702533477194552e-03
2.512000000000000099e+01,1.555874628277108609e-02
2.516000000000000014e+01,8.019466283007642762e-03
2.519999999999999929e+01,1.019490803853306121e-02
2.523999999999999844e+01,7.198072775973973249e-03
2.528000000000000114e+01,9.582654890207318796e-03
2.532000000000000028e+01,9.590641056105712534e-03
2.535999999999999943e+01,1.337252877404119557e-02
2.539999999999999858e+01,1.037462415094675752e-02
2.544000000000000128e+01,1.129040561009639516e-02
2.548000000000000043e+01,8.990887954148998884e-03
2.551999999999999957e+01,9.277108612484260414e-03
2.555999999999999872e+01,1.473507236135129447e-02
2.560000000000000142e+01,8.800372086612884281e-03
2.564000000000000057e+01,1.125244805734672109e-02
2.567999999999999972e+01,5.946245244606548734e-03
2.571999999999999886e+01,8.397791051362121090e-03
2.576000000000000156e+01,3.370626633247602189e-03
2.580000000000000071e+01,6.380779393232687349e-03
2.583999999999999986e+01,1.169710441794625036e-02
2.587999999999999901e+01,8.276663714931782254e-03
2.592000000000000171e+01,7.931207934639056267e-03
2.596000000000000085e+01,9.961817185988153245e-03
2.600000000000000000e+01,1.003518683957768318e-02
2.603999999999999915e+01,8.710453259900498638e-03
2.607999999999999829e+01,1.262735804671810680e-02
2.612000000000000099e+01,9.974151051390694328e-03
2.616000000000000014e+01,6.831437760091885365e-03
2.619999999999999929e+01,7.043279204643529065e-03
2.623999999999999844e+01,5.507558599460901996e-03
2.628000000000000114e+01,7.326393231938656270e-03
2.632000000000000028e+01,8.096586458476922460e-03
2.635999999999999943e+01,1.033425104112632720e-02
2.639999999999999858e+01,1.061467853506581176e-02
2.644000000000000128e+01,6.351864665856222190e-03
2.648000000000000043e+01,6.422095487610774735e-03
2.651999999999999957e+01,7.959798669096294563e-03
2.655999999999999872e+01,1.159400258900420908e-02
2.660000000000000142e+01,1.152367031976478731e-02
2.664000000000000057e+01,2.786469104190238653e-03
2.667999999999999972e+01,1.082309236143580086e-02
2.671999999999999886e+01,1.054230724514863653e-02
2.676000000000000156e+01,2.433358105623131384e-03
2.680000000000000071e+01,8.022985566899077867e-03
2.683999999999999986e+01,6.762937705525518331e-03
2.687999999999999901e+01,8.997232873783836057e-03
2.692000000000000171e+01,1.116137859845603778e-02
2.696000000000000085e+01,8.922070250140764699e-03
2.700000000000000000e+01,5.564232747071948260e-03
2.703999999999999915e+01,1.192112854092048854e-02
2.707999999999999829e+01,5.207961253883689780e-03
2.712000000000000099e+01,1.023639617733037438e-02
2.716000000000000014e+01,1.565740393915311971e-03
2.719999999999999929e+01,1.141621270004713855e-02
2.723999999999999844e+01,1.113208752525005757e-02
2.728000000000000114e+01,1.000900300882827040e-02
2.732000000000000028e+01,3.364194450387773989e-03
2.735999999999999943e+01,1.118677816160166053e-02
2.739999999999999858e+01,6.428544898559455587e-03
2.744000000000000128e+01,8.309798816750700243e-03
2.748000000000000043e+01,5.368249838528053701e-03
2.751999999999999957e+01,8.786620486554888587e-03
2.755999999999999872e+01,8.081108881962707768e-03
2.760000000000000142e+01,8.563508354741641501e-03
2.764000000000000057e+01,6.459650389078266074e-03
2.767999999999999972e+01,7.850140471146153584e-03
2.771999999999999886e+01,8.960810085131786645e-03
2.776000000000000156e+01,8.044359126977937771e-03
2.780000000000000071e+01,9.014740642704972828e-03
2.783999999999999986e+01,6.350485761537164389e-03
2.787999999999999901e+01,1.200312916232123411e-02
2.792000000000000171e+01,6.612583162980483278e-03
2.796000000000000085e+01,5.275523081293682567e-03
2.800000000000000000e+01,9.669357508929552966e-03
2.803999999999999915e+01,1.371348146152443458e-02
2.807999999999999829e+01,7.762797230591723767e-03
2.812000000000000099e+01,6.075275963528268229e-03
2.816000000000000014e+01,1.018854222360587175e-02
2.819999999999999929e+01,8.640305933177114608e-03
2.823999999999999844e+01,1.037674516055369679e-02
2.828000000000000114e+01,4.424813927477667247e-03
2.832000000000000028e+01,1.273060494317981850e-02
2.835999999999999943e+01,6.498608608787280472e-03
2.839999999999999858e+01,6.416861377958000233e-03
2.844000000000000128e+01,6.334866252129895715e-03
2.848000000000000043e+01,1.387085302984328826e-02
2.851999999999999957e+01,1.050343819940333795e-02
2.855999999999999872e+01,1.384540958973446909e-02
2.860000000000000142e+01,1.033771669723459845e-02
2.864000000000000057e+01,1.109319003036858542e-02
2.867999999999999972e+01,8.074248207215068904e-03
2.871999999999999886e+01,1.001739325349025253e-02
2.876000000000000156e+01,6.229147247730148010e-03
2.880000000000000071e+01,1.145672543672109946e-02
2.883999999999999986e+01,1.304967350144138442e-02
2.887999999999999901e+01,9.400475366230712573e-03
2.892000000000000171e+01,3.444595878330633434e-03
2.896000000000000085e+01,6.923893673992409167e-03
2.900000000000000000e+01,8.655646732362612741e-03
2.903999999999999915e+01,1.541938068159974529e-02
2.907999999999999829e+01,7.365763740237657627e-03
2.912000000000000099e+01,1.119354558300443385e-02
2.916000000000000014e+01,4.187821846295831582e-03
2.919999999999999929e+01,8.015117182548683189e-03
2.923999999999999844e+01,3.944372037472674078e-03
2.928000000000000114e+01,9.238914168999785501e-03
2.932000000000000028e+01,1.229666947108560421e-02
2.935999999999999943e+01,7.596169072954481703e-03
2.939999999999999858e+01,8.696463980018383916e-03
2.944000000000000128e+01,3.506235986843490946e-03
2.948000000000000043e+01,7.261944439605633357e-03
2.951999999999999957e+01,4.377670422946468819e-03
2.955999999999999872e+01,7.433976743499197230e-03
2.960000000000000142e+01,5.387925408807356029e-03
2.964000000000000057e+01,4.110445862449072993e-03
2.967999999999999972e+01,8.633763377620581533e-03
2.971999999999999886e+01,1.036116045881260370e-02
2.976000000000000156e+01,6.427064774792009758e-03
2.980000000000000071e+01,1.199804365753608625e-02
2.983999999999999986e+01,4.289300729242061933e-03
2.987999999999999901e+01,1.118774990601240429e-02
2.992000000000000171e+01,1.039783890943380730e-02
2.996000000000000085e+01,8.559309339267765979e-03
3.000000000000000000e+01,3.715185048861542605e-03
3.003999999999999915e+01,3.064343751564533452e-03
3.007999999999999829e+01,1.080030655019112613e-02
3.012000000000000099e+01,1.196618265716943921e-02
3.016000000000000014e+01,9.497436919741031325e-03
3.019999999999999929e+01,7.937050511712694101e-03
3.023999999999999844e+01,8.962432024753151996e-03
3.028000000000000114e+01,7.751032730071608784e-03
3.032000000000000028e+01,8.915725815673295612e-03
3.035999999999999943e+01,8.892018808340266048e-03
3.039999999999999858e+01,1.180354079668834502e-02
3.044000000000000128e+01,1.205893089574332569e-02
3.048000000000000043e+01,1.273343798114372726e-02
3.051999999999999957e+01,8.934621309900223768e-03
3.055999999999999872e+01,6.114058240400019675e-03
3.060000000000000142e+01,5.949157364311789126e-03
3.064000000000000057e+01,3.966830023837176339e-03
3.067999999999999972e+01,6.667033790340711440e-03
3.071999999999999886e+01,9.017543892436074085e-03
3.076000000000000156e+01,5.496891459347552460e-03
3.080000000000000071e+01,5.260930601982290872e-03
3.083999999999999986e+01,6.562361216282968160e-03
3.087999999999999901e+01,6.465718956818022022e-03
3.092000000000000171e+01,9.583877011592715697e-03
3.096000000000000085e+01,5.502925515937051419e-03
3.100000000000000000e+01,9.808783887019219966e-03
3.103999999999999915e+01,1.013056586261150763e-02
3.107999999999999829e+01,7.586543920794715061e-03
3.112000000000000099e+01,6.160563121787721377e-03
3.116000000000000014e+01,8.578412270236588852e-03
3.119999999999999929e+01,8.060566239792772356e-03
3.123999999999999844e+01,5.725297508537089894e-03
3.128000000000000114e+01,4.088718838520142076e-03
3.132000000000000028e+01,4.828238821410649022e-03
3.135999999999999943e+01,8.153533750709006378e-03
3.139999999999999858e+01,4.559289946325650877e-03
3.144000000000000128e+01,4.179849717946508038e-03
3.148000000000000043e+01,4.009856705941516192e-03
3.151999999999999957e+01,7.264343814346157710e-03
3.155999999999999872e+01,7.024001888414893938e-03
3.160000000000000142e+01,3.778075278442142703e-03
3.164000000000000057e+01,2.419005229227172947e-03
3.167999999999999972e+01,9.796209383126924450e-03
3.171999999999999886e+01,5.780787901881298714e-03
3.176000000000000156e+01,7.356500486628318562e-03
3.180000000000000071e+01,8.931986252393730313e-03
3.183999999999999986e+01,1.491175618477344391e-03
3.187999999999999901e+01,4.114588711971817192e-03
3.192000000000000171e+01,7.087235810192063501e-03
3.196000000000000085e+01,4.887648042362325099e-03
3.200000000000000000e+01,6.881355561985223572e-03
3.203999999999999915e+01,5.520021086528834400e-03
3.207999999999999829e+01,1.572457023081501966e-03
3.211999999999999744e+01,6.221385894306552707e-03
3.215999999999999659e+01,7.375489494770229824e-03
3.220000000000000284e+01,8.249800728508031519e-03
3.224000000000000199e+01,8.424967761233982319e-03
3.228000000000000114e+01,9.368723142021343278e-03
3.232000000000000028e+01,5.349921957498909690e-03
3.235999999999999943e+01,6.782474574146626217e-03
3.239999999999999858e+01,5.908367666837123153e-03
3.243999999999999773e+01,3.915765727849638937e-03
3.247999999999999687e+01,1.010030689648832615e-02
3.252000000000000313e+01,7.198663916631165179e-03
3.256000000000000227e+01,7.092479452926378318e-03
3.260000000000000142e+01,5.098988804980134244e-03
3.264000000000000057e+01,9.046097813928229842e-03
3.267999999999999972e+01,5.444647990367141970e-03
3.271999999999999886e+01,4.289197615585831243e-03
3.275999999999999801e+01,8.585103551024347857e-03
3.279999999999999716e+01,1.022489240056286518e-02
3.284000000000000341e+01,7.461264060144094136e-03
3.288000000000000256e+01,7.912448328308353471e-03
3.292000000000000171e+01,5.567732234890528618e-03
3.296000000000000085e+01,8.744265720415866916e-03
3.300000000000000000e+01,5.979758707236998948e-03
3.303999999999999915e+01,0.000000000000000000e+00
3.307999999999999829e+01,1.568360036177256917e-03
3.311999999999999744e+01,6.840778285756800650e-03
3.315999999999999659e+01,4.844208770480726983e-03
3.320000000000000284e+01,5.782885814233472942e-03
3.324000000000000199e+01,5.533180830209140540e-03
3.328000000000000114e+01,7.380018736641694166e-03
3.332000000000000028e+01,8.527719216496519941e-03
3.335999999999999943e+01,1.058379884724385683e-02
3.339999999999999858e+01,1.019344119826117237e-02
3.343999999999999773e+01,9.593190974805059293e-03
3.347999999999999687e+01,4.379851533275675932e-03
3.352000000000000313e+01,9.090962077863844887e-03
3.356000000000000227e+01,9.188983906188673972e-03
3.360000000000000142e+01,6.351325609918852082e-03
3.364000000000000057e+01,8.336001015991740051e-03
3.367999999999999972e+01,9.341973196837653759e-03
3.371999999999999886e+01,3.078961125497487253e-03
3.375999999999999801e+01,5.132884219139401821e-03
3.379999999999999716e+01,8.794109365613367313e-03
3.384000000000000341e+01,8.541167694143642422e-03
3.388000000000000256e+01,5.282655640215569610e-03
3.392000000000000171e+01,5.937882860384613611e-03
3.396000000000000085e+01,8.829441264791968239e-03
3.400000000000000000e+01,8.925106082051360856e-03
3.403999999999999915e+01,5.875417492075298877e-03
3.407999999999999829e+01,3.244868469891720297e-03
3.411999999999999744e+01,7.952768672056078139e-03
3.415999999999999659e+01,7.418555793745193992e-03
3.420000000000000284e+01,1.044862387487376955e-02
3.424000000000000199e+01,8.280258722970794318e-04
3.428000000000000114e+01,8.750112170667732545e-03
3.432000000000000028e+01,6.956997483479636021e-03
3.435999999999999943e+01,6.701296347594661203e-03
3.439999999999999858e+01,9.660417354681510860e-03
3.443999999999999773e+01,1.233976004572064425e-02
3.447999999999999687e+01,1.466943265741857405e-02
3.452000000000000313e+01,8.192501722662955121e-03
3.456000000000000227e+01,1.101099916976765875e-02
3.460000000000000142e+01,6.490625870397053777e-03
3.464000000000000057e+01,3.996911978053757468e-03
3.467999999999999972e+01,8.562082765933972869e-03
3.471999999999999886e+01,7.535683915016058200e-03
3.475999999999999801e+01,3.363936173152082178e-03
3.479999999999999716e+01,9.396214503158594605e-03
3.484000000000000341e+01,9.207895819295437712e-03
3.488000000000000256e+01,9.298937692927137719e-03
3.492000000000000171e+01,1.120696468732543943e-02
3.496000000000000085e+01,9.759968002707088836e-03
3.500000000000000000e+01,3.490215591808723192e-03
3.503999999999999915e+01,6.376110545233293347e-03
3.507999999999999829e+01,6.256442643348546391e-03
3.511999999999999744e+01,6.486028818586927862e-03
3.515999999999999659e+01,6.645517236662509993e-03
3.520000000000000284e+01,9.600480730618332972e-03
3.524000000000000199e+01,2.700464981432692570e-03
3.528000000000000114e+01,8.450698811924268680e-03
3.532000000000000028e+01,8.190014682001273832e-03
3.535999999999999943e+01,5.133445495699190397e-03
3.539999999999999858e+01,7.178789108352344982e-03
3.543999999999999773e+01,1.027230894735329039e-02
3.547999999999999687e+01,3.091498963451634694e-03
3.552000000000000313e+01,1.100716056160416616e-02
3.556000000000000227e+01,1.116460534980966320e-02
3.560000000000000142e+01,6.429406161111208932e-03
3.564000000000000057e+01,7.704717461378141237e-03
3.567999999999999972e+01,9.189502323040804610e-03
3.571999999999999886e+01,7.319268272881157208e-03
3.575999999999999801e+01,9.362785038447141508e-03
3.579999999999999716e+01,7.771715337206784417e-03
3.584000000000000341e+01,5.691200058997119247e-03
3.588000000000000256e+01,1.164806518693888709e-02
3.592000000000000171e+01,1.592732099834694159e-02
3.596000000000000085e+01,1.014192604030747687e-02
3.600000000000000000e+01,1.106596397136302631e-02
3.603999999999999915e+01,4.721032202720597259e-03
3.607999999999999829e+01,7.951106407121185174e-03
3.611999999999999744e+01,1.125087290447515133e-02
3.615999999999999659e+01,1.189454339194637861e-02
3.620000000000000284e+01,1.288747473097487384e-02
3.624000000000000199e+01,1.422966717246558314e-02
3.628000000000000114e+01,6.625483078924392782e-03
3.632000000000000028e+01,9.784470705230342846e-03
3.635999999999999943e+01,1.455077644228625067e-02
3.639999999999999858e+01,1.407498314954509257e-02
3.643999999999999773e+01,1.912046126447925279e-02
3.647999999999999687e+01,1.459053597111991708e-02
3.652000000000000313e+01,1.145825374953493743e-02
3.656000000000000227e+01,1.028275096421719589e-02
3.660000000000000142e+01,1.141348793706411548e-02
3.664000000000000057e+01,1.624830520295047001e-02
3.667999999999999972e+01,1.066901614468629238e-02
3.671999999999999886e+01,9.073375938065408181e-03
3.675999999999999801e+01,1.174095289078677315e-02
3.679999999999999716e+01,1.510725452963237840e-02
3.684000000000000341e+01,1.987120124749210126e-02
3.688000000000000256e+01,1.289309462595478531e-02
3.692000000000000171e+01,1.562978327486181512e-02
3.696000000000000085e+01,1.815660142893255058e-02
3.700000000000000000e+01,1.865635696991127176e-02
3.703999999999999915e+01,1.817743036168027390e-02
3.707999999999999829e+01,1.560154962796869195e-02
3.711999999999999744e+01,1.994478485128666975e-02
3.715999999999999659e+01,2.016419803917779419e-02
3.720000000000000284e+01,2.066298633705189458e-02
3.724000000000000199e+01,1.857557741367586376e-02
3.728000000000000114e+01,2.186966113858245658e-02
3.732000000000000028e+01,2.474420058420205223e-02
3.735999999999999943e+01,2.775833211502749115e-02
3.739999999999999858e+01,2.203577017875556557e-02
3.743999999999999773e+01,2.511941059011216226e-02
3.747999999999999687e+01,2.841253585358800848e-02
3.752000000000000313e+01,3.547963894421107822e-02
3.756000000000000227e+01,3.101436900341702010e-02
3.760000000000000142e+01,3.102199753356500028e-02
3.764000000000000057e+01,3.801863729670560549e-02
3.767999999999999972e+01,4.228929857015375354e-02
3.771999999999999886e+01,3.985013679550045151e-02
3.775999999999999801e+01,4.377095887876827907e-02
3.779999999999999716e+01,5.181522061651052530e-02
3.784000000000000341e+01,5.776253299596655760e-02
3.788000000000000256e+01,5.839786361491084571e-02
3.792000000000000171e+01,6.993616001829792983e-02
3.796000000000000085e+01,7.203884632527231269e-02
3.800000000000000000e+01,8.672190725926322286e-02
3.803999999999999915e+01,9.259838672643772028e-02
3.807999999999999829e+01,1.072111805415217750e-01
3.811999999999999744e+01,1.260173080325184547e-01
3.815999999999999659e+01,1.458716288114006721e-01
3.820000000000000284e+01,1.713870160661738196e-01
3.824000000000000199e+01,2.095526714675917390e-01
3.828000000000000114e+01,2.514224174491527797e-01
3.832000000000000028e+01,2.909855410406917420e-01
3.835999999999999943e+01,3.512365151644166739e-01
3.839999999999999858e+01,3.991164173553470862e-01
3.843999999999999773e+01,4.746034799859238928e-01
3.847999999999999687e+01,5.640687605383466474e-01
3.852000000000000313e+01,6.681412873913066264e-01
3.856000000000000227e+01,7.800415354184554451e-01
3.860000000000000142e+01,9.114414712418459352e-01
3.864000000000000057e+01,9.834330110822876447e-01
3.867999999999999972e+01,1.000000000000000000e+00
3.871999999999999886e+01,9.487715517327547365e-01
3.875999999999999801e+01,8.641345375171143317e-01
3.879999999999999716e+01,7.359546155452024729e-01
3.884000000000000341e+01,6.048390463172466092e-01
3.888000000000000256e+01,4.937124107412565466e-01
3.892000000000000171e+01,3.881769541432483761e-01
3.896000000000000085e+01,3.168884025955077122e-01
3.900000000000000000e+01,2.733467990284800253e-01
3.903999999999999915e+01,2.230254886790162538e-01
3.907999999999999829e+01,1.934619253922265358e-01
3.911999999999999744e+01,1.708873826219132197e-01
3.915999999999999659e+01,1.597050575134860984e-01
3.920000000000000284e+01,1.381785339021199266e-01
3.924000000000000199e+01,1.222431912759752992e-01
3.928000000000000114e+01,1.072162649346583146e-01
3.932000000000000028e+01,1.040708013582369168e-01
3.935999999999999943e+01,9.337682085043584601e-02
3.939999999999999858e+01,8.680629003330789240e-02
3.943999999999999773e+01,8.296136887378822988e-02
3.947999999999999687e+01,7.841734892705584659e-02
3.952000000000000313e+01,8.023332387806314525e-02
3.956000000000000227e+01,7.331261891084130122e-02
3.960000000000000142e+01,7.359061351355095093e-02
3.964000000000000057e+01,6.687922905480367386e-02
3.967999999999999972e+01,6.247410367390354019e-02
3.971999999999999886e+01,6.128383380633586897e-02
3.975999999999999801e+01,5.114720923246845324e-02
3.979999999999999716e+01,5.841351955603689416e-02
3.984000000000000341e+01,4.995395029786199592e-02
3.988000000000000256e+01,4.813394625236543795e-02
3.992000000000000171e+01,4.785139063396245951e-02
3.996000000000000085e+01,4.686973923920634277e-02
4.000000000000000000e+01,4.064601139610023173e-02
4.003999999999999915e+01,4.238979803906364752e-02
4.007999999999999829e+01,3.448831184098213876e-02
4.011999999999999744e+01,3.364574444619973514e-02
4.015999999999999659e+01,3.287289468577243162e-02
4.020000000000000284e+01,3.370738712297195044e-02
4.024000000000000199e+01,2.335898341037962248e-02
4.028000000000000114e+01,2.761783703814318230e-02
4.032000000000000028e+01,2.719375233838440195e-02
4.035999999999999943e+01,2.383402991697047488e-02
4.039999999999999858e+01,2.438808741625838120e-02
4.043999999999999773e+01,2.508175632043464082e-02
4.047999999999999687e+01,2.137205595750238038e-02
4.052000000000000313e+01,2.730728143226303362e-02
4.056000000000000227e+01,2.310799297744892816e-02
4.060000000000000142e+01,1.925799297373851152e-02
4.064000000000000057e+01,2.582173171661928182e-02
4.067999999999999972e+01,1.700905621775348694e-02
4.071999999999999886e+01,1.874990399568578908e-02
4.075999999999999801e+01,1.979166101536431258e-02
4.079999999999999716e+01,1.174728582387523680e-02
4.084000000000000341e+01,1.984779579777834133e-02
4.088000000000000256e+01,1.774390183514795369e-02
4.092000000000000171e+01,1.480113408948667900e-02
4.096000000000000085e+01,1.521301366360885803e-02
4.100000000000000000e+01,1.520537204170101936e-02
4.103999999999999915e+01,1.792335011360016161e-02
4.107999999999999829e+01,1.686699080975170503e-02
4.111999999999999744e+01,1.350402667922891847e-02
4.115999999999999659e+01,1.426452327919779106e-02
4.120000000000000284e+01,1.712161244880711780e-02
4.124000000000000199e+01,1.851080171483888981e-02
4.128000000000000114e+01,1.249127012132644071e-02
4.132000000000000028e+01,1.590699334101075210e-02
4.135999999999999943e+01,1.184410418876227604e-02
4.139999999999999858e+01,1.057672900266399228e-02
4.143999999999999773e+01,1.042745969285710679e-02
4.147999999999999687e+01,1.223500068062845052e-02
4.152000000000000313e+01,1.054777510940081015e-02
4.156000000000000227e+01,1.459152910427977817e-02
4.160000000000000142e+01,1.583943718395460290e-02
4.164000000000000057e+01,1.037754680421478989e-02
4.167999999999999972e+01,7.990740203753879736e-03
4.171999999999999886e+01,1.399081071256209723e-02
4.175999999999999801e+01,1.831330853696183994e-02
4.179999999999999716e+01,1.138302798266501228e-02
4.184000000000000341e+01,1.116221694958840528e-02
4.188000000000000256e+01,1.695195554665213100e-02
4.192000000000000171e+01,1.099967241834476188e-02
4.196000000000000085e+01,1.490200020290457193e-02
4.200000000000000000e+01,1.125582761581257578e-02
4.203999999999999915e+01,1.445890983286266321e-02
4.207999999999999829e+01,9.414572038085978339e-03
4.211999999999999744e+01,1.373560206040695501e-02
4.215999999999999659e+01,1.183608098446729991e-02
4.220000000000000284e+01,1.007618235323454702e-02
4.224000000000000199e+01,1.285910331211855863e-02
4.228000000000000114e+01,6.206441272326314318e-03
4.232000000000000028e+01,1.583845770980704323e-02
4.235999999999999943e+01,1.261018295469545393e-02
4.239999999999999858e+01,1.336559267973255055e-02
4.243999999999999773e+01,1.412084232650940435e-02
4.247999999999999687e+01,1.096197935081551743e-02
4.252000000000000313e+01,1.234593772157316187e-02
4.256000000000000227e+01,8.767403758692669455e-03
4.260000000000000142e+01,1.168866804163136951e-02
4.264000000000000057e+01,1.013668459213126934e-02
4.267999999999999972e+01,1.040173493896147730e-02
4.271999999999999886e+01,1.346230753180577451e-02
4.275999999999999801e+01,1.638293802523259346e-02
4.279999999999999716e+01,1.364215754846616682e-02
4.284000000000000341e+01,9.992623317908826824e-03
4.288000000000000256e+01,1.759554605500269694e-02
4.292000000000000171e+01,1.359623736774661328e-02
4.296000000000000085e+01,1.225266840353747035e-02
4.300000000000000000e+01,1.195732308671497608e-02
4.303999999999999915e+01,1.739296661948289136e-02
4.307999999999999829e+01,1.318335612907842527e-02
4.311999999999999744e+01,9.532725939386079914e-03
4.315999999999999659e+01,1.615606627490088348e-02
4.320000000000000284e+01,1.523091376591293247e-02
4.324000000000000199e+01,1.731096280729912951e-02
4.328000000000000114e+01,1.358981986095470634e-02
4.332000000000000028e+01,1.657815571931436222e-02
4.335999999999999943e+01,1.642119663129595897e-02
4.339999999999999858e+01,1.759203175650781922e-02
4.343999999999999773e+01,1.792400890570175487e-02
4.347999999999999687e+01,1.525047588962951534e-02
4.352000000000000313e+01,1.663052639324353460e-02
4.356000000000000227e+01,1.933837211370769554e-02
4.360000000000000142e+01,2.442239351490431767e-02
4.364000000000000057e+01,2.056008454758301296e-02
4.367999999999999972e+01,2.501477296967572969e-02
4.371999999999999886e+01,2.206075583742722265e-02
4.375999999999999801e+01,1.966572302037029873e-02
4.379999999999999716e+01,2.621671647322872459e-02
4.384000000000000341e+01,2.703641346522457634e-02
4.388000000000000256e+01,2.834520351092842394e-02
4.392000000000000171e+01,2.580978198093887913e-02
4.396000000000000085e+01,2.634945853181139275e-02
4.400000000000000000e+01,3.506635045094067676e-02
4.403999999999999915e+01,3.308961415563947683e-02
4.407999999999999829e+01,3.537614093528955450e-02
4.411999999999999744e+01,3.836143831667290088e-02
4.415999999999999659e+01,3.897025792596096883e-02
4.420000000000000284e+01,4.531007366108347201e-02
4.424000000000000199e+01,4.801535587034779645e-02
4.428000000000000114e+01,5.505379442328674905e-02
4.432000000000000028e+01,5.852759196637592060e-02
4.435999999999999943e+01,6.577541024136172865e-02
4.439999999999999858e+01,7.141556440586541155e-02
4.443999999999999773e+01,8.041038771888470160e-02
4.447999999999999687e+01,7.640514910887800937e-02
4.452000000000000313e+01,9.008244305988727385e-02
4.456000000000000227e+01,1.013133697336523892e-01
4.460000000000000142e+01,1.107269575088647706e-01
4.464000000000000057e+01,1.276188445248285508e-01
4.467999999999999972e+01,1.314407788580926051e-01
4.471999999999999886e+01,1.436496091184983337e-01
4.475999999999999801e+01,1.655732838267220119e-01
4.479999999999999716e+01,1.812764239964129165e-01
4.484000000000000341e+01,2.036890525051966438e-01
4.488000000000000256e+01,2.194617948920665751e-01
4.492000000000000171e+01,2.346752566431963283e-01
4.496000000000000085e+01,2.504477102366666763e-01
4.500000000000000000e+01,2.485373402175768132e-01
4.503999999999999915e+01,2.445300660030948203e-01
4.507999999999999829e+01,2.291302499557265893e-01
4.511999999999999744e+01,2.121926663283641712e-01
4.515999999999999659e+01,1.933678553009200718e-01
4.520000000000000284e+01,1.746826855360553987e-01
4.524000000000000199e+01,1.524328805321552849e-01
4.528000000000000114e+01,1.345162381445539346e-01
4.532000000000000028e+01,1.175779419426288136e-01
4.535999999999999943e+01,1.046932408020184863e-01
4.539999999999999858e+01,8.649660507103026919e-02
4.543999999999999773e+01,7.941265833721419809e-02
4.547999999999999687e+01,7.505435914765656857e-02
4.552000000000000313e+01,6.797013064578003028e-02
4.556000000000000227e+01,6.256316997699444549e-02
4.560000000000000142e+01,5.093567978777546051e-02
4.564000000000000057e+01,4.364135447299995890e-02
4.567999999999999972e+01,4.193825053914575912e-02
4.571999999999999886e+01,4.191241544200238062e-02
4.575999999999999801e+01,4.027892476514578074e-02
4.579999999999999716e+01,3.508080236192320789e-02
4.584000000000000341e+01,3.778033881179194975e-02
4.588000000000000256e+01,3.579697180992884309e-02
4.592000000000000171e+01,3.556076691349987356e-02
4.596000000000000085e+01,2.938360281157614134e-02
4.600000000000000000e+01,2.593208951567537932e-02
4.603999999999999915e+01,2.366860296433572972e-02
4.607999999999999829e+01,2.133508715288939817e-02
4.611999999999999744e+01,2.696912396506763801e-02
4.615999999999999659e+01,2.183965384658016068e-02
4.620000000000000284e+01,2.355946462635135838e-02
4.624000000000000199e+01,1.982756205635202371e-02
4.628000000000000114e+01,1.945034017649680674e-02
4.632000000000000028e+01,2.068049888272843403e-02
4.635999999999999943e+01,1.855570541785911062e-02
4.639999999999999858e+01,1.817807706928354500e-02
4.643999999999999773e+01,1.703150157676107390e-02
4.647999999999999687e+01,1.686327954615892202e-02
4.652000000000000313e+01,1.732395115738961239e-02
4.656000000000000227e+01,2.176833334288558533e-02
4.660000000000000142e+01,1.943305616698442345e-02
4.664000000000000057e+01,1.590948101647024493e-02
4.667999999999999972e+01,1.126750015644653602e-02
4.671999999999999886e+01,1.689951215217208591e-02
4.675999999999999801e+01,1.162823695240943964e-02
4.679999999999999716e+01,1.432451864165583920e-02
4.684000000000000341e+01,1.541315152562311441e-02
4.688000000000000256e+01,1.566294801139966192e-02
4.692000000000000171e+01,1.171909166836290241e-02
4.696000000000000085e+01,8.753591798106079291e-03
4.700000000000000000e+01,1.291694590100123802e-02
4.703999999999999915e+01,1.141891562962971639e-02
4.707999999999999829e+01,9.990646399172646921e-03
4.711999999999999744e+01,1.037943881549726298e-02
4.715999999999999659e+01,1.125734485973719189e-02
4.720000000000000284e+01,9.269548101269923721e-03
4.724000000000000199e+01,1.189449431023880017e-02
4.728000000000000114e+01,1.277201044548623675e-02
4.732000000000000028e+01,5.961275551045580080e-03
4.735999999999999943e+01,8.236373285459326274e-03
4.739999999999999858e+01,6.597389258713350600e-03
4.743999999999999773e+01,9.221689382935929422e-03
4.747999999999999687e+01,9.189964503381520614e-03
4.752000000000000313e+01,5.943078757367203750e-03
4.756000000000000227e+01,9.964834525571401175e-03
4.760000000000000142e+01,7.486505261796582746e-03
4.764000000000000057e+01,1.066930168748494827e-02
4.767999999999999972e+01,4.696117043461621107e-03
4.771999999999999886e+01,8.507687428422323547e-03
4.775999999999999801e+01,7.776150182581586037e-03
4.779999999999999716e+01,9.211138919899435062e-03
4.784000000000000341e+01,3.447123988683160369e-03
4.788000000000000256e+01,8.306569260452659198e-03
4.792000000000000171e+01,8.622907905040598855e-03
4.796000000000000085e+01,9.498257209841702575e-03
4.800000000000000000e+01,8.067044843622866654e-03
4.803999999999999915e+01,6.356139469045263800e-03
4.807999999999999829e+01,6.462301762968535729e-03
4.811999999999999744e+01,7.546827805915786239e-03
4.815999999999999659e+01,7.792525479631234701e-03
4.820000000000000284e+01,7.339179063416849391e-03
4.824000000000000199e+01,7.934089163139833312e-03
4.828000000000000114e+01,7.270819561154994413e-03
4.832000000000000028e+01,4.930018423176349418e-03
4.835999999999999943e+01,5.524558937209193658e-03
4.839999999999999858e+01,8.075953155379664294e-03
4.843999999999999773e+01,7.342300263705957633e-03
4.847999999999999687e+01,4.721440797062841435e-03
4.852000000000000313e+01,5.175708014448091379e-03
4.856000000000000227e+01,1.010294245073643793e-02
4.860000000000000142e+01,5.734417559730361352e-03
4.864000000000000057e+01,4.720588162261511039e-03
4.867999999999999972e+01,6.711994438242364913e-03
4.871999999999999886e+01,5.977491474301758166e-03
4.875999999999999801e+01,6.221356273864617550e-03
4.879999999999999716e+01,5.486612690278160238e-03
4.884000000000000341e+01,5.380777301012672903e-03
4.888000000000000256e+01,4.086657987812336752e-03
4.892000000000000171e+01,6.916048080667367912e-03
4.896000000000000085e+01,3.385145700709270115e-03
4.900000000000000000e+01,5.585269555181735131e-03
4.903999999999999915e+01,5.059486176972472458e-03
4.907999999999999829e+01,4.323908328132057555e-03
4.911999999999999744e+01,8.620437324452232333e-03
4.915999999999999659e+01,5.997538988896190804e-03
4.920000000000000284e+01,5.680959446569532403e-03
4.924000000000000199e+01,4.735234352040703504e-03
4.928000000000000114e+01,9.240969191483223294e-03
4.932000000000000028e+01,6.547709645875455196e-03
4.935999999999999943e+01,5.881201840322994312e-03
4.939999999999999858e+01,8.848962352296070935e-03
4.943999999999999773e+01,5.037081317124700308e-03
4.947999999999999687e+01,5.837957300067646467e-03
4.952000000000000313e+01,3.074224890806609000e-03
4.956000000000000227e+01,5.272710072462298211e-03
4.960000000000000142e+01,7.191512031052923852e-03
4.964000000000000057e+01,5.895166421146915380e-03
4.967999999999999972e+01,3.130973848611454113e-03
4.971999999999999886e+01,7.495652310765786586e-03
4.975999999999999801e+01,3.822634977442571427e-03
4.979999999999999716e+01,4.552700626877952128e-03
4.984000000000000341e+01,3.884812331502258010e-03
4.988000000000000256e+01,5.173787023747967138e-03
4.992000000000000171e+01,5.414268343984988789e-03
4.996000000000000085e+01,6.353556898080525532e-03
5.000000000000000000e+01,3.378779999839211581e-03
5.003999999999999915e+01,7.323200100931961769e-03
5.007999999999999829e+01,6.654635109512900375e-03
5.011999999999999744e+01,8.851530795725405520e-03
5.015999999999999659e+01,6.505333905434541007e-03
5.020000000000000284e+01,4.508485683439530239e-03
5.024000000000000199e+01,7.334075289348734872e-03
5.028000000000000114e+01,4.218732787499643831e-03
5.032000000000000028e+01,4.318312288799430049e-03
5.035999999999999943e+01,5.885513689190797516e-03
5.039999999999999858e+01,6.613900771028536837e-03
5.043999999999999773e+01,6.852933856210085758e-03
5.047999999999999687e+01,7.930561465411708338e-03
5.052000000000000313e+01,6.911319253201796305e-03
5.056000000000000227e+01,5.752183868043052491e-03
5.060000000000000142e+01,8.506892384352805064e-03
5.064000000000000057e+01,4.132506809674686872e-03
5.067999999999999972e+01,7.166566348199526586e-03
5.071999999999999886e+01,6.216672936478451553e-03
5.075999999999999801e+01,6.035483790913728080e-03
5.079999999999999716e+01,3.198290466684310454e-03
5.084000000000000341e+01,3.506130393169859614e-03
5.088000000000000256e+01,4.303107281732702731e-03
5.092000000000000171e+01,7.266629724041568164e-03
5.096000000000000085e+01,7.853717048099596865e-03
5.100000000000000000e+01,6.413829575804185813e-03
5.103999999999999915e+01,9.446924878519856461e-03
5.107999999999999829e+01,4.652008708217398800e-03
5.111999999999999744e+01,7.265540411072510252e-03
5.115999999999999659e+01,6.873610122415229479e-03
5.120000000000000284e+01,6.271898661090068682e-03
5.124000000000000199e+01,5.879758363192971043e-03
5.128000000000000114e+01,5.487513437033414952e-03
5.132000000000000028e+01,6.772572474280123128e-03
5.135999999999999943e+01,5.681198902325670062e-03
5.139999999999999858e+01,5.358533611007041363e-03
5.143999999999999773e+01,5.944360879626189691e-03
5.147999999999999687e+01,5.970948660919823438e-03
5.152000000000000313e+01,6.836137489762665262e-03
5.156000000000000227e+01,6.303383162708034622e-03
5.160000000000000142e+01,3.603873774477533379e-03
5.164000000000000057e+01,6.425731137809937571e-03
5.167999999999999972e+01,5.333533586814146431e-03
5.171999999999999886e+01,8.923999118809373965e-03
5.175999999999999801e+01,6.923001897522554349e-03
5.179999999999999716e+01,5.970283522715211233e-03
5.184000000000000341e+01,6.065844245292316764e-03
5.188000000000000256e+01,6.231196117379962998e-03
5.192000000000000171e+01,3.740550836142009835e-03
5.196000000000000085e+01,2.437969433400379287e-03
5.200000000000000000e+01,5.258916756396616980e-03
5.203999999999999915e+01,5.563651707179136617e-03
5.207999999999999829e+01,5.658611005203083646e-03
5.211999999999999744e+01,5.963146986564376965e-03
5.215999999999999659e+01,3.541795305831384015e-03
5.220000000000000284e+01,6.012785761544463432e-03
5.224000000000000199e+01,7.714865454530948907e-03
5.228000000000000114e+01,7.879222479512377683e-03
5.232000000000000028e+01,4.968232775026951847e-03
5.235999999999999943e+01,9.745266778547050437e-03
5.239999999999999858e+01,5.785701404332587242e-03
5.243999999999999773e+01,5.879775501612113237e-03
5.247999999999999687e+01,4.995264298999370529e-03
5.252000000000000313e+01,6.976228828316234296e-03
5.256000000000000227e+01,8.467852658940172930e-03
5.260000000000000142e+01,7.093807559027502825e-03
5.264000000000000057e+01,4.182042049254504519e-03
5.267999999999999972e+01,7.420677942360001320e-03
5.271999999999999886e+01,5.277533146498157406e-03
5.275999999999999801e+01,3.763321133644063725e-03
5.279999999999999716e+01,6.791994949818124308e-03
5.284000000000000341e+01,8.143165582259699609e-03
5.288000000000000256e+01,7.397481196682815889e-03
5.292000000000000171e+01,8.538786853306395627e-03
5.296000000000000085e+01,8.561726192500281746e-03
5.300000000000000000e+01,4.950186954023861295e-03
5.303999999999999915e+01,9.865379859319314132e-03
5.307999999999999829e+01,6.622925589808904183e-04
5.311999999999999744e+01,6.765463281477790934e-03
5.315999999999999659e+01,6.019123776793719981e-03
5.320000000000000284e+01,6.251179886064468262e-03
5.324000000000000199e+01,5.504655462637306727e-03
5.328000000000000114e+01,5.387067083982482150e-03
5.332000000000000028e+01,8.204851469555123067e-03
5.335999999999999943e+01,6.339779322624788244e-03
5.339999999999999858e+01,7.899324541121261617e-03
5.343999999999999773e+01,8.270614438849209493e-03
5.347999999999999687e+01,1.024932983465317617e-02
5.352000000000000313e+01,5.867781360810290364e-03
5.356000000000000227e+01,3.862471043036756150e-03
5.360000000000000142e+01,4.512967189031481113e-03
5.364000000000000057e+01,8.168730120691894761e-03
5.367999999999999972e+01,9.517967009837717887e-03
5.371999999999999886e+01,6.533809695617764576e-03
5.375999999999999801e+01,6.065675820388965502e-03
5.379999999999999716e+01,1.181784238757623874e-02
5.384000000000000341e+01,8.973202638004731946e-03
5.388000000000000256e+01,6.967178739375540046e-03
5.392000000000000171e+01,7.267503240761891137e-03
5.396000000000000085e+01,6.449467697342794147e-03
5.400000000000000000e+01,9.964649467505373726e-03
5.403999999999999915e+01,8.517410913755477098e-03
5.407999999999999829e+01,8.118465508068203884e-03
5.411999999999999744e+01,7.439865231577203093e-03
5.415999999999999659e+01,7.669774576561766942e-03
5.420000000000000284e+01,7.550137538354050742e-03
5.424000000000000199e+01,8.059442566637892852e-03
5.428000000000000114e+01,5.353629131401291263e-03
5.432000000000000028e+01,7.330495087978564778e-03
5.435999999999999943e+01,7.140623295822727014e-03
5.439999999999999858e+01,8.278614715763172802e-03
5.443999999999999773e+01,9.486413343132089546e-03
5.447999999999999687e+01,8.597366988681237956e-03
5.452000000000000313e+01,8.477048485453716337e-03
5.456000000000000227e+01,9.195350098552924206e-03
5.460000000000000142e+01,8.236159567738212187e-03
5.464000000000000057e+01,8.045697640861724023e-03
5.467999999999999972e+01,3.731523574934086495e-03
5.471999999999999886e+01,9.481716503153742037e-03
5.475999999999999801e+01,7.683489098406223218e-03
5.479999999999999716e+01,8.680859712972959288e-03
5.484000000000000341e+01,7.441603575467661998e-03
5.488000000000000256e+01,6.971077547330391082e-03
5.492000000000000171e+01,9.715502376413215693e-03
5.496000000000000085e+01,6.588916467817436048e-03
5.500000000000000000e+01,5.349333648480406045e-03
5.503999999999999915e+01,9.910706964422529713e-03
5.507999999999999829e+01,8.251610224408501698e-03
5.511999999999999744e+01,9.947249624536394844e-03
5.515999999999999659e+01,5.701987527312057241e-03
5.520000000000000284e+01,6.488870412803335666e-03
5.524000000000000199e+01,5.039129055272257088e-03
5.528000000000000114e+01,8.272073111274298382e-03
5.532000000000000028e+01,6.682388900719779187e-03
5.535999999999999943e+01,5.162517668407978419e-03
5.539999999999999858e+01,9.443604829520012983e-03
5.543999999999999773e+01,8.832172462591955306e-03
5.547999999999999687e+01,8.989473968606383897e-03
5.552000000000000313e+01,9.356373484880367922e-03
5.556000000000000227e+01,8.185570907356666884e-03
5.560000000000000142e+01,1.050929150923145781e-02
5.564000000000000057e+01,9.897470235148673329e-03
5.567999999999999972e+01,9.355463946548375764e-03
5.571999999999999886e+01,9.162840951129423706e-03
5.575999999999999801e+01,1.015830567017870362e-02
5.579999999999999716e+01,8.427905559485741882e-03
5.584000000000000341e+01,8.584513807055856385e-03
5.588000000000000256e+01,8.671154266236266034e-03
5.592000000000000171e+01,8.967395244725907474e-03
5.596000000000000085e+01,1.101086130579655674e-02
5.600000000000000000e+01,1.025857177745128843e-02
5.603999999999999915e+01,7.479339066778495707e-03
5.607999999999999829e+01,8.613984631554780572e-03
5.611999999999999744e+01,8.979743771386257054e-03
5.615999999999999659e+01,9.135752850765847116e-03
5.620000000000000284e+01,7.404603779834773199e-03
5.624000000000000199e+01,9.167981902781681403e-03
5.628000000000000114e+01,6.528089866082196352e-03
5.632000000000000028e+01,7.802077610261593139e-03
5.635999999999999943e+01,1.131253704546107859e-02
5.639999999999999858e+01,1.132832325830944280e-02
5.643999999999999773e+01,9.596736854673902639e-03
5.647999999999999687e+01,9.752162823780911524e-03
5.652000000000000313e+01,1.172470940233692055e-02
5.656000000000000227e+01,8.804743478191885686e-03
5.660000000000000142e+01,1.007822714805448223e-02
5.664000000000000057e+01,1.177099189611116765e-02
5.667999999999999972e+01,7.383080652807413359e-03
5.671999999999999886e+01,9.355272196379322072e-03
5.675999999999999801e+01,1.104782542887538729e-02
5.679999999999999716e+01,9.665060033260923153e-03
5.684000000000000341e+01,9.819849197541263147e-03
5.688000000000000256e+01,1.353906158437757738e-02
5.692000000000000171e+01,1.012921927230587757e-02
5.696000000000000085e+01,9.794556585210644969e-03
5.700000000000000000e+01,1.330388593018025541e-02
5.703999999999999915e+01,1.031318945674315236e-02
5.707999999999999829e+01,1.088691746038685654e-02
5.711999999999999744e+01,1.139068545369486575e-02
5.715999999999999659e+01,7.840648878258240848e-03
5.720000000000000284e+01,9.812013930175021714e-03
5.724000000000000199e+01,1.227255583805891490e-02
5.728000000000000114e+01,1.186745817128740180e-02
5.732000000000000028e+01,1.195153786229293490e-02
5.735999999999999943e+01,9.729114594040895111e-03
5.739999999999999858e+01,9.393709469345661381e-03
5.743999999999999773e+01,8.149642171172579927e-03
5.747999999999999687e+01,8.932377546763188569e-03
5.752000000000000313e+01,1.125267174763306191e-02
5.756000000000000227e+01,9.169703817815490210e-03
5.760000000000000142e+01,1.183932786821763686e-02
5.764000000000000057e+01,1.052504237493323037e-02
5.767999999999999972e+01,1.109777678154038813e-02
5.771999999999999886e+01,1.139087889879086823e-02
5.775999999999999801e+01,1.238283717636853680e-02
5.779999999999999716e+01,8.831750800291599673e-03
5.784000000000000341e+01,1.108163812284151777e-02
5.788000000000000256e+01,8.019669137363375985e-03
5.792000000000000171e+01,1.068878233812355430e-02
5.796000000000000085e+01,7.976147718467111597e-03
5.800000000000000000e+01,1.211286801403473924e-02
5.803999999999999915e+01,8.910864593437983761e-03
5.807999999999999829e+01,1.192918846208883450e-02
5.811999999999999744e+01,1.096360579791275276e-02
5.815999999999999659e+01,7.062497064792034630e-03
5.820000000000000284e+01,1.231718096997038922e-02
5.824000000000000199e+01,1.400731118022764503e-02
5.828000000000000114e+01,9.756559463720103700e-03
5.832000000000000028e+01,1.172613654188998586e-02
5.835999999999999943e+01,8.942996436479333511e-03
5.839999999999999858e+01,9.654397073814916311e-03
5.843999999999999773e+01,1.288185050602283152e-02
5.847999999999999687e+01,1.373291599011381564e-02
5.852000000000000313e+01,1.060007745042750027e-02
5.856000000000000227e+01,8.655344188557132293e-03
5.860000000000000142e+01,9.296556739377509829e-03
5.864000000000000057e+01,1.224414729699956420e-02
5.867999999999999972e+01,1.274545914683100807e-02
5.871999999999999886e+01,9.472544270005503475e-03
5.875999999999999801e+01,1.228017691941504612e-02
5.879999999999999716e+01,1.075444723038965211e-02
5.884000000000000341e+01,1.419099334223341419e-02
5.888000000000000256e+01,1.294471754645973305e-02
5.892000000000000171e+01,1.113924893168444577e-02
5.896000000000000085e+01,8.704695734614043348e-03
5.900000000000000000e+01,1.277004365439946866e-02
5.903999999999999915e+01,1.362030296835557534e-02
5.907999999999999829e+01,9.787741629219064848e-03
5.911999999999999744e+01,9.938969648507656185e-03
5.915999999999999659e+01,1.260625497895797448e-02
5.920000000000000284e+01,1.478424126093997627e-02
5.924000000000000199e+01,1.325789609222809140e-02
5.928000000000000114e+01,1.487663711517926701e-02
5.932000000000000028e+01,1.502759164359815207e-02
5.935999999999999943e+01,1.147421547403805302e-02
5.939999999999999858e+01,1.204441444763479710e-02
5.943999999999999773e+01,1.226509990658996782e-02
5.947999999999999687e+01,1.423303252776326501e-02
5.952000000000000313e+01,1.669015630648684051e-02
5.956000000000000227e+01,1.278705410221363421e-02
5.960000000000000142e+01,1.146990398325534004e-02
5.964000000000000057e+01,1.141075793074560092e-02
5.967999999999999972e+01,1.428702453635310662e-02
5.971999999999999886e+01,1.129231026197315482e-02
5.975999999999999801e+01,1.542652999942979893e-02
5.979999999999999716e+01,1.501771762848023821e-02
5.984000000000000341e+01,9.436845272242996505e-03
5.988000000000000256e+01,1.098490768055727582e-02
5.992000000000000171e+01,1.260281167028054310e-02
5.996000000000000085e+01,1.436044950651625164e-02
