2.003999999999999915e+01,2.222282342510392694e-02
2.007999999999999829e+01,1.724612054285449766e-02
2.012000000000000099e+01,1.615731593229233556e-02
2.016000000000000014e+01,2.110511131383080788e-02
2.019999999999999929e+01,1.530916858368567418e-02
2.023999999999999844e+01,1.524286824814568772e-02
2.028000000000000114e+01,2.049693367300130936e-02
2.032000000000000028e+01,1.736060078001375184e-02
2.035999999999999943e+01,1.657737856112095204e-02
2.039999999999999858e+01,1.487305462493784466e-02
2.044000000000000128e+01,1.634039424138774080e-02
2.048000000000000043e+01,1.535184493283415011e-02
2.051999999999999957e+01,1.200972573599171436e-02
2.055999999999999872e+01,1.327173767795926211e-02
2.060000000000000142e+01,1.750077451430910591e-02
2.064000000000000057e+01,1.006519995913905847e-02
2.067999999999999972e+01,1.204275555705568330e-02
2.071999999999999886e+01,1.565718701254093306e-02
2.076000000000000156e+01,3.616560550886849159e-03
2.080000000000000071e+01,6.718935464259609587e-03
2.083999999999999986e+01,1.585790871273837568e-02
2.087999999999999901e+01,1.906214149922668896e-02
2.092000000000000171e+01,1.899193121506023707e-02
2.096000000000000085e+01,2.076323447201059921e-02
2.100000000000000000e+01,1.404181861993887212e-02
2.103999999999999915e+01,1.683585117790639685e-02
2.107999999999999829e+01,1.983429083762267356e-02
2.112000000000000099e+01,2.140003135465992981e-02
2.116000000000000014e+01,1.999828561877538269e-02
2.119999999999999929e+01,1.921022322896821441e-02
2.123999999999999844e+01,1.187350469482938500e-02
2.128000000000000114e+01,1.804268021911700423e-02
2.132000000000000028e+01,1.224028529233607901e-02
2.135999999999999943e+01,1.574869972746273383e-02
2.139999999999999858e+01,1.168526628652835457e-02
2.144000000000000128e+01,2.358338573457563134e-02
2.148000000000000043e+01,1.205019131297148903e-02
2.151999999999999957e+01,1.003244413176361885e-02
2.155999999999999872e+01,1.200491084750048877e-02
2.160000000000000142e+01,1.141916677488225354e-02
2.164000000000000057e+01,1.267493458638665679e-02
2.167999999999999972e+01,9.940023536007645474e-03
2.171999999999999886e+01,1.753911231215251124e-02
2.176000000000000156e+01,1.081328947880473568e-02
2.180000000000000071e+01,1.800263597350959879e-02
2.183999999999999986e+01,1.966651620367754205e-02
2.187999999999999901e+01,1.672580227950190915e-02
2.192000000000000171e+01,1.705906743574484713e-02
2.196000000000000085e+01,1.483412092640047815e-02
2.200000000000000000e+01,1.260894100861952201e-02
2.203999999999999915e+01,1.601107996509774228e-02
2.207999999999999829e+01,1.061353977830274166e-02
2.212000000000000099e+01,1.319665835707775278e-02
2.216000000000000014e+01,1.199373517269615788e-02
2.219999999999999929e+01,2.327351246307687166e-02
2.223999999999999844e+01,2.861854597747888126e-02
2.228000000000000114e+01,2.373143198266880471e-02
2.232000000000000028e+01,1.137478700416683607e-02
2.235999999999999943e+01,1.139852297636138705e-02
2.239999999999999858e+01,1.970987443438882575e-02
2.244000000000000128e+01,1.604965271218083619e-02
2.248000000000000043e+01,8.910345849608751478e-03
2.251999999999999957e+01,2.182535461171511773e-02
2.255999999999999872e+01,1.632268444753048886e-02
2.260000000000000142e+01,9.080354131713317886e-03
2.264000000000000057e+01,1.472999975522524055e-02
2.267999999999999972e+01,1.342170918873729704e-02
2.271999999999999886e+01,8.532013762878869201e-03
2.276000000000000156e+01,1.694357052067815492e-02
2.280000000000000071e+01,1.798791425932757745e-02
2.283999999999999986e+01,1.340447016249897080e-02
2.287999999999999901e+01,1.987125700485096319e-02
2.292000000000000171e+01,8.738917117158467515e-03
2.296000000000000085e+01,1.152174373088131823e-02
2.300000000000000000e+01,1.829478073262019375e-02
2.303999999999999915e+01,1.411943443391829207e-02
2.307999999999999829e+01,1.772010629313083147e-02
2.312000000000000099e+01,1.661386184223731174e-02
2.316000000000000014e+01,1.110765838632194087e-02
2.319999999999999929e+01,1.726559989493411593e-02
2.323999999999999844e+01,1.646560384896298551e-02
2.328000000000000114e+01,1.730247742246479592e-02
2.332000000000000028e+01,1.721824216334827753e-02
2.335999999999999943e+01,1.856623806039454233e-02
2.339999999999999858e+01,1.674210397781549994e-02
2.344000000000000128e+01,1.154120154977131968e-02
2.348000000000000043e+01,1.524182678097233713e-02
2.351999999999999957e+01,2.098859758356413918e-02
2.355999999999999872e+01,7.499133949630133918e-03
2.360000000000000142e+01,1.989617395721371418e-02
2.364000000000000057e+01,1.172683058892809611e-02
2.367999999999999972e+01,1.153814218487281273e-02
2.371999999999999886e+01,1.360023713322686470e-02
2.376000000000000156e+01,9.522946333363061996e-03
2.380000000000000071e+01,1.260775713184028937e-02
2.383999999999999986e+01,1.456681956221636889e-02
2.387999999999999901e+01,1.673028227142382002e-02
2.392000000000000171e+01,9.377827414432889086e-03
2.396000000000000085e+01,1.225704779144715442e-02
2.400000000000000000e+01,1.247573239770662784e-02
2.403999999999999915e+01,1.126171074595923305e-02
2.407999999999999829e+01,1.066136542243137364e-02
2.412000000000000099e+01,5.865697022965537036e-03
2.416000000000000014e+01,1.314344778548063794e-02
2.419999999999999929e+01,6.914834066296900172e-03
2.423999999999999844e+01,7.029767799802823930e-03
2.428000000000000114e+01,1.205578100994023766e-02
2.432000000000000028e+01,1.800242736603029081e-02
2.435999999999999943e+01,1.259141066842213615e-02
2.439999999999999858e+01,1.260306882595901151e-02
2.444000000000000128e+01,1.824204000954038341e-02
2.448000000000000043e+01,9.044497284728282918e-03
2.451999999999999957e+01,1.509226600439497051e-02
2.455999999999999872e+01,1.735398711269023689e-02
2.460000000000000142e+01,1.920619194024351245e-02
2.464000000000000057e+01,1.144015831294912557e-02
2.467999999999999972e+01,7.766650114105180108e-03
2.471999999999999886e+01,2.118019728771585244e-02
2.476000000000000156e+01,1.310648614862682318e-02
2.480000000000000071e+01,1.772010741710393356e-02
2.483999999999999986e+01,8.213447839249205309e-03
2.487999999999999901e+01,1.937501294043748878e-02
2.492000000000000171e+01,7.002936655348337633e-03
2.496000000000000085e+01,2.522404087029105763e-02
2.500000000000000000e+01,9.372632682977468516e-03
2.503999999999999915e+01,1.296161917460791034e-02
2.507999999999999829e+01,1.378774812960203641e-02
2.512000000000000099e+01,1.164638118212005594e-02
2.516000000000000014e+01,3.979539880070697561e-03
2.519999999999999929e+01,9.409306547624399913e-03
2.523999999999999844e+01,1.166693875192151633e-02
2.528000000000000114e+01,7.989819772501165901e-03
2.532000000000000028e+01,8.609862930377014389e-03
2.535999999999999943e+01,1.649432301943904236e-02
2.539999999999999858e+01,8.928352153182949474e-03
2.544000000000000128e+01,1.169637204871775381e-02
2.548000000000000043e+01,4.948470576714543261e-03
2.551999999999999957e+01,1.958502616352418915e-02
2.555999999999999872e+01,1.416678936681712436e-02
2.560000000000000142e+01,1.335267142766890201e-02
2.564000000000000057e+01,1.888209752975167355e-02
2.567999999999999972e+01,1.356545303254225870e-02
2.571999999999999886e+01,8.760161733087504579e-03
2.576000000000000156e+01,7.024201888538224650e-03
2.580000000000000071e+01,1.245033876881754785e-02
2.583999999999999986e+01,1.255563790590506247e-02
2.587999999999999901e+01,1.849288482847783258e-02
2.592000000000000171e+01,1.030984827302216036e-02
2.596000000000000085e+01,1.256312034642904918e-02
2.600000000000000000e+01,1.655557454551691982e-02
2.603999999999999915e+01,1.471559484313756348e-02
2.607999999999999829e+01,1.809364763378316920e-02
2.612000000000000099e+01,1.502535152291199078e-02
2.616000000000000014e+01,1.103593965903505378e-02
2.619999999999999929e+01,7.455560689084971340e-03
2.623999999999999844e+01,1.707410628869640221e-02
2.628000000000000114e+01,1.317262772714844184e-03
2.632000000000000028e+01,3.056747267117487701e-03
2.635999999999999943e+01,2.075777266166155960e-02
2.639999999999999858e+01,1.308340864820186494e-02
2.644000000000000128e+01,6.227353480587000459e-03
2.648000000000000043e+01,7.249627320100536162e-03
2.651999999999999957e+01,6.327593187527658612e-03
2.655999999999999872e+01,1.246533479366392257e-02
2.660000000000000142e+01,1.000802451075887001e-02
2.664000000000000057e+01,1.420121323488310154e-02
2.667999999999999972e+01,1.194805169290710962e-02
2.671999999999999886e+01,1.307117666910515702e-02
2.676000000000000156e+01,1.040824867306820722e-02
2.680000000000000071e+01,2.012569080853062256e-02
2.683999999999999986e+01,1.909937865224852274e-02
2.687999999999999901e+01,4.669014617945987759e-03
2.692000000000000171e+01,1.602282700094579890e-02
2.696000000000000085e+01,1.734911873908428701e-02
2.700000000000000000e+01,1.089891068695773499e-02
2.703999999999999915e+01,1.294094508248510612e-02
2.707999999999999829e+01,1.181084053112460737e-02
2.712000000000000099e+01,1.231759624209333680e-02
2.716000000000000014e+01,1.538208432558469188e-02
2.719999999999999929e+01,1.599066710907132496e-02
2.723999999999999844e+01,2.028249254617322042e-02
2.728000000000000114e+01,1.219345647240061524e-02
2.732000000000000028e+01,8.606215930781525164e-03
2.735999999999999943e+01,8.804536884551836251e-03
2.739999999999999858e+01,1.176522789439300547e-02
2.744000000000000128e+01,1.288392782451690081e-02
2.748000000000000043e+01,7.556275539135664382e-03
2.751999999999999957e+01,7.855928774589938934e-03
2.755999999999999872e+01,5.597356698622459742e-03
2.760000000000000142e+01,7.635941204147052817e-03
2.764000000000000057e+01,7.423257605863915407e-03
2.767999999999999972e+01,1.365643221201398756e-02
2.771999999999999886e+01,1.569427496990388401e-02
2.776000000000000156e+01,1.670867894179337704e-02
2.780000000000000071e+01,1.403934654140632544e-02
2.783999999999999986e+01,1.024425602589354271e-02
2.787999999999999901e+01,2.108055396224980602e-02
2.792000000000000171e+01,1.145277722760532774e-02
2.796000000000000085e+01,1.512624000548663979e-02
2.800000000000000000e+01,3.656222895038215622e-03
2.803999999999999915e+01,1.183123142163503873e-02
2.807999999999999829e+01,1.366220540485784361e-02
2.812000000000000099e+01,1.600452673762054259e-02
2.816000000000000014e+01,1.118426025859007786e-02
2.819999999999999929e+01,7.284617470898333523e-03
2.823999999999999844e+01,6.147342692402218978e-03
2.828000000000000114e+01,6.544606215413419428e-03
2.832000000000000028e+01,1.103438629708267810e-02
2.835999999999999943e+01,1.132883297096779450e-02
2.839999999999999858e+01,1.019056276258914311e-02
2.844000000000000128e+01,1.580510630926361751e-02
2.848000000000000043e+01,1.180140204394673938e-02
2.851999999999999957e+01,1.291340519178511489e-02
2.855999999999999872e+01,1.330892500677259213e-02
2.860000000000000142e+01,1.094157870774217604e-02
2.864000000000000057e+01,1.215515251668368608e-02
2.867999999999999972e+01,1.101513655340617508e-02
2.871999999999999886e+01,6.498339378590982027e-03
2.876000000000000156e+01,1.180392920461211664e-02
2.880000000000000071e+01,1.598375857622155727e-02
2.883999999999999986e+01,1.463810462600103127e-02
2.887999999999999901e+01,1.431539184430990173e-02
2.892000000000000171e+01,9.695025156066360700e-03
2.896000000000000085e+01,1.377153450527467821e-02
2.900000000000000000e+01,6.592688628421041960e-03
2.903999999999999915e+01,1.220348396147227441e-02
2.907999999999999829e+01,5.638051665857604124e-03
2.912000000000000099e+01,1.053211164080434213e-02
2.916000000000000014e+01,1.399345288155267979e-02
2.919999999999999929e+01,1.305482039927205982e-02
2.923999999999999844e+01,1.017187331692837558e-02
2.928000000000000114e+01,1.097216391721738890e-02
2.932000000000000028e+01,1.136292673527544532e-02
2.935999999999999943e+01,1.646011838287414833e-02
2.939999999999999858e+01,1.685037841753817336e-02
2.944000000000000128e+01,6.599196959076549830e-03
2.948000000000000043e+01,6.170400746986783556e-03
2.951999999999999957e+01,5.127437996945121389e-03
2.955999999999999872e+01,1.748802999480414747e-02
2.960000000000000142e+01,1.470513820552369136e-02
2.964000000000000057e+01,1.028488824403222049e-02
2.967999999999999972e+01,7.910768843513623846e-03
2.971999999999999886e+01,1.443816189688183760e-02
2.976000000000000156e+01,7.561496054371869002e-03
2.980000000000000071e+01,1.838578801070436114e-02
2.983999999999999986e+01,5.983383994473671051e-03
2.987999999999999901e+01,1.230512892399329879e-02
2.992000000000000171e+01,1.422689837601949676e-02
2.996000000000000085e+01,1.706928723069366105e-02
3.000000000000000000e+01,1.305604119249785880e-02
3.003999999999999915e+01,8.633265617606583273e-03
3.007999999999999829e+01,7.177491836649263143e-03
3.012000000000000099e+01,7.665528410307305071e-03
3.016000000000000014e+01,1.050665177784983542e-02
3.019999999999999929e+01,3.934161410550143616e-03
3.023999999999999844e+01,7.184054437687631411e-03
3.028000000000000114e+01,1.176384262445046534e-02
3.032000000000000028e+01,7.850888991623854521e-03
3.035999999999999943e+01,9.667553093430175659e-03
3.039999999999999858e+01,2.048804712631398239e-02
3.044000000000000128e+01,8.286481992950570780e-03
3.048000000000000043e+01,7.442086681975460145e-03
3.051999999999999957e+01,6.188160664661939911e-03
3.055999999999999872e+01,1.588212773805686151e-02
3.060000000000000142e+01,1.984596893256129410e-02
3.064000000000000057e+01,1.234981263635402671e-02
3.067999999999999972e+01,1.303893251545384067e-02
3.071999999999999886e+01,7.997926223252406833e-03
3.076000000000000156e+01,5.923920067990800543e-03
3.080000000000000071e+01,1.060272191703775548e-02
3.083999999999999986e+01,1.947635331830209482e-02
3.087999999999999901e+01,1.034156205620358551e-02
3.092000000000000171e+01,1.031291859225422387e-02
3.096000000000000085e+01,1.079561555745732482e-02
3.100000000000000000e+01,1.332443986711516135e-02
3.103999999999999915e+01,1.789939142375754355e-02
3.107999999999999829e+01,1.070738701496104332e-02
3.112000000000000099e+01,6.501912173363183717e-04
3.116000000000000014e+01,1.535397016331952434e-02
3.119999999999999929e+01,1.511889969172310749e-02
3.123999999999999844e+01,5.981808621982273762e-03
3.128000000000000114e+01,7.281013217561252242e-03
3.132000000000000028e+01,8.682280828321117111e-03
3.135999999999999943e+01,1.202735577211866413e-02
3.139999999999999858e+01,3.503154836530572320e-03
3.144000000000000128e+01,5.722206578935765293e-03
3.148000000000000043e+01,6.713172202237992735e-03
3.151999999999999957e+01,1.077345524473014883e-02
3.155999999999999872e+01,1.616363032779978559e-02
3.160000000000000142e+01,7.638146360435709228e-03
3.164000000000000057e+01,6.274744887244389571e-03
3.167999999999999972e+01,2.005431827717299789e-02
3.171999999999999886e+01,1.040255284506721306e-02
3.176000000000000156e+01,9.959252298420175759e-03
3.180000000000000071e+01,1.545020424584687101e-02
3.183999999999999986e+01,1.459711248769643074e-02
3.187999999999999901e+01,1.589246506384020541e-02
3.192000000000000171e+01,1.340175209408731548e-02
3.196000000000000085e+01,7.738888286076511629e-03
3.200000000000000000e+01,6.884766008754967734e-03
3.203999999999999915e+01,4.904875381931822487e-03
3.207999999999999829e+01,6.812853883193943118e-03
3.211999999999999744e+01,1.240406314670133153e-02
3.215999999999999659e+01,3.363378055897708104e-03
3.220000000000000284e+01,8.544794353437266954e-03
3.224000000000000199e+01,7.893761641621394043e-03
3.228000000000000114e+01,7.856385276624718375e-03
3.232000000000000028e+01,9.455856502825325111e-03
3.235999999999999943e+01,1.177130301508943003e-02
3.239999999999999858e+01,2.217471211211725999e-03
3.243999999999999773e+01,8.420527223628257105e-03
3.247999999999999687e+01,1.533955822969759568e-02
3.252000000000000313e+01,6.603502662375290710e-03
3.256000000000000227e+01,1.280578154545780264e-02
3.260000000000000142e+01,1.235705746847399512e-02
3.264000000000000057e+01,1.405677587384972574e-02
3.267999999999999972e+01,1.125419294210022909e-02
3.271999999999999886e+01,1.274875411565140962e-02
3.275999999999999801e+01,8.410865012733968402e-03
3.279999999999999716e+01,8.881715491100857993e-03
3.284000000000000341e+01,1.364970978235766595e-02
3.288000000000000256e+01,0.000000000000000000e+00
3.292000000000000171e+01,1.356691989299556485e-02
3.296000000000000085e+01,2.979387715951285417e-02
3.300000000000000000e+01,1.196903508263594818e-01
3.303999999999999915e+01,1.296753203846228442e-01
3.307999999999999829e+01,3.478291699573204249e-02
3.311999999999999744e+01,9.467264347366336624e-03
3.315999999999999659e+01,1.239143213138073178e-02
3.320000000000000284e+01,1.081329731115673529e-02
3.324000000000000199e+01,1.158824177960826249e-02
3.328000000000000114e+01,1.000958526676246768e-02
3.332000000000000028e+01,8.839944298139770437e-03
3.335999999999999943e+01,8.386276178824446370e-03
3.339999999999999858e+01,8.853219079715920342e-03
3.343999999999999773e+01,1.249179385541038592e-02
3.347999999999999687e+01,1.899504300588306452e-02
3.352000000000000313e+01,1.352669197686216102e-02
3.356000000000000227e+01,1.092301512767903347e-02
3.360000000000000142e+01,1.537909686244175178e-02
3.364000000000000057e+01,3.873131892091462910e-03
3.367999999999999972e+01,1.150058314455747709e-02
3.371999999999999886e+01,1.636515580681413215e-02
3.375999999999999801e+01,6.495511081765085841e-03
3.379999999999999716e+01,6.959836747225522403e-03
3.384000000000000341e+01,1.612102655876775092e-02
3.388000000000000256e+01,1.177582830081160860e-02
3.392000000000000171e+01,1.500198351796356265e-02
3.396000000000000085e+01,3.493920860458602992e-03
3.400000000000000000e+01,1.664450689198922542e-02
3.403999999999999915e+01,1.414000264625891665e-02
3.407999999999999829e+01,1.296538430048056398e-02
3.411999999999999744e+01,5.037440156581707469e-03
3.415999999999999659e+01,1.081999695405976882e-02
3.420000000000000284e+01,1.885331156674258449e-02
3.424000000000000199e+01,1.378951376943418107e-02
3.428000000000000114e+01,9.134729177062981750e-03
3.432000000000000028e+01,1.020955266977031234e-02
3.435999999999999943e+01,9.953963891332099842e-03
3.439999999999999858e+01,1.553030213721676329e-02
3.443999999999999773e+01,9.748952766901210903e-03
3.447999999999999687e+01,1.512012520357965302e-02
3.452000000000000313e+01,6.984908011235776808e-03
3.456000000000000227e+01,1.307178645649059029e-02
3.460000000000000142e+01,1.220069966561222047e-02
3.464000000000000057e+01,1.711350052324707438e-03
3.467999999999999972e+01,5.648734052594757415e-03
3.471999999999999886e+01,8.562662307041567916e-03
3.475999999999999801e+01,1.024849644982518682e-02
3.479999999999999716e+01,1.735698010548987133e-02
3.484000000000000341e+01,8.401094997749342791e-03
3.488000000000000256e+01,1.755543184686936611e-02
3.492000000000000171e+01,1.453352683666748850e-02
3.496000000000000085e+01,4.553655713100269141e-03
3.500000000000000000e+01,1.309328279072222677e-02
3.503999999999999915e+01,1.242392260797187120e-02
3.507999999999999829e+01,1.615401991396250153e-02
3.511999999999999744e+01,1.251687417996740805e-02
3.515999999999999659e+01,1.317686660558796928e-02
3.520000000000000284e+01,1.086933856623038992e-02
3.524000000000000199e+01,7.436034379751555075e-03
3.528000000000000114e+01,5.639570571671772420e-03
3.532000000000000028e+01,1.049358461957795516e-02
3.535999999999999943e+01,1.473341789887628282e-02
3.539999999999999858e+01,1.365239013959398257e-02
3.543999999999999773e+01,1.379892583209043830e-02
3.547999999999999687e+01,1.220576998753509709e-02
3.552000000000000313e+01,1.828628285346284299e-02
3.556000000000000227e+01,5.949085115269650385e-03
3.560000000000000142e+01,1.581487294686610354e-02
3.564000000000000057e+01,1.483456590907915838e-02
3.567999999999999972e+01,6.180057064168568114e-03
3.571999999999999886e+01,1.266851323788304590e-02
3.575999999999999801e+01,1.005029953094563680e-02
3.579999999999999716e+01,1.377560510779666202e-02
3.584000000000000341e+01,1.555658000199405290e-02
3.588000000000000256e+01,1.897439381253682861e-02
3.592000000000000171e+01,1.574119657298285110e-02
3.596000000000000085e+01,1.670281640945477097e-02
3.600000000000000000e+01,1.909663660149168649e-02
3.603999999999999915e+01,1.678350900053305825e-02
3.607999999999999829e+01,7.410093422857317279e-03
3.611999999999999744e+01,1.778400292742191025e-02
3.615999999999999659e+01,2.089298599195927447e-02
3.620000000000000284e+01,2.123908442313203124e-02
3.624000000000000199e+01,1.657127717140348053e-02
3.628000000000000114e+01,1.671220102104786082e-02
3.632000000000000028e+01,2.176417500877979305e-02
3.635999999999999943e+01,2.313239176560257307e-02
3.639999999999999858e+01,1.856583024197952514e-02
3.643999999999999773e+01,1.850104202729391939e-02
3.647999999999999687e+01,2.171019741385748700e-02
3.652000000000000313e+01,1.867761682500991907e-02
3.656000000000000227e+01,1.636100128785007018e-02
3.660000000000000142e+01,1.742064819371344497e-02
3.664000000000000057e+01,2.287974878697819625e-02
3.667999999999999972e+01,1.790202851337250461e-02
3.671999999999999886e+01,2.530465419864506502e-02
3.675999999999999801e+01,2.605626678694576009e-02
3.679999999999999716e+01,2.701224817118843408e-02
3.684000000000000341e+01,2.561461989928192837e-02
3.688000000000000256e+01,2.605846637533436316e-02
3.692000000000000171e+01,2.865074490443002969e-02
3.696000000000000085e+01,3.216362577888057239e-02
3.700000000000000000e+01,2.994636517920126403e-02
3.703999999999999915e+01,3.683523746472345400e-02
3.707999999999999829e+01,3.205945829845468359e-02
3.711999999999999744e+01,3.485502480967429817e-02
3.715999999999999659e+01,4.174308633862758994e-02
3.720000000000000284e+01,4.157085716169691553e-02
3.724000000000000199e+01,3.495225198652106985e-02
3.728000000000000114e+01,4.521603330977292529e-02
3.732000000000000028e+01,4.862416190309972602e-02
3.735999999999999943e+01,4.793925429202192806e-02
3.739999999999999858e+01,5.247235158988950571e-02
3.743999999999999773e+01,5.669822045325101367e-02
3.747999999999999687e+01,5.887743550349384958e-02
3.752000000000000313e+01,7.149293101369816328e-02
3.756000000000000227e+01,7.019275295040211526e-02
3.760000000000000142e+01,7.881725948120280045e-02
3.764000000000000057e+01,9.051106851824575195e-02
3.767999999999999972e+01,1.077298391844969949e-01
3.771999999999999886e+01,1.217764449767748669e-01
3.775999999999999801e+01,1.286604395644005139e-01
3.779999999999999716e+01,1.589752439711703269e-01
3.784000000000000341e+01,1.939964565437886646e-01
3.788000000000000256e+01,2.381237999547332618e-01
3.792000000000000171e+01,2.782604249308747169e-01
3.796000000000000085e+01,3.561525381221566366e-01
3.800000000000000000e+01,4.469365898241932089e-01
3.803999999999999915e+01,5.601282594187041441e-01
3.807999999999999829e+01,7.012527800542002199e-01
3.811999999999999744e+01,8.343961355343333386e-01
3.815999999999999659e+01,9.591490492248933020e-01
3.820000000000000284e+01,1.000000000000000000e+00
3.824000000000000199e+01,9.554142007494099698e-01
3.828000000000000114e+01,8.421719893819666902e-01
3.832000000000000028e+01,7.133769964421309284e-01
3.835999999999999943e+01,5.728150297972716132e-01
3.839999999999999858e+01,4.691899972219011894e-01
3.843999999999999773e+01,3.757966045963069268e-01
3.847999999999999687e+01,2.951928301776394759e-01
3.852000000000000313e+01,2.453868414849602608e-01
3.856000000000000227e+01,2.088820664751914469e-01
3.860000000000000142e+01,1.792323995972180950e-01
3.864000000000000057e+01,1.504010118366645166e-01
3.867999999999999972e+01,1.311873486359564633e-01
3.871999999999999886e+01,1.156569001149030940e-01
3.875999999999999801e+01,1.038096661760342376e-01
3.879999999999999716e+01,9.462245538003119516e-02
3.884000000000000341e+01,8.113756650485474953e-02
3.888000000000000256e+01,7.420082767662751488e-02
3.892000000000000171e+01,6.306872970847118842e-02
3.896000000000000085e+01,6.523784444852293030e-02
3.900000000000000000e+01,6.126753630419313340e-02
3.903999999999999915e+01,5.934333591279870174e-02
3.907999999999999829e+01,4.728926620887358157e-02
3.911999999999999744e+01,4.331813297984875299e-02
3.915999999999999659e+01,4.569051084711175936e-02
3.920000000000000284e+01,4.785797512536262704e-02
3.924000000000000199e+01,4.388601593441056326e-02
3.928000000000000114e+01,3.991378122787554716e-02
3.932000000000000028e+01,3.348561168785125358e-02
3.935999999999999943e+01,3.483342063535127542e-02
3.939999999999999858e+01,3.065572052887641230e-02
3.943999999999999773e+01,3.036587161596147194e-02
3.947999999999999687e+01,3.007574670011239210e-02
3.952000000000000313e+01,3.101317529407698198e-02
3.956000000000000227e+01,2.089986119820442037e-02
3.960000000000000142e+01,2.408775825101593798e-02
3.964000000000000057e+01,2.144318826247652507e-02
3.967999999999999972e+01,2.544908550566626557e-02
3.971999999999999886e+01,2.413411118348877948e-02
3.975999999999999801e+01,1.800986086939801098e-02
3.979999999999999716e+01,1.863839662881049131e-02
3.984000000000000341e+01,1.936897464224143425e-02
3.988000000000000256e+01,2.030391394640543648e-02
3.992000000000000171e+01,1.694117253969940062e-02
3.996000000000000085e+01,2.217296123194269566e-02
4.000000000000000000e+01,2.198155854234219025e-02
4.003999999999999915e+01,2.496177164495412895e-02
4.007999999999999829e+01,1.852834693757305501e-02
4.011999999999999744e+01,2.068945193926034765e-02
4.015999999999999659e+01,2.346419408612833435e-02
4.020000000000000284e+01,2.470387146282519014e-02
4.024000000000000199e+01,2.563631358209872077e-02
4.028000000000000114e+01,1.224379896315579835e-02
4.032000000000000028e+01,2.228208802273154779e-02
4.035999999999999943e+01,1.717686707567165488e-02
4.039999999999999858e+01,1.749428199565842765e-02
4.043999999999999773e+01,1.760678030505544167e-02
4.047999999999999687e+01,1.976538285845896512e-02
4.052000000000000313e+01,1.762630323893870851e-02
4.056000000000000227e+01,1.896579554707219367e-02
4.060000000000000142e+01,1.744007336592913460e-02
4.064000000000000057e+01,1.918828464912968046e-02
4.067999999999999972e+01,1.919679172414641422e-02
4.071999999999999886e+01,1.736327535932427613e-02
4.075999999999999801e+01,1.276686324952950626e-02
4.079999999999999716e+01,1.737889399691793998e-02
4.084000000000000341e+01,1.707932698651159348e-02
4.088000000000000256e+01,1.616556575660347411e-02
4.092000000000000171e+01,2.210690700521653063e-02
4.096000000000000085e+01,1.392792812698865484e-02
4.100000000000000000e+01,1.761768910739852298e-02
4.103999999999999915e+01,1.506570309825952872e-02
4.107999999999999829e+01,1.415054333433394748e-02
4.111999999999999744e+01,1.497452885233640195e-02
4.115999999999999659e+01,1.804925522572082067e-02
4.120000000000000284e+01,1.549614902478442177e-02
4.124000000000000199e+01,1.222652859292915409e-02
4.128000000000000114e+01,1.632360543328706046e-02
4.132000000000000028e+01,1.622531728550111185e-02
4.135999999999999943e+01,1.489891894346142588e-02
4.139999999999999858e+01,2.329255766747538592e-02
4.143999999999999773e+01,2.043081085218095491e-02
4.147999999999999687e+01,1.941052757576720855e-02
4.152000000000000313e+01,2.227809042446057125e-02
4.156000000000000227e+01,1.286707609958642751e-02
4.160000000000000142e+01,1.675726804988409563e-02
4.164000000000000057e+01,2.177268920988753229e-02
4.167999999999999972e+01,2.064868095500301329e-02
4.171999999999999886e+01,1.563626413982670965e-02
4.175999999999999801e+01,8.577183082215460511e-03
4.179999999999999716e+01,1.267060599454318884e-02
4.184000000000000341e+01,2.310753347265224328e-02
4.188000000000000256e+01,2.003805338721373688e-02
4.192000000000000171e+01,1.308016425413220662e-02
4.196000000000000085e+01,1.676318303018448780e-02
4.200000000000000000e+01,1.021400624419327614e-02
4.203999999999999915e+01,1.338486496473181332e-02
4.207999999999999829e+01,1.450905866307347983e-02
4.211999999999999744e+01,2.013501182957761620e-02
4.215999999999999659e+01,2.258878930291116291e-02
4.220000000000000284e+01,1.409413678755612812e-02
4.224000000000000199e+01,1.583111496230380291e-02
4.228000000000000114e+01,1.572606589587304676e-02
4.232000000000000028e+01,1.654160611378418730e-02
4.235999999999999943e+01,1.132003439399804912e-02
4.239999999999999858e+01,1.663705037698813907e-02
4.243999999999999773e+01,1.202882712831656285e-02
4.247999999999999687e+01,1.836846792422008878e-02
4.252000000000000313e+01,7.415891632213095219e-03
4.256000000000000227e+01,1.815468827924877210e-02
4.260000000000000142e+01,1.589867127919661685e-02
4.264000000000000057e+01,1.394932797861540320e-02
4.267999999999999972e+01,1.936667853878874107e-02
4.271999999999999886e+01,1.567734225848737770e-02
4.275999999999999801e+01,1.659208302100943083e-02
4.279999999999999716e+01,2.037147544774241259e-02
4.284000000000000341e+01,1.402098939974157250e-02
4.288000000000000256e+01,1.749285594558014703e-02
4.292000000000000171e+01,1.533688572587733195e-02
4.296000000000000085e+01,1.481773717028639532e-02
4.300000000000000000e+01,1.593541018133703968e-02
4.303999999999999915e+01,2.544296751775844412e-02
4.307999999999999829e+01,2.430905012370032994e-02
4.311999999999999744e+01,2.000295469718571181e-02
4.315999999999999659e+01,2.244963715667365814e-02
4.320000000000000284e+01,2.520299195104910503e-02
4.324000000000000199e+01,2.683055110425405787e-02
4.328000000000000114e+01,2.272795348050052691e-02
4.332000000000000028e+01,2.282015499824760138e-02
4.335999999999999943e+01,2.495845374214347712e-02
4.339999999999999858e+01,2.545936078406364766e-02
4.343999999999999773e+01,2.933651360159500107e-02
4.347999999999999687e+01,3.157627452221022091e-02
4.352000000000000313e+01,3.504357920561449596e-02
4.356000000000000227e+01,3.462247084509566253e-02
4.360000000000000142e+01,3.338252336872866294e-02
4.364000000000000057e+01,3.848607607198188674e-02
4.367999999999999972e+01,4.676123569765513327e-02
4.371999999999999886e+01,5.227349236555756118e-02
4.375999999999999801e+01,4.980457013479207273e-02
4.379999999999999716e+01,5.337219029121134661e-02
4.384000000000000341e+01,4.967486529331617551e-02
4.388000000000000256e+01,5.590220958668910139e-02
4.392000000000000171e+01,6.775681943809667984e-02
4.396000000000000085e+01,6.723052713353712406e-02
4.400000000000000000e+01,8.235877534218591367e-02
4.403999999999999915e+01,8.387829158970898369e-02
4.407999999999999829e+01,9.767581672740022203e-02
4.411999999999999744e+01,1.206817766322442753e-01
4.415999999999999659e+01,1.256792815136038022e-01
4.420000000000000284e+01,1.377365191492940233e-01
4.424000000000000199e+01,1.601277017357595200e-01
4.428000000000000114e+01,1.726959597411168446e-01
4.432000000000000028e+01,1.992816513329631334e-01
4.435999999999999943e+01,2.041753985833195117e-01
4.439999999999999858e+01,2.226773026884850126e-01
4.443999999999999773e+01,2.140643481454236885e-01
4.447999999999999687e+01,2.030977653293961904e-01
4.452000000000000313e+01,1.856847887755387616e-01
4.456000000000000227e+01,1.714434169997558766e-01
4.460000000000000142e+01,1.605782881729470590e-01
4.464000000000000057e+01,1.405041486929068661e-01
4.467999999999999972e+01,1.197134865995067299e-01
4.471999999999999886e+01,1.044477689805514836e-01
4.475999999999999801e+01,9.358148526253765032e-02
4.479999999999999716e+01,8.077084902853505499e-02
4.484000000000000341e+01,7.102949775613050243e-02
4.488000000000000256e+01,6.497134615296276672e-02
4.492000000000000171e+01,5.860594788835291058e-02
4.496000000000000085e+01,5.254721766993972892e-02
4.500000000000000000e+01,5.324126085389777746e-02
4.503999999999999915e+01,3.797322955372271769e-02
4.507999999999999829e+01,4.245250150245288151e-02
4.511999999999999744e+01,3.393695366346974329e-02
4.515999999999999659e+01,2.982083875072554999e-02
4.520000000000000284e+01,2.949024186164109565e-02
4.524000000000000199e+01,3.192197155689769500e-02
4.528000000000000114e+01,2.790730566238963997e-02
4.532000000000000028e+01,2.358539213173703811e-02
4.535999999999999943e+01,2.611857026040827201e-02
4.539999999999999858e+01,1.708939579766223515e-02
4.543999999999999773e+01,2.299852439990179506e-02
4.547999999999999687e+01,1.877776809437133043e-02
4.552000000000000313e+01,1.854716730110826314e-02
4.556000000000000227e+01,1.760004175013977004e-02
4.560000000000000142e+01,2.146162458997691314e-02
4.564000000000000057e+01,1.764898135259915582e-02
4.567999999999999972e+01,1.762185496923814390e-02
4.571999999999999886e+01,1.176224672904880968e-02
4.575999999999999801e+01,1.623657973576538016e-02
4.579999999999999716e+01,1.344596281212545076e-02
4.584000000000000341e+01,1.802203204909058262e-02
4.588000000000000256e+01,2.024446960163097178e-02
4.592000000000000171e+01,1.980631796972177894e-02
4.596000000000000085e+01,1.097770554154184862e-02
4.600000000000000000e+01,1.401782078821894005e-02
4.603999999999999915e+01,1.531821876569927632e-02
4.607999999999999829e+01,1.211628275352199906e-02
4.611999999999999744e+01,1.392769213340682224e-02
4.615999999999999659e+01,1.962693633185026015e-02
4.620000000000000284e+01,1.038729456137185356e-02
4.624000000000000199e+01,1.045840152630800324e-02
4.628000000000000114e+01,1.359878994391332772e-02
4.632000000000000028e+01,1.285075859214861345e-02
4.635999999999999943e+01,9.237498715391947307e-03
4.639999999999999858e+01,1.114917921932985501e-02
4.643999999999999773e+01,1.295824762632596938e-02
4.647999999999999687e+01,1.179976808173458132e-02
4.652000000000000313e+01,1.033403797689125270e-02
4.656000000000000227e+01,8.049461543401503424e-03
4.660000000000000142e+01,9.141123185373504004e-03
4.664000000000000057e+01,8.697704364464743654e-03
4.667999999999999972e+01,1.275603390011045314e-02
4.671999999999999886e+01,1.364217663097749486e-02
4.675999999999999801e+01,1.023062198356241431e-02
4.679999999999999716e+01,8.967475314039784554e-03
4.684000000000000341e+01,1.077360873260288857e-02
4.688000000000000256e+01,5.826385260037013521e-03
4.692000000000000171e+01,7.529611377085736190e-03
4.696000000000000085e+01,1.117660681377622214e-02
4.700000000000000000e+01,8.172564201111825327e-03
4.703999999999999915e+01,9.363311665215166835e-03
4.707999999999999829e+01,5.335488763610870926e-03
4.711999999999999744e+01,9.390582842857682702e-03
4.715999999999999659e+01,7.920148958901824382e-03
4.720000000000000284e+01,9.723632554169185649e-03
4.724000000000000199e+01,1.214073604238371379e-02
4.728000000000000114e+01,6.474332920363876434e-03
4.732000000000000028e+01,9.607080231137800352e-03
4.735999999999999943e+01,1.662765943636295568e-02
4.739999999999999858e+01,1.310907251850692082e-02
4.743999999999999773e+01,1.173889201901939273e-02
4.747999999999999687e+01,1.118696909602721890e-02
4.752000000000000313e+01,1.073706971276629923e-02
4.756000000000000227e+01,1.090078944269057271e-02
4.760000000000000142e+01,7.892320223490768838e-03
4.764000000000000057e+01,1.051110749759276083e-02
4.767999999999999972e+01,8.320599480672753040e-03
4.771999999999999886e+01,9.608645944232453370e-03
4.775999999999999801e+01,1.069175796014737966e-02
4.779999999999999716e+01,9.318914478880903005e-03
4.784000000000000341e+01,1.060607211220464773e-02
4.788000000000000256e+01,9.846550590145814949e-03
4.792000000000000171e+01,7.654264620343216932e-03
4.796000000000000085e+01,6.791830728317206460e-03
4.800000000000000000e+01,9.100993231924635676e-03
4.803999999999999915e+01,1.274000761836820497e-02
4.807999999999999829e+01,9.421023921205700855e-03
4.811999999999999744e+01,8.352764119602376983e-03
4.815999999999999659e+01,1.199088733652407292e-02
4.820000000000000284e+01,1.010348005601673441e-02
4.824000000000000199e+01,1.251317906235459125e-02
4.828000000000000114e+01,1.737823984274030828e-02
4.832000000000000028e+01,1.119253658730496800e-02
4.835999999999999943e+01,1.278278988858858566e-02
4.839999999999999858e+01,1.212172449900674950e-02
4.843999999999999773e+01,1.002789339456792647e-02
4.847999999999999687e+01,9.570870503347029407e-03
4.852000000000000313e+01,9.522826117655758260e-03
4.856000000000000227e+01,9.372164469099643347e-03
4.860000000000000142e+01,6.151630568848150821e-03
4.864000000000000057e+01,1.101400994557841066e-02
4.867999999999999972e+01,4.825624409255390573e-03
4.871999999999999886e+01,7.845662431006874063e-03
4.875999999999999801e+01,8.716700018845519732e-03
4.879999999999999716e+01,6.927141404376915140e-03
4.884000000000000341e+01,7.285985796818216474e-03
4.888000000000000256e+01,8.156126951741721545e-03
4.892000000000000171e+01,1.291409619977690500e-02
4.896000000000000085e+01,1.777408547861447988e-02
4.900000000000000000e+01,9.434607246755216323e-03
4.903999999999999915e+01,4.982956815596861939e-03
4.907999999999999829e+01,1.127451607805335550e-02
4.911999999999999744e+01,6.617628489468721162e-03
4.915999999999999659e+01,6.053206677543940435e-03
4.920000000000000284e+01,1.091139928921164987e-02
4.924000000000000199e+01,9.732463198299757048e-03
4.928000000000000114e+01,6.302206272176986111e-03
4.932000000000000028e+01,7.987606074681479276e-03
4.935999999999999943e+01,1.100285454350396000e-02
4.939999999999999858e+01,9.413441798453566975e-03
4.943999999999999773e+01,8.642281853856488907e-03
4.947999999999999687e+01,1.001952335664536148e-02
4.952000000000000313e+01,1.129414525728350722e-02
4.956000000000000227e+01,1.021512650623424001e-02
4.960000000000000142e+01,6.577828737657608581e-03
4.964000000000000057e+01,1.511620717670014540e-02
4.967999999999999972e+01,1.332005220522710157e-02
4.971999999999999886e+01,8.556341387076660948e-03
4.975999999999999801e+01,7.578137480977856048e-03
4.979999999999999716e+01,1.059007865783012127e-02
4.984000000000000341e+01,5.927783523091664439e-03
4.988000000000000256e+01,7.097377691690866242e-03
4.992000000000000171e+01,4.583181586967553095e-03
4.996000000000000085e+01,9.435661603414028514e-03
5.000000000000000000e+01,7.739415394421961594e-03
5.003999999999999915e+01,1.433071731932273642e-02
5.007999999999999829e+01,1.201995273759324905e-02
5.011999999999999744e+01,1.359701332486800904e-02
5.015999999999999659e+01,7.704475089159765200e-03
5.020000000000000284e+01,7.336867974472713848e-03
5.024000000000000199e+01,1.361970235936984901e-02
5.028000000000000114e+01,8.135533993109985221e-03
5.032000000000000028e+01,7.971658187090925607e-03
5.035999999999999943e+01,1.159328783106981960e-02
5.039999999999999858e+01,8.973147677462257193e-03
5.043999999999999773e+01,1.054778931565153281e-02
5.047999999999999687e+01,3.425001740877745005e-03
5.052000000000000313e+01,7.454696887529316772e-03
5.056000000000000227e+01,8.619153274813115898e-03
5.060000000000000142e+01,9.885625696619214017e-03
5.064000000000000057e+01,1.156107145803188935e-02
5.067999999999999972e+01,1.211070344880832081e-02
5.071999999999999886e+01,1.153452157147825952e-02
5.075999999999999801e+01,1.054875966786533031e-02
5.079999999999999716e+01,1.293922560533829549e-02
5.084000000000000341e+01,1.205517556441243650e-02
5.088000000000000256e+01,1.086386433897779287e-02
5.092000000000000171e+01,1.591371641939379536e-02
5.096000000000000085e+01,9.196564091658650242e-03
5.100000000000000000e+01,9.436808814127492506e-03
5.103999999999999915e+01,1.018834503568530683e-02
5.107999999999999829e+01,1.237204486652538661e-02
5.111999999999999744e+01,8.723249682053913975e-03
5.115999999999999659e+01,9.883149340023905660e-03
5.120000000000000284e+01,1.257753144905022179e-02
5.124000000000000199e+01,1.148580093405105612e-02
5.128000000000000114e+01,8.552021247068088139e-03
5.132000000000000028e+01,1.042693601264556291e-02
5.135999999999999943e+01,8.208780459232293408e-03
5.139999999999999858e+01,1.386889318898413062e-02
5.143999999999999773e+01,9.399106487899251336e-03
5.147999999999999687e+01,7.793950299981931666e-03
5.152000000000000313e+01,1.069053067471929276e-02
5.156000000000000227e+01,1.051723158496305557e-02
5.160000000000000142e+01,1.075290349552751254e-02
5.164000000000000057e+01,5.974632197145938149e-03
5.167999999999999972e+01,1.050709637822548614e-02
5.171999999999999886e+01,1.340214858351821380e-02
5.175999999999999801e+01,1.343195910533578202e-02
5.179999999999999716e+01,9.573336504359590549e-03
5.184000000000000341e+01,1.103500275975484793e-02
5.188000000000000256e+01,1.546361768779999299e-02
5.192000000000000171e+01,9.557693746995787193e-03
5.196000000000000085e+01,5.902484344607165229e-03
5.200000000000000000e+01,7.567563408708982697e-03
5.203999999999999915e+01,1.373437776835230266e-02
5.207999999999999829e+01,9.771291137634974255e-03
5.211999999999999744e+01,9.389067399855141258e-03
5.215999999999999659e+01,9.415813297812505867e-03
5.220000000000000284e+01,8.623699123818787116e-03
5.224000000000000199e+01,4.864022962522170437e-03
5.228000000000000114e+01,1.276842090488423433e-02
5.232000000000000028e+01,9.417406796030970001e-03
5.235999999999999943e+01,7.396234043227255771e-03
5.239999999999999858e+01,1.141158272150540748e-02
5.243999999999999773e+01,1.215241152257485156e-02
5.247999999999999687e+01,1.002799688570474475e-02
5.252000000000000313e+01,1.179140156962416204e-02
5.256000000000000227e+01,9.973328681369646523e-03
5.260000000000000142e+01,1.183843665059446104e-02
5.264000000000000057e+01,1.063366252362907619e-02
5.267999999999999972e+01,7.996112349960617441e-03
5.271999999999999886e+01,1.252059330364525304e-02
5.275999999999999801e+01,1.284968139269569709e-02
5.279999999999999716e+01,1.614571591258044669e-02
5.284000000000000341e+01,7.572422309027588769e-03
5.288000000000000256e+01,1.056088221289490543e-02
5.292000000000000171e+01,9.660906264801604609e-03
5.296000000000000085e+01,9.681493673964763555e-03
5.300000000000000000e+01,1.522700538123190200e-02
5.303999999999999915e+01,1.207508163744025996e-02
5.307999999999999829e+01,1.618750727795434732e-02
5.311999999999999744e+01,8.532923246923973873e-03
5.315999999999999659e+01,1.131458156498886362e-02
5.320000000000000284e+01,1.102635642228006786e-02
5.324000000000000199e+01,8.998396465730243085e-03
5.328000000000000114e+01,1.167680705151398490e-02
5.332000000000000028e+01,7.499525919274305057e-03
5.335999999999999943e+01,7.619338597688297965e-03
5.339999999999999858e+01,1.172928758673123101e-02
5.343999999999999773e+01,9.597459370449062943e-03
5.347999999999999687e+01,9.920980257082741630e-03
5.352000000000000313e+01,1.617870071144653435e-02
5.356000000000000227e+01,1.087404869046291501e-02
5.360000000000000142e+01,1.232214911574758959e-02
5.364000000000000057e+01,1.213283288667362132e-02
5.367999999999999972e+01,1.327335479713109660e-02
5.371999999999999886e+01,1.103703457714721309e-02
5.375999999999999801e+01,1.412099853496291343e-02
5.379999999999999716e+01,1.034926960511224452e-02
5.384000000000000341e+01,1.373956907344781389e-02
5.388000000000000256e+01,1.426462169238518728e-02
5.392000000000000171e+01,1.468704398744476343e-02
5.396000000000000085e+01,1.203958096979603105e-02
5.400000000000000000e+01,1.317761453235282224e-02
5.403999999999999915e+01,1.308750700258789514e-02
5.407999999999999829e+01,1.197389655140062605e-02
5.411999999999999744e+01,1.229244230175694300e-02
5.415999999999999659e+01,1.209908060667461843e-02
5.420000000000000284e+01,1.262164097890149453e-02
5.424000000000000199e+01,1.498563379700055577e-02
5.428000000000000114e+01,1.049393255779027846e-02
5.432000000000000028e+01,1.183410980272036825e-02
5.435999999999999943e+01,7.955698942358042924e-03
5.439999999999999858e+01,1.400193173858913127e-02
5.443999999999999773e+01,1.411334229529344168e-02
5.447999999999999687e+01,1.197341934565491865e-02
5.452000000000000313e+01,9.321588073345573114e-03
5.456000000000000227e+01,1.638976179937895461e-02
5.460000000000000142e+01,1.210019878420817013e-02
5.464000000000000057e+01,1.180076905808872222e-02
5.467999999999999972e+01,1.661698299958351555e-02
5.471999999999999886e+01,9.461545102354385409e-03
5.475999999999999801e+01,1.376553699725905668e-02
5.479999999999999716e+01,1.377181192236209481e-02
5.484000000000000341e+01,1.121979506133558187e-02
5.488000000000000256e+01,1.552284666171440536e-02
5.492000000000000171e+01,8.877437277866419285e-03
5.496000000000000085e+01,9.291734428852905722e-03
5.500000000000000000e+01,6.636143732904651628e-03
5.503999999999999915e+01,9.710110632447546686e-03
5.507999999999999829e+01,1.575101840702063105e-02
5.511999999999999744e+01,1.299216652789728782e-02
5.515999999999999659e+01,1.166546831609113245e-02
5.520000000000000284e+01,1.463585943130734507e-02
5.524000000000000199e+01,1.075055414992831353e-02
5.528000000000000114e+01,1.177625280574022201e-02
5.532000000000000028e+01,1.208540292110667907e-02
5.535999999999999943e+01,1.300815314296036723e-02
5.539999999999999858e+01,1.526073731312490266e-02
5.543999999999999773e+01,1.178313507537620368e-02
5.547999999999999687e+01,9.533047456812996506e-03
5.552000000000000313e+01,1.577513288708859776e-02
5.556000000000000227e+01,1.178498971290732437e-02
5.560000000000000142e+01,1.076178614664306463e-02
5.564000000000000057e+01,1.546813871381622768e-02
5.567999999999999972e+01,1.157936853107922187e-02
5.571999999999999886e+01,1.086217593221814985e-02
5.575999999999999801e+01,7.893646707966377185e-03
5.579999999999999716e+01,1.229177937422844605e-02
5.584000000000000341e+01,1.014117158439611747e-02
5.588000000000000256e+01,1.279924713551617611e-02
5.592000000000000171e+01,1.218279432951613860e-02
5.596000000000000085e+01,1.443096112001611073e-02
5.600000000000000000e+01,1.330228022427065726e-02
5.603999999999999915e+01,1.401502738823630009e-02
5.607999999999999829e+01,1.104396926846154189e-02
5.611999999999999744e+01,1.052825381856639653e-02
5.615999999999999659e+01,1.338875314874420075e-02
5.620000000000000284e+01,1.113297902418314278e-02
5.624000000000000199e+01,1.696009965725706753e-02
5.628000000000000114e+01,1.194107512630063900e-02
5.632000000000000028e+01,1.203769026667844168e-02
5.635999999999999943e+01,1.325949874771153135e-02
5.639999999999999858e+01,1.765288315562638100e-02
5.643999999999999773e+01,1.120012200962989049e-02
5.647999999999999687e+01,7.918936595574736781e-03
5.652000000000000313e+01,1.333456006197188647e-02
5.656000000000000227e+01,1.404318573313726934e-02
5.660000000000000142e+01,1.270511100040647157e-02
5.664000000000000057e+01,1.198063325511501340e-02
5.667999999999999972e+01,1.678107084066491478e-02
5.671999999999999886e+01,1.462348928903562002e-02
5.675999999999999801e+01,1.307950443243495638e-02
5.679999999999999716e+01,1.552564760149230567e-02
5.684000000000000341e+01,1.387870709813520016e-02
5.688000000000000256e+01,1.417551174179890357e-02
5.692000000000000171e+01,1.662069970338278524e-02
5.696000000000000085e+01,1.384729322410825289e-02
5.700000000000000000e+01,1.588256735661927252e-02
5.703999999999999915e+01,1.413171473191910527e-02
5.707999999999999829e+01,1.923592520776071929e-02
5.711999999999999744e+01,1.697283903498132684e-02
5.715999999999999659e+01,1.051434927584071755e-02
5.720000000000000284e+01,1.305962414271275192e-02
5.724000000000000199e+01,1.806023895029751705e-02
5.728000000000000114e+01,1.139615308361711064e-02
5.732000000000000028e+01,1.107553406173282518e-02
5.735999999999999943e+01,1.474504170092310294e-02
5.739999999999999858e+01,1.411682603474585448e-02
5.743999999999999773e+01,1.594394982193008889e-02
5.747999999999999687e+01,1.050609521744595189e-02
5.752000000000000313e+01,1.059315389692803804e-02
5.756000000000000227e+01,1.129380732203376890e-02
5.760000000000000142e+01,1.434748067643522307e-02
5.764000000000000057e+01,1.965185472847728876e-02
5.767999999999999972e+01,1.554254808361816426e-02
5.771999999999999886e+01,9.284219171511103735e-03
5.775999999999999801e+01,1.704329109589029778e-02
5.779999999999999716e+01,1.252374627378212424e-02
5.784000000000000341e+01,1.649636884723844690e-02
5.788000000000000256e+01,1.064603369970296490e-02
5.792000000000000171e+01,1.124148306909478374e-02
5.796000000000000085e+01,1.449690889310458440e-02
5.800000000000000000e+01,1.672882224360794021e-02
5.803999999999999915e+01,1.814186129150432633e-02
5.807999999999999829e+01,1.392702663263606366e-02
5.811999999999999744e+01,1.083738102573224456e-02
5.815999999999999659e+01,1.777468904740354960e-02
5.820000000000000284e+01,1.345657068973336867e-02
5.824000000000000199e+01,1.548191693504363635e-02
5.828000000000000114e+01,1.822317530569799587e-02
5.832000000000000028e+01,1.196002795666659298e-02
5.835999999999999943e+01,1.418904673608650108e-02
5.839999999999999858e+01,1.508759466474299434e-02
5.843999999999999773e+01,1.926003268348357861e-02
5.847999999999999687e+01,1.391646892173321014e-02
5.852000000000000313e+01,1.593956042251994457e-02
5.856000000000000227e+01,1.499507453570487342e-02
5.860000000000000142e+01,1.231084077403586663e-02
5.864000000000000057e+01,1.167266700488159108e-02
5.867999999999999972e+01,1.604780802213217825e-02
5.871999999999999886e+01,1.428347810217001947e-02
5.875999999999999801e+01,1.057476164910319157e-02
5.879999999999999716e+01,1.300487016606369402e-02
5.884000000000000341e+01,1.083029446617326738e-02
5.888000000000000256e+01,1.520382007810905552e-02
5.892000000000000171e+01,1.374483166803532573e-02
5.896000000000000085e+01,1.341103026305089096e-02
5.900000000000000000e+01,1.676039412030644674e-02
5.903999999999999915e+01,1.458420106569627804e-02
5.907999999999999829e+01,1.916074710393076211e-02
5.911999999999999744e+01,2.169058659764357133e-02
5.915999999999999659e+01,2.012733676566763955e-02
5.920000000000000284e+01,1.447099751053273695e-02
5.924000000000000199e+01,1.935320492320055652e-02
5.928000000000000114e+01,1.625419561874501956e-02
5.932000000000000028e+01,1.704298906513719916e-02
5.935999999999999943e+01,1.230622481990170485e-02
5.939999999999999858e+01,1.575466676633661967e-02
5.943999999999999773e+01,2.002133714566335307e-02
5.947999999999999687e+01,1.825085387002743989e-02
5.952000000000000313e+01,1.187568472054647238e-02
5.956000000000000227e+01,1.552746578818197352e-02
5.960000000000000142e+01,1.416528425029252650e-02
5.964000000000000057e+01,1.464452199979205532e-02
5.967999999999999972e+01,1.522575365806803221e-02
5.971999999999999886e+01,1.478346865161698186e-02
5.975999999999999801e+01,1.894521926313481527e-02
5.979999999999999716e+01,1.553502842715549781e-02
5.984000000000000341e+01,1.478480946469260503e-02
5.988000000000000256e+01,1.270411604506723954e-02
5.992000000000000171e+01,1.471586218260554496e-02
5.996000000000000085e+01,1.549945280222565433e-02
