2.003999999999999915e+01,5.630273449379881272e-03
2.007999999999999829e+01,1.020547581447987275e-02
2.012000000000000099e+01,1.125197340412771238e-02
2.016000000000000014e+01,8.769766136565415246e-03
2.019999999999999929e+01,8.720956849670844294e-03
2.023999999999999844e+01,1.001046533358825562e-02
2.028000000000000114e+01,1.531515404190599353e-02
2.032000000000000028e+01,1.240662812911917309e-02
2.035999999999999943e+01,1.089725752676140753e-02
2.039999999999999858e+01,7.197612844312454954e-03
2.044000000000000128e+01,3.984556535360579861e-03
2.048000000000000043e+01,1.032291846739105678e-02
2.051999999999999957e+01,9.786496637195290019e-03
2.055999999999999872e+01,5.964720271775359774e-03
2.060000000000000142e+01,9.078337151607523969e-03
2.064000000000000057e+01,8.480734838437605991e-03
2.067999999999999972e+01,1.834711713086860027e-02
2.071999999999999886e+01,1.306477650665892679e-02
2.076000000000000156e+01,1.015499493359567178e-02
2.080000000000000071e+01,1.083452802780502690e-02
2.083999999999999986e+01,1.352159330027715919e-02
2.087999999999999901e+01,8.482145086171762396e-03
2.092000000000000171e+01,1.567097674904627952e-02
2.096000000000000085e+01,1.008375861560177264e-02
2.100000000000000000e+01,1.216198632854969403e-02
2.103999999999999915e+01,7.426267001297686202e-03
2.107999999999999829e+01,1.017348000223721599e-02
2.112000000000000099e+01,8.905283904594487807e-03
2.116000000000000014e+01,1.493750661694238403e-02
2.119999999999999929e+01,1.129640607202394079e-02
2.123999999999999844e+01,7.959378910738383606e-03
2.128000000000000114e+01,7.907476511145178355e-03
2.132000000000000028e+01,6.577864924416016064e-03
2.135999999999999943e+01,7.194946668187417529e-03
2.139999999999999858e+01,6.716832415987423165e-03
2.144000000000000128e+01,7.029493417778956768e-03
2.148000000000000043e+01,1.044476541778477895e-02
2.151999999999999957e+01,1.288651674633053100e-02
2.155999999999999872e+01,9.974426809270598229e-03
2.160000000000000142e+01,1.022578541004192168e-02
2.164000000000000057e+01,9.016920814921990449e-03
2.167999999999999972e+01,1.151904465816343606e-02
2.171999999999999886e+01,1.237843178731266001e-02
2.176000000000000156e+01,1.183843326018757004e-02
2.180000000000000071e+01,1.659120533339739079e-02
2.183999999999999986e+01,7.351170113703515974e-03
2.187999999999999901e+01,7.175847994270373453e-03
2.192000000000000171e+01,1.038306024457348598e-03
2.196000000000000085e+01,9.866742126129895984e-03
2.200000000000000000e+01,1.248960707432739473e-02
2.203999999999999915e+01,1.231381674136912061e-02
2.207999999999999829e+01,8.548479841870716689e-03
2.212000000000000099e+01,1.025842624331743322e-02
2.216000000000000014e+01,1.324584870624649115e-02
2.219999999999999929e+01,1.221785986309832477e-02
2.223999999999999844e+01,5.714352794651767799e-03
2.228000000000000114e+01,9.309800352077634428e-03
2.232000000000000028e+01,1.187088781796771624e-02
2.235999999999999943e+01,1.029488808095582915e-02
2.239999999999999858e+01,1.060474176381435811e-02
2.244000000000000128e+01,9.880235109859950363e-03
2.248000000000000043e+01,5.748694426457381067e-03
2.251999999999999957e+01,9.769298761756613561e-03
2.255999999999999872e+01,1.020035554940679559e-02
2.260000000000000142e+01,1.093548294088134316e-02
2.264000000000000057e+01,8.446089330554318667e-03
2.267999999999999972e+01,6.443279515216275566e-03
2.271999999999999886e+01,1.301847880404442478e-02
2.276000000000000156e+01,1.065040506573357304e-02
2.280000000000000071e+01,8.586401522451693469e-03
2.283999999999999986e+01,7.008981447122552590e-03
2.287999999999999901e+01,1.194108546251858825e-02
2.292000000000000171e+01,6.287295931594309543e-03
2.296000000000000085e+01,8.968163874704757760e-03
2.300000000000000000e+01,6.781889888036980903e-03
2.303999999999999915e+01,1.055759960100979833e-02
2.307999999999999829e+01,6.971818040021646005e-03
2.312000000000000099e+01,1.044310014325249523e-02
2.316000000000000014e+01,8.073835431360780121e-03
2.319999999999999929e+01,7.955449213523547655e-03
2.323999999999999844e+01,1.033129254755884088e-02
2.328000000000000114e+01,7.596642239925377980e-03
2.332000000000000028e+01,1.270994639134091775e-02
2.335999999999999943e+01,6.628978248143860275e-03
2.339999999999999858e+01,1.490560738416315742e-02
2.344000000000000128e+01,1.131874842821485420e-02
2.348000000000000043e+01,1.223376543509510986e-02
2.351999999999999957e+01,8.829179513377543101e-03
2.355999999999999872e+01,6.641229006680477581e-03
2.360000000000000142e+01,8.468451938380706576e-03
2.364000000000000057e+01,8.835447586235967501e-03
2.367999999999999972e+01,1.072326732830583551e-02
2.371999999999999886e+01,1.029913063449297908e-02
2.376000000000000156e+01,8.293090841769422752e-03
2.380000000000000071e+01,7.868712682877520084e-03
2.383999999999999986e+01,1.212872310566526397e-02
2.387999999999999901e+01,6.715404793328881225e-03
2.392000000000000171e+01,6.412339393413846178e-03
2.396000000000000085e+01,5.987477323254927764e-03
2.400000000000000000e+01,9.030247809854287724e-03
2.403999999999999915e+01,1.085614133459495041e-02
2.407999999999999829e+01,7.814890722062477202e-03
2.412000000000000099e+01,5.442734315875188272e-03
2.416000000000000014e+01,1.231779970436432982e-02
2.419999999999999929e+01,6.355970889155326473e-03
2.423999999999999844e+01,8.728796931690745858e-03
2.428000000000000114e+01,5.078560515166735852e-03
2.432000000000000028e+01,6.599413978367618845e-03
2.435999999999999943e+01,7.511767674579851971e-03
2.439999999999999858e+01,1.006661956313186466e-02
2.444000000000000128e+01,8.058515503050381334e-03
2.448000000000000043e+01,6.232802634328307723e-03
2.451999999999999957e+01,9.395665881853036000e-03
2.455999999999999872e+01,1.012489540676603413e-02
2.460000000000000142e+01,5.621953022172346270e-03
2.464000000000000057e+01,1.036623145114621940e-02
2.467999999999999972e+01,7.383988626430718245e-03
2.471999999999999886e+01,9.025294799801067067e-03
2.476000000000000156e+01,1.364752969735326393e-02
2.480000000000000071e+01,5.432869164821219933e-03
2.483999999999999986e+01,8.898940432831700317e-03
2.487999999999999901e+01,6.706974724762183523e-03
2.492000000000000171e+01,6.157506146164564050e-03
2.496000000000000085e+01,3.417754166941486520e-03
2.500000000000000000e+01,1.181119359717629734e-02
2.503999999999999915e+01,7.611088246349544291e-03
2.507999999999999829e+01,9.372962425450602139e-03
2.512000000000000099e+01,6.146014771754097251e-03
2.516000000000000014e+01,8.272668635524733916e-03
2.519999999999999929e+01,7.600660759172941927e-03
2.523999999999999844e+01,6.198475747344372316e-03
2.528000000000000114e+01,5.708733710424917368e-03
2.532000000000000028e+01,7.895730328589027625e-03
2.535999999999999943e+01,3.207933291679147033e-03
2.539999999999999858e+01,6.063897537875219575e-03
2.544000000000000128e+01,4.843606070615002861e-03
2.548000000000000043e+01,4.657432739257089983e-03
2.551999999999999957e+01,9.094806770803563756e-03
2.555999999999999872e+01,8.178331360837114150e-03
2.560000000000000142e+01,6.349164724879496728e-03
2.564000000000000057e+01,3.911495705642924377e-03
2.567999999999999972e+01,7.070778280582588199e-03
2.571999999999999886e+01,5.241237796338589841e-03
2.576000000000000156e+01,9.251999882329667996e-03
2.580000000000000071e+01,0.000000000000000000e+00
2.583999999999999986e+01,6.869888171516768879e-03
2.587999999999999901e+01,5.465712572523736060e-03
2.592000000000000171e+01,7.955030100113238967e-03
2.596000000000000085e+01,1.153930256739045708e-02
2.600000000000000000e+01,5.693593105889687908e-03
2.603999999999999915e+01,1.006850615469706729e-02
2.607999999999999829e+01,5.621814960150992718e-03
2.612000000000000099e+01,6.042021041700209975e-03
2.616000000000000014e+01,2.568483292812615178e-03
2.619999999999999929e+01,6.760380761638038090e-03
2.623999999999999844e+01,8.883667783336280863e-03
2.628000000000000114e+01,4.679699333550176900e-03
2.632000000000000028e+01,5.038438826592770911e-03
2.635999999999999943e+01,9.899048395810745860e-03
2.639999999999999858e+01,1.232602048149962840e-02
2.644000000000000128e+01,1.049422145507266507e-02
2.648000000000000043e+01,7.263027124800900541e-03
2.651999999999999957e+01,9.081242607716501908e-03
2.655999999999999872e+01,7.735766861335676217e-03
2.660000000000000142e+01,5.355922275198324138e-03
2.664000000000000057e+01,5.166111366941075755e-03
2.667999999999999972e+01,1.026906108441195259e-02
2.671999999999999886e+01,6.854594174855410844e-03
2.676000000000000156e+01,7.455294244729510425e-03
2.680000000000000071e+01,8.055867409254088493e-03
2.683999999999999986e+01,1.048144713349784610e-02
2.687999999999999901e+01,7.066472439025247437e-03
2.692000000000000171e+01,1.461210337732664647e-03
2.696000000000000085e+01,7.293324564174741113e-03
2.700000000000000000e+01,7.406559696411772059e-03
2.703999999999999915e+01,8.614747560841524987e-03
2.707999999999999829e+01,5.138298510750457029e-03
2.712000000000000099e+01,7.867175960451557384e-03
2.716000000000000014e+01,9.500845640874930331e-03
2.719999999999999929e+01,5.476473603192129856e-03
2.723999999999999844e+01,5.394069873961924565e-04
2.728000000000000114e+01,5.457933638011619980e-03
2.732000000000000028e+01,9.159576622524494630e-03
2.735999999999999943e+01,8.724122184251314679e-03
2.739999999999999858e+01,6.280892712732105698e-03
2.744000000000000128e+01,3.837535027718262572e-03
2.748000000000000043e+01,6.139396269202769540e-03
2.751999999999999957e+01,6.007617737904218450e-03
2.755999999999999872e+01,1.189865145236528379e-02
2.760000000000000142e+01,9.150591171310869590e-03
2.764000000000000057e+01,2.691297389416724174e-03
2.767999999999999972e+01,7.547702893805434063e-03
2.771999999999999886e+01,9.848792646827178934e-03
2.776000000000000156e+01,8.742837578203242060e-03
2.780000000000000071e+01,1.067864280496595535e-02
2.783999999999999986e+01,8.599025197622236008e-03
2.787999999999999901e+01,4.450793791029393660e-03
2.792000000000000171e+01,6.568725033941547574e-03
2.796000000000000085e+01,3.393639714690717141e-03
2.800000000000000000e+01,1.153425302765014558e-02
2.803999999999999915e+01,6.959639857829004114e-03
2.807999999999999829e+01,5.487624195975206523e-03
2.812000000000000099e+01,3.285425511991465521e-03
2.816000000000000014e+01,4.672526451610980146e-03
2.819999999999999929e+01,7.337091107092881016e-03
2.823999999999999844e+01,9.940688129004447357e-03
2.828000000000000114e+01,3.722676410813508495e-03
2.832000000000000028e+01,7.846958112452123366e-03
2.835999999999999943e+01,8.625031550953293422e-03
2.839999999999999858e+01,4.170925312835914965e-03
2.844000000000000128e+01,6.348007370721170037e-03
2.848000000000000043e+01,5.239718705085999115e-03
2.851999999999999957e+01,7.416540002751164859e-03
2.855999999999999872e+01,5.577936994646651853e-03
2.860000000000000142e+01,4.469256820765508086e-03
2.864000000000000057e+01,5.185579527445249859e-03
2.867999999999999972e+01,5.415069206945087588e-03
2.871999999999999886e+01,5.218563562400164481e-03
2.876000000000000156e+01,7.881302896341322098e-03
2.880000000000000071e+01,7.502021992266500079e-03
2.883999999999999986e+01,1.004282368805388750e-02
2.887999999999999901e+01,6.621391307382782331e-03
2.892000000000000171e+01,8.614390543720306173e-03
2.896000000000000085e+01,7.869558139476845460e-03
2.900000000000000000e+01,5.786163065461253155e-03
2.903999999999999915e+01,7.231228031455079128e-03
2.907999999999999829e+01,4.174165349657255920e-03
2.912000000000000099e+01,4.767238114139204196e-03
2.916000000000000014e+01,8.097879469727986210e-03
2.919999999999999929e+01,9.359904328018191222e-03
2.923999999999999844e+01,1.293363311963731041e-02
2.928000000000000114e+01,7.929102266754150391e-03
2.932000000000000028e+01,8.825704492442933841e-03
2.935999999999999943e+01,2.543315962679219312e-03
2.939999999999999858e+01,8.002487697818038564e-03
2.944000000000000128e+01,3.666643763533141906e-03
2.948000000000000043e+01,6.205337139092024362e-03
2.951999999999999957e+01,5.276144310711830369e-03
2.955999999999999872e+01,4.407656720500430399e-03
2.960000000000000142e+01,2.565631943496372250e-03
2.964000000000000057e+01,4.738768259269695096e-03
2.967999999999999972e+01,7.215960707511626104e-03
2.971999999999999886e+01,4.217619641508608096e-03
2.976000000000000156e+01,6.633708475573684045e-03
2.980000000000000071e+01,7.650395219790967483e-03
2.983999999999999986e+01,4.286628332582692949e-03
2.987999999999999901e+01,1.065677382765761912e-02
2.992000000000000171e+01,4.250851212381306053e-03
2.996000000000000085e+01,6.727111827350425177e-03
3.000000000000000000e+01,7.864807728570621936e-03
3.003999999999999915e+01,3.101104967213488914e-03
3.007999999999999829e+01,2.291724614389700765e-03
3.012000000000000099e+01,4.706613169609069960e-03
3.016000000000000014e+01,7.668908015765224517e-03
3.019999999999999929e+01,5.277343936356076320e-03
3.023999999999999844e+01,7.874344281646359148e-03
3.028000000000000114e+01,3.292351991025491489e-03
3.032000000000000028e+01,4.307301810528467619e-03
3.035999999999999943e+01,1.124310290420771092e-03
3.039999999999999858e+01,1.120382161359522420e-02
3.044000000000000128e+01,5.161185594366371650e-03
3.048000000000000043e+01,6.844813829524113401e-03
3.051999999999999957e+01,6.155633944862597649e-03
3.055999999999999872e+01,3.945374847142377704e-03
3.060000000000000142e+01,2.100007786326348307e-03
3.064000000000000057e+01,3.296395216002789581e-03
3.067999999999999972e+01,8.021239333566680674e-03
3.071999999999999886e+01,9.095681439736531468e-03
3.076000000000000156e+01,5.789668034022226427e-03
3.080000000000000071e+01,4.491166448561721182e-03
3.083999999999999986e+01,4.105096473499298716e-03
3.087999999999999901e+01,5.178998091124188685e-03
3.092000000000000171e+01,5.279359823907060593e-03
3.096000000000000085e+01,5.501261718185415997e-03
3.100000000000000000e+01,3.837056790689747331e-03
3.103999999999999915e+01,6.370523449086690909e-03
3.107999999999999829e+01,7.991287680499581728e-03
3.112000000000000099e+01,6.995891426130116178e-03
3.116000000000000014e+01,9.103086384279408458e-03
3.119999999999999929e+01,8.715796262916720993e-03
3.123999999999999844e+01,3.826374078772466856e-03
3.128000000000000114e+01,1.055683274706585573e-02
3.132000000000000028e+01,4.085355949180701635e-03
3.135999999999999943e+01,7.591139648070052703e-03
3.139999999999999858e+01,4.708819625419575008e-03
3.144000000000000128e+01,8.944384045995380783e-03
3.148000000000000043e+01,6.974357936195972781e-03
3.151999999999999957e+01,6.160113186467471719e-03
3.155999999999999872e+01,7.535892058253139923e-03
3.160000000000000142e+01,8.059805225081057706e-03
3.164000000000000057e+01,6.697610261989774168e-03
3.167999999999999972e+01,5.821980698096257054e-03
3.171999999999999886e+01,5.007051957381616902e-03
3.176000000000000156e+01,8.572306685579093519e-03
3.180000000000000071e+01,5.749456874646021419e-03
3.183999999999999986e+01,5.785845746750457874e-03
3.187999999999999901e+01,6.734664103517092049e-03
3.192000000000000171e+01,3.972240211223308087e-03
3.196000000000000085e+01,6.198377227988823707e-03
3.200000000000000000e+01,6.416729809214997450e-03
3.203999999999999915e+01,3.836406669517337942e-03
3.207999999999999829e+01,5.210401850399429616e-03
3.211999999999999744e+01,3.179674078669059395e-04
3.215999999999999659e+01,1.051316575804507256e-02
3.220000000000000284e+01,7.384751273556621962e-03
3.224000000000000199e+01,5.168765537898719134e-03
3.228000000000000114e+01,4.777775242726152276e-03
3.232000000000000028e+01,7.732724928636313527e-03
3.235999999999999943e+01,3.873704436529113587e-03
3.239999999999999858e+01,2.448056988572621870e-03
3.243999999999999773e+01,6.193482823249341247e-03
3.247999999999999687e+01,1.267647046302990133e-02
3.252000000000000313e+01,2.915630939146912366e-03
3.256000000000000227e+01,1.621217321153162888e-02
3.260000000000000142e+01,1.302153701715759102e-02
3.264000000000000057e+01,1.749632287728599203e-02
3.267999999999999972e+01,1.752981151620047404e-02
3.271999999999999886e+01,1.768483671921132136e-02
3.275999999999999801e+01,2.161166549821485344e-02
3.279999999999999716e+01,1.379666262341639263e-02
3.284000000000000341e+01,1.577640386562400091e-02
3.288000000000000256e+01,1.720846571105483572e-02
3.292000000000000171e+01,1.784949693837278514e-02
3.296000000000000085e+01,2.043719778606036680e-02
3.300000000000000000e+01,3.939012319229752423e-02
3.303999999999999915e+01,1.395613517726037589e-01
3.307999999999999829e+01,1.496925189678850188e-01
3.311999999999999744e+01,6.248309050907135259e-02
3.315999999999999659e+01,1.530478460563714123e-02
3.320000000000000284e+01,9.921896937756842158e-03
3.324000000000000199e+01,6.668191672615451579e-03
3.328000000000000114e+01,6.882099996127527715e-03
3.332000000000000028e+01,9.651055053120173588e-03
3.335999999999999943e+01,7.066144725580823620e-03
3.339999999999999858e+01,1.068654806165934834e-02
3.343999999999999773e+01,5.181143186243771306e-03
3.347999999999999687e+01,6.550267444764746975e-03
3.352000000000000313e+01,9.622709039451320806e-03
3.356000000000000227e+01,1.172160535319708916e-02
3.360000000000000142e+01,6.580664460134437455e-03
3.364000000000000057e+01,5.576552053730456093e-03
3.367999999999999972e+01,9.439321470957180021e-03
3.371999999999999886e+01,3.385390900750960639e-03
3.375999999999999801e+01,8.221282695188777967e-03
3.379999999999999716e+01,5.999850228705599746e-03
3.384000000000000341e+01,7.246030206248899562e-03
3.388000000000000256e+01,9.891337859654864700e-03
3.392000000000000171e+01,7.304454553690346331e-03
3.396000000000000085e+01,9.523614714148741570e-03
3.400000000000000000e+01,8.761581792806038757e-03
3.403999999999999915e+01,7.208515964096445447e-03
3.407999999999999829e+01,4.256039297318290303e-03
3.411999999999999744e+01,2.946040955425396381e-03
3.415999999999999659e+01,7.172139089891154534e-03
3.420000000000000284e+01,3.793372081796874979e-03
3.424000000000000199e+01,1.154777759681480803e-02
3.428000000000000114e+01,5.735214886117338991e-03
3.432000000000000028e+01,1.002158219181154865e-02
3.435999999999999943e+01,4.817112696187443761e-03
3.439999999999999858e+01,8.920681849811526454e-03
3.443999999999999773e+01,9.252165818659384769e-03
3.447999999999999687e+01,8.184238131847961298e-03
3.452000000000000313e+01,5.899412062300955772e-03
3.456000000000000227e+01,1.213173311134049803e-02
3.460000000000000142e+01,2.789438379081575579e-03
3.464000000000000057e+01,3.606910794036012786e-03
3.467999999999999972e+01,9.169587418855824901e-03
3.471999999999999886e+01,6.214831064833779492e-03
3.475999999999999801e+01,1.214224812996850082e-02
3.479999999999999716e+01,7.544585151232723746e-03
3.484000000000000341e+01,5.745316938709807246e-03
3.488000000000000256e+01,1.374078867348027186e-02
3.492000000000000171e+01,8.595155368649963143e-03
3.496000000000000085e+01,1.147996608566143745e-02
3.500000000000000000e+01,4.448074198949649068e-03
3.503999999999999915e+01,6.237517374186821000e-03
3.507999999999999829e+01,2.916442788828950070e-03
3.511999999999999744e+01,7.017434049333973016e-03
3.515999999999999659e+01,8.806445490861625203e-03
3.520000000000000284e+01,6.214992345248106925e-03
3.524000000000000199e+01,7.273662136776297936e-03
3.528000000000000114e+01,4.925271735953290660e-03
3.532000000000000028e+01,5.496950690022778079e-03
3.535999999999999943e+01,3.756649416319515246e-03
3.539999999999999858e+01,9.255900061482906505e-03
3.543999999999999773e+01,1.019217227426788726e-02
3.547999999999999687e+01,3.584414513096789625e-03
3.552000000000000313e+01,1.169925596750877664e-02
3.556000000000000227e+01,9.410691394416423675e-03
3.560000000000000142e+01,1.028554674348009478e-02
3.564000000000000057e+01,6.962449960735561313e-03
3.567999999999999972e+01,8.141204204302570496e-03
3.571999999999999886e+01,8.042219827467561241e-03
3.575999999999999801e+01,4.414498707383959775e-03
3.579999999999999716e+01,1.076402900881785057e-02
3.584000000000000341e+01,1.236806670559986027e-02
3.588000000000000256e+01,1.172096089663546108e-02
3.592000000000000171e+01,1.131706068083013911e-02
3.596000000000000085e+01,1.523249756434007750e-02
3.600000000000000000e+01,6.493529479908367007e-03
3.603999999999999915e+01,1.369391524607694276e-02
3.607999999999999829e+01,1.164681183486414306e-02
3.611999999999999744e+01,1.112050709079446913e-02
3.615999999999999659e+01,9.559813966550038261e-03
3.620000000000000284e+01,1.329186200937455473e-02
3.624000000000000199e+01,1.635454821787170679e-02
3.628000000000000114e+01,9.926393700615090618e-03
3.632000000000000028e+01,1.183286934986306840e-02
3.635999999999999943e+01,1.398254969292033606e-02
3.639999999999999858e+01,1.613208350845079728e-02
3.643999999999999773e+01,1.274523228931792596e-02
3.647999999999999687e+01,1.422525717068068990e-02
3.652000000000000313e+01,1.381916394751743667e-02
3.656000000000000227e+01,1.432549064320493698e-02
3.660000000000000142e+01,1.422329255362770120e-02
3.664000000000000057e+01,1.509435200427731820e-02
3.667999999999999972e+01,1.590442657019237524e-02
3.671999999999999886e+01,1.434168034363196391e-02
3.675999999999999801e+01,1.229208457455904617e-02
3.679999999999999716e+01,1.717784893831393947e-02
3.684000000000000341e+01,1.780482093259419876e-02
3.688000000000000256e+01,1.496389167926609129e-02
3.692000000000000171e+01,1.753737769113214440e-02
3.696000000000000085e+01,1.512201766951525549e-02
3.700000000000000000e+01,1.739101933084330129e-02
3.703999999999999915e+01,1.783473960967163138e-02
3.707999999999999829e+01,1.870417646532872985e-02
3.711999999999999744e+01,2.316289463055689821e-02
3.715999999999999659e+01,2.397119762118044700e-02
3.720000000000000284e+01,2.496186580377849490e-02
3.724000000000000199e+01,2.345803656124463218e-02
3.728000000000000114e+01,3.107972672662299984e-02
3.732000000000000028e+01,2.647287372027013960e-02
3.735999999999999943e+01,2.813216406828124988e-02
3.739999999999999858e+01,3.697016446231112669e-02
3.743999999999999773e+01,3.966339992875829445e-02
3.747999999999999687e+01,4.600675375383914828e-02
3.752000000000000313e+01,4.967309622679180747e-02
3.756000000000000227e+01,5.516442334803231540e-02
3.760000000000000142e+01,6.241989725090728997e-02
3.764000000000000057e+01,6.407814588145251122e-02
3.767999999999999972e+01,7.127248379355805019e-02
3.771999999999999886e+01,9.039087831936185036e-02
3.775999999999999801e+01,1.065280720780117790e-01
3.779999999999999716e+01,1.196232272028544541e-01
3.784000000000000341e+01,1.568708334598639953e-01
3.788000000000000256e+01,1.907113742101825826e-01
3.792000000000000171e+01,2.565524401805090449e-01
3.796000000000000085e+01,3.379678293676348644e-01
3.800000000000000000e+01,4.798558269417629307e-01
3.803999999999999915e+01,6.763760054712854020e-01
3.807999999999999829e+01,8.718009539113035222e-01
3.811999999999999744e+01,1.000000000000000000e+00
3.815999999999999659e+01,9.639368767492753065e-01
3.820000000000000284e+01,8.640547669377892648e-01
3.824000000000000199e+01,7.066808001127858896e-01
3.828000000000000114e+01,5.339755611242263944e-01
3.832000000000000028e+01,3.943659266661806995e-01
3.835999999999999943e+01,2.911371370411794945e-01
3.839999999999999858e+01,2.171711713348358497e-01
3.843999999999999773e+01,1.665667643306475987e-01
3.847999999999999687e+01,1.365253778417197805e-01
3.852000000000000313e+01,1.124459434116715784e-01
3.856000000000000227e+01,9.536270330194626665e-02
3.860000000000000142e+01,8.211209261628336920e-02
3.864000000000000057e+01,7.531013602337692514e-02
3.867999999999999972e+01,6.431022108497279344e-02
3.871999999999999886e+01,5.848136659302750201e-02
3.875999999999999801e+01,5.161811840656779088e-02
3.879999999999999716e+01,4.390298979851731814e-02
3.884000000000000341e+01,4.640845753787186528e-02
3.888000000000000256e+01,3.705040562625692285e-02
3.892000000000000171e+01,3.937305673599104244e-02
3.896000000000000085e+01,3.305659063063315362e-02
3.900000000000000000e+01,2.886929515470778099e-02
3.903999999999999915e+01,2.650698130198454044e-02
3.907999999999999829e+01,2.968075386925407219e-02
3.911999999999999744e+01,2.342451769076996093e-02
3.915999999999999659e+01,2.665882378688723062e-02
3.920000000000000284e+01,2.417422585228241189e-02
3.924000000000000199e+01,2.387963584144993379e-02
3.928000000000000114e+01,2.200311100918671964e-02
3.932000000000000028e+01,1.927470469246483215e-02
3.935999999999999943e+01,2.110897966511407833e-02
3.939999999999999858e+01,2.038791501274728885e-02
3.943999999999999773e+01,2.021423768321251729e-02
3.947999999999999687e+01,1.602511372768133588e-02
3.952000000000000313e+01,1.785877757194722845e-02
3.956000000000000227e+01,1.409521221944790882e-02
3.960000000000000142e+01,1.386008532256291850e-02
3.964000000000000057e+01,1.551077660738824256e-02
3.967999999999999972e+01,1.770885472449114720e-02
3.971999999999999886e+01,1.583064794014897234e-02
3.975999999999999801e+01,1.711585257501932467e-02
3.979999999999999716e+01,1.487231220897479098e-02
3.984000000000000341e+01,1.670474987203844977e-02
3.988000000000000256e+01,8.377123817195016725e-03
3.992000000000000171e+01,1.142600981525257638e-02
3.996000000000000085e+01,1.337966188112925219e-02
4.000000000000000000e+01,1.344718872944063691e-02
4.003999999999999915e+01,1.199361698779317920e-02
4.007999999999999829e+01,9.992351132735931632e-03
4.011999999999999744e+01,1.644738324685996247e-02
4.015999999999999659e+01,1.341156670460021128e-02
4.020000000000000284e+01,1.232240498431802327e-02
4.024000000000000199e+01,9.468793125704609570e-03
4.028000000000000114e+01,1.245545415878309206e-02
4.032000000000000028e+01,1.173085577339598624e-02
4.035999999999999943e+01,1.319626302252717431e-02
4.039999999999999858e+01,8.151872584538760388e-03
4.043999999999999773e+01,1.424064199700637683e-02
4.047999999999999687e+01,1.114275102348890809e-02
4.052000000000000313e+01,1.218167447406970534e-02
4.056000000000000227e+01,6.041584276657790444e-03
4.060000000000000142e+01,1.006124904435745822e-02
4.064000000000000057e+01,9.213735826528077558e-03
4.067999999999999972e+01,1.025203866467311493e-02
4.071999999999999886e+01,6.788190063136502472e-03
4.075999999999999801e+01,9.042937802394375793e-03
4.079999999999999716e+01,6.673858368663936579e-03
4.084000000000000341e+01,8.806619414324711598e-03
4.088000000000000256e+01,7.349795466681380285e-03
4.092000000000000171e+01,1.148989196300777803e-02
4.096000000000000085e+01,1.337883457018558715e-02
4.100000000000000000e+01,8.575464909174946790e-03
4.103999999999999915e+01,8.699799813019977110e-03
4.107999999999999829e+01,1.101413887971999968e-02
4.111999999999999744e+01,8.765487904253375928e-03
4.115999999999999659e+01,1.168789238794223570e-02
4.120000000000000284e+01,6.336201787396568592e-03
4.124000000000000199e+01,1.047504920998054527e-02
4.128000000000000114e+01,1.017258183315006455e-02
4.132000000000000028e+01,5.307124005357585772e-03
4.135999999999999943e+01,5.308532303453930741e-03
4.139999999999999858e+01,1.151523791335369758e-02
4.143999999999999773e+01,1.309811504211998504e-02
4.147999999999999687e+01,8.414543415848749555e-03
4.152000000000000313e+01,1.188307797271996244e-02
4.156000000000000227e+01,8.111759052727382860e-03
4.160000000000000142e+01,9.815683617011794482e-03
4.164000000000000057e+01,1.078939752459981936e-02
4.167999999999999972e+01,7.930173664125284710e-03
4.171999999999999886e+01,1.352724450246911396e-02
4.175999999999999801e+01,1.224948816451934194e-02
4.179999999999999716e+01,8.659738435586242580e-03
4.184000000000000341e+01,1.030188056079861525e-02
4.188000000000000256e+01,1.078794704450039728e-02
4.192000000000000171e+01,9.022857676835884660e-03
4.196000000000000085e+01,9.812797382692309972e-03
4.200000000000000000e+01,1.090676803922309424e-02
4.203999999999999915e+01,5.734288796089366883e-03
4.207999999999999829e+01,6.706267689960563640e-03
4.211999999999999744e+01,8.286466213700197439e-03
4.215999999999999659e+01,1.175247776832859074e-02
4.220000000000000284e+01,1.004711922435281082e-02
4.224000000000000199e+01,9.558357913910813311e-03
4.228000000000000114e+01,7.791844574578975571e-03
4.232000000000000028e+01,6.633550456320210995e-03
4.235999999999999943e+01,1.198474061211841392e-02
4.239999999999999858e+01,7.723401963236294944e-03
4.243999999999999773e+01,1.130997869256666032e-02
4.247999999999999687e+01,1.124612937333577083e-02
4.252000000000000313e+01,1.075625652318021319e-02
4.256000000000000227e+01,1.130046689780311690e-02
4.260000000000000142e+01,1.184451807224298769e-02
4.264000000000000057e+01,7.278036033623150151e-03
4.267999999999999972e+01,1.141119787118096904e-02
4.271999999999999886e+01,1.238063544877718650e-02
4.275999999999999801e+01,1.231567115595171361e-02
4.279999999999999716e+01,1.346730295203302057e-02
4.284000000000000341e+01,1.072515682414438946e-02
4.288000000000000256e+01,1.491835840170462751e-02
4.292000000000000171e+01,1.235840600174666591e-02
4.296000000000000085e+01,1.229264284643860269e-02
4.300000000000000000e+01,1.374766429571325915e-02
4.303999999999999915e+01,1.191728526116517597e-02
4.307999999999999829e+01,1.471041769728880823e-02
4.311999999999999744e+01,1.878098335314088568e-02
4.315999999999999659e+01,1.883609486116195886e-02
4.320000000000000284e+01,1.803931695409431712e-02
4.324000000000000199e+01,1.912834987042049892e-02
4.328000000000000114e+01,2.289408473200677321e-02
4.332000000000000028e+01,1.862907131570472677e-02
4.335999999999999943e+01,1.770997531498147773e-02
4.339999999999999858e+01,2.190109241001139684e-02
4.343999999999999773e+01,2.420607725619580014e-02
4.347999999999999687e+01,2.468576755666988115e-02
4.352000000000000313e+01,2.632121468949319421e-02
4.356000000000000227e+01,2.625304268287653731e-02
4.360000000000000142e+01,2.837486968829333253e-02
4.364000000000000057e+01,3.122658878652232600e-02
4.367999999999999972e+01,3.231385071513989682e-02
4.371999999999999886e+01,3.200168210175250577e-02
4.375999999999999801e+01,3.430537666762208115e-02
4.379999999999999716e+01,4.007666331950916067e-02
4.384000000000000341e+01,4.882883969650061301e-02
4.388000000000000256e+01,4.985445557544802148e-02
4.392000000000000171e+01,5.757206589453137818e-02
4.396000000000000085e+01,6.449862302999791186e-02
4.400000000000000000e+01,7.665706760462003000e-02
4.403999999999999915e+01,9.082299693724307788e-02
4.407999999999999829e+01,1.014601725207304878e-01
4.411999999999999744e+01,1.116713213029303375e-01
4.415999999999999659e+01,1.316163532794245583e-01
4.420000000000000284e+01,1.484584957557657514e-01
4.424000000000000199e+01,1.752778724024602053e-01
4.428000000000000114e+01,2.012453574265709866e-01
4.432000000000000028e+01,2.018433234339532811e-01
4.435999999999999943e+01,1.983041572709438594e-01
4.439999999999999858e+01,1.921488034781401177e-01
4.443999999999999773e+01,1.813087772873782089e-01
4.447999999999999687e+01,1.609778936102527203e-01
4.452000000000000313e+01,1.363273640810164777e-01
4.456000000000000227e+01,1.231750126904173626e-01
4.460000000000000142e+01,9.797661660261859640e-02
4.464000000000000057e+01,8.670990988570913272e-02
4.467999999999999972e+01,7.240115047243202151e-02
4.471999999999999886e+01,6.320260145685871467e-02
4.475999999999999801e+01,5.138786407565942155e-02
4.479999999999999716e+01,4.894198187124378097e-02
4.484000000000000341e+01,4.387991113768403145e-02
4.488000000000000256e+01,3.395065375213354719e-02
4.492000000000000171e+01,3.351192686787801689e-02
4.496000000000000085e+01,2.875355323216196440e-02
4.500000000000000000e+01,2.515093340370942385e-02
4.503999999999999915e+01,2.276490508565563731e-02
4.507999999999999829e+01,2.159546819624150876e-02
4.511999999999999744e+01,2.097340701987112851e-02
4.515999999999999659e+01,2.102039704457394839e-02
4.520000000000000284e+01,1.857287337408949565e-02
4.524000000000000199e+01,1.855869650309358021e-02
4.528000000000000114e+01,1.720592368638313580e-02
4.532000000000000028e+01,1.840817307543159490e-02
4.535999999999999943e+01,1.395234362775510904e-02
4.539999999999999858e+01,1.509342546703225200e-02
4.543999999999999773e+01,1.319245305651935846e-02
4.547999999999999687e+01,1.043958657065066804e-02
4.552000000000000313e+01,1.224938878325600167e-02
4.556000000000000227e+01,1.162551434973667190e-02
4.560000000000000142e+01,1.398252604392253434e-02
4.564000000000000057e+01,9.586378200973303537e-03
4.567999999999999972e+01,7.015198409220240426e-03
4.571999999999999886e+01,1.162271165759891367e-02
4.575999999999999801e+01,1.519581690362549302e-02
4.579999999999999716e+01,9.764764244393164122e-03
4.584000000000000341e+01,8.166326210831185636e-03
4.588000000000000256e+01,6.628560057736548536e-03
4.592000000000000171e+01,8.375868302745809180e-03
4.596000000000000085e+01,8.967092566819094557e-03
4.600000000000000000e+01,9.253961756716945833e-03
4.603999999999999915e+01,1.002736699430563025e-02
4.607999999999999829e+01,8.732121232267265123e-03
4.611999999999999744e+01,8.105924709084369809e-03
4.615999999999999659e+01,9.608884180460032162e-03
4.620000000000000284e+01,7.157221075209450716e-03
4.624000000000000199e+01,6.773876016105045104e-03
4.628000000000000114e+01,6.086175310511697176e-03
4.632000000000000028e+01,7.953494766700435967e-03
4.635999999999999943e+01,7.995513790525635503e-03
4.639999999999999858e+01,4.995476602343105511e-03
4.643999999999999773e+01,8.869942058157713471e-03
4.647999999999999687e+01,7.390515312464652521e-03
4.652000000000000313e+01,5.424219075045435233e-03
4.656000000000000227e+01,1.154918093423130433e-02
4.660000000000000142e+01,7.879092049351492377e-03
4.664000000000000057e+01,6.277320393027111152e-03
4.667999999999999972e+01,5.344596830931195447e-03
4.671999999999999886e+01,8.244486095806051115e-03
4.675999999999999801e+01,7.128913854533376962e-03
4.679999999999999716e+01,5.952336043480860317e-03
4.684000000000000341e+01,7.026588406871195000e-03
4.688000000000000256e+01,2.199407687114811674e-03
4.692000000000000171e+01,5.098457618766338330e-03
4.696000000000000085e+01,6.598070385928044880e-03
4.700000000000000000e+01,4.568923435541854226e-03
4.703999999999999915e+01,3.391337198235251909e-03
4.707999999999999829e+01,7.993172168684012716e-03
4.711999999999999744e+01,4.929277803498137954e-03
4.715999999999999659e+01,3.081970615480172752e-03
4.720000000000000284e+01,4.154708499910254697e-03
4.724000000000000199e+01,6.200682258413072953e-03
4.728000000000000114e+01,4.535382372371707382e-03
4.732000000000000028e+01,6.520180732232275234e-03
4.735999999999999943e+01,5.158731993396056120e-03
4.739999999999999858e+01,9.150839313982833678e-03
4.743999999999999773e+01,7.728214685949937220e-03
4.747999999999999687e+01,6.366258668021465908e-03
4.752000000000000313e+01,8.411049347622533492e-03
4.756000000000000227e+01,9.117239421241958922e-03
4.760000000000000142e+01,8.302315452437911136e-03
4.764000000000000057e+01,3.897792673046550534e-03
4.767999999999999972e+01,9.653010387411019994e-03
4.771999999999999886e+01,1.035852229020785796e-02
4.775999999999999801e+01,3.641654688801932837e-03
4.779999999999999716e+01,6.658662841614830866e-03
4.784000000000000341e+01,7.302827472930208466e-03
4.788000000000000256e+01,7.399282047816717681e-03
4.792000000000000171e+01,4.697028443427760450e-03
4.796000000000000085e+01,4.671467218487449814e-03
4.800000000000000000e+01,6.410031517822841959e-03
4.803999999999999915e+01,4.193969479614670544e-03
4.807999999999999829e+01,4.654599575577908835e-03
4.811999999999999744e+01,9.008677421838660881e-03
4.815999999999999659e+01,3.385187980747120240e-03
4.820000000000000284e+01,5.731277714350201287e-03
4.824000000000000199e+01,7.833845580164044281e-03
4.828000000000000114e+01,5.312570984043055340e-03
4.832000000000000028e+01,6.258879235164412427e-03
4.835999999999999943e+01,5.379882965968610549e-03
4.839999999999999858e+01,7.116740391977426083e-03
4.843999999999999773e+01,5.629024081583009279e-03
4.847999999999999687e+01,4.019460982633462319e-03
4.852000000000000313e+01,7.520100514275848518e-03
4.856000000000000227e+01,5.484330238256025954e-03
4.860000000000000142e+01,6.429439958010972102e-03
4.864000000000000057e+01,8.834484969425187781e-03
4.867999999999999972e+01,3.756310811283726948e-03
4.871999999999999886e+01,4.883419003035476338e-03
4.875999999999999801e+01,3.941870717302346089e-03
4.879999999999999716e+01,5.251148599817527865e-03
4.884000000000000341e+01,6.012714463686105737e-03
4.888000000000000256e+01,6.713270506303078804e-03
4.892000000000000171e+01,5.831872023552940945e-03
4.896000000000000085e+01,5.558679189869883235e-03
4.900000000000000000e+01,4.859449580292445232e-03
4.903999999999999915e+01,5.255127735418012140e-03
4.907999999999999829e+01,5.589795660496601690e-03
4.911999999999999744e+01,3.004077383739047011e-03
4.915999999999999659e+01,6.684478342419160508e-03
4.920000000000000284e+01,1.024303104088083657e-02
4.924000000000000199e+01,5.588310006428748138e-03
4.928000000000000114e+01,4.887872136155317626e-03
4.932000000000000028e+01,4.856476964011579960e-03
4.935999999999999943e+01,6.832555675912115045e-03
4.939999999999999858e+01,4.002276281941019066e-03
4.943999999999999773e+01,7.012251056834286136e-03
4.947999999999999687e+01,5.763407626386079195e-03
4.952000000000000313e+01,7.130415601888455066e-03
4.956000000000000227e+01,6.185414325147469035e-03
4.960000000000000142e+01,4.388510551866208961e-03
4.964000000000000057e+01,2.287244264333951772e-03
4.967999999999999972e+01,5.722042730640329589e-03
4.971999999999999886e+01,6.601480478090030954e-03
4.975999999999999801e+01,5.047232994712489047e-03
4.979999999999999716e+01,3.492811594518913012e-03
4.984000000000000341e+01,4.736754300886123446e-03
4.988000000000000256e+01,5.980522926919164088e-03
4.992000000000000171e+01,3.573850297203532127e-03
4.996000000000000085e+01,6.885755203695813169e-03
5.000000000000000000e+01,3.809518370679668836e-03
5.003999999999999915e+01,7.729452393132696907e-03
5.007999999999999829e+01,7.694755908329467368e-03
5.011999999999999744e+01,3.462077694933874371e-03
5.015999999999999659e+01,1.018002610985697942e-02
5.020000000000000284e+01,3.696000468319458367e-03
5.024000000000000199e+01,1.592120523002688720e-03
5.028000000000000114e+01,1.495712581271529994e-03
5.032000000000000028e+01,6.509503590974057702e-03
5.035999999999999943e+01,7.690339090895333823e-03
5.039999999999999858e+01,7.958432674200648094e-03
5.043999999999999773e+01,4.758597293572113494e-03
5.047999999999999687e+01,4.722151420724737987e-03
5.052000000000000313e+01,5.354745793234880723e-03
5.056000000000000227e+01,6.230515835083669587e-03
5.060000000000000142e+01,6.862759185357969818e-03
5.064000000000000057e+01,5.730531139942267489e-03
5.067999999999999972e+01,4.233100669645419901e-03
5.071999999999999886e+01,1.640414273977280511e-03
5.075999999999999801e+01,3.853737005921726525e-03
5.079999999999999716e+01,5.641019282813551812e-03
5.084000000000000341e+01,5.116289691171710570e-03
5.088000000000000256e+01,7.085733155883450554e-03
5.092000000000000171e+01,6.621489018754859145e-03
5.096000000000000085e+01,5.122826250594794510e-03
5.100000000000000000e+01,3.928176037317826150e-03
5.103999999999999915e+01,3.828429500790250795e-03
5.107999999999999829e+01,7.865475803965864612e-03
5.111999999999999744e+01,6.670295991369925084e-03
5.115999999999999659e+01,9.186044360699236952e-03
5.120000000000000284e+01,3.792703915391521831e-03
5.124000000000000199e+01,2.962020477010514092e-03
5.128000000000000114e+01,7.545722952316744926e-03
5.132000000000000028e+01,4.889552001545565026e-03
5.135999999999999943e+01,6.126822178587048445e-03
5.139999999999999858e+01,7.789779662709426546e-03
5.143999999999999773e+01,7.140724051912039974e-03
5.147999999999999687e+01,4.605519758695638191e-03
5.152000000000000313e+01,5.112027277735988612e-03
5.156000000000000227e+01,9.390299946005108839e-03
5.160000000000000142e+01,5.090267348209663242e-03
5.164000000000000057e+01,7.664726765731980605e-03
5.167999999999999972e+01,5.189472277538515269e-03
5.171999999999999886e+01,9.284520716673396942e-03
5.175999999999999801e+01,6.808910464217893775e-03
5.179999999999999716e+01,6.158255753820511720e-03
5.184000000000000341e+01,7.393394288616418272e-03
5.188000000000000256e+01,8.628354655124540959e-03
5.192000000000000171e+01,5.482816259199282428e-03
5.196000000000000085e+01,5.622339915758026337e-03
5.200000000000000000e+01,7.647656490473768442e-03
5.203999999999999915e+01,8.516876656874563037e-03
5.207999999999999829e+01,7.378271344681721147e-03
5.211999999999999744e+01,9.281376618359567579e-03
5.215999999999999659e+01,7.169009348415129705e-03
5.220000000000000284e+01,5.482327750370148342e-03
5.224000000000000199e+01,6.594005353341615520e-03
5.228000000000000114e+01,5.819532638712596358e-03
5.232000000000000028e+01,4.497340792397695047e-03
5.235999999999999943e+01,4.878427773725369648e-03
5.239999999999999858e+01,6.780280146253783898e-03
5.243999999999999773e+01,5.153361682000479928e-03
5.247999999999999687e+01,7.176530916728768826e-03
5.252000000000000313e+01,5.427578011580186206e-03
5.256000000000000227e+01,8.180441630414640730e-03
5.260000000000000142e+01,5.457724968814862271e-03
5.264000000000000057e+01,5.533366690640799390e-03
5.267999999999999972e+01,7.190611016248193293e-03
5.271999999999999886e+01,7.205055264482364968e-03
5.275999999999999801e+01,8.679426383191354150e-03
5.279999999999999716e+01,7.537592702700866322e-03
5.284000000000000341e+01,8.342388008321094742e-03
5.288000000000000256e+01,4.401655879924665227e-03
5.292000000000000171e+01,9.586411191643232077e-03
5.296000000000000085e+01,7.409614155373902243e-03
5.300000000000000000e+01,8.092012551592890277e-03
5.303999999999999915e+01,6.158205658057957013e-03
5.307999999999999829e+01,6.961918463704663308e-03
5.311999999999999744e+01,6.852883793118498545e-03
5.315999999999999659e+01,8.386288530099213212e-03
5.320000000000000284e+01,8.459405563280590276e-03
5.324000000000000199e+01,7.011397026009318773e-03
5.328000000000000114e+01,9.700176831692256321e-03
5.332000000000000028e+01,5.879132542075281818e-03
5.335999999999999943e+01,7.898334408933572678e-03
5.339999999999999858e+01,8.578923732985681283e-03
5.343999999999999773e+01,7.616711508001273827e-03
5.347999999999999687e+01,8.418613606299665125e-03
5.352000000000000313e+01,5.995931584792679042e-03
5.356000000000000227e+01,4.485634734530763099e-03
5.360000000000000142e+01,7.477152282516020057e-03
5.364000000000000057e+01,8.704192302880851828e-03
5.367999999999999972e+01,5.854918887884428061e-03
5.371999999999999886e+01,5.378137154558966168e-03
5.375999999999999801e+01,6.057091323260225570e-03
5.379999999999999716e+01,8.560996946065971627e-03
5.384000000000000341e+01,8.752884568407627228e-03
5.388000000000000256e+01,5.294322840852461187e-03
5.392000000000000171e+01,7.371817200674268128e-03
5.396000000000000085e+01,8.962426861582497087e-03
5.400000000000000000e+01,7.267613636682223460e-03
5.403999999999999915e+01,6.485184601918133132e-03
5.407999999999999829e+01,8.561948792147418622e-03
5.411999999999999744e+01,5.041454025309206020e-03
5.415999999999999659e+01,1.095063308852600378e-02
5.420000000000000284e+01,7.368934797924682652e-03
5.424000000000000199e+01,5.551349277183824198e-03
5.428000000000000114e+01,8.235576764785897466e-03
5.432000000000000028e+01,8.303596346343719223e-03
5.435999999999999943e+01,8.432270475445568722e-03
5.439999999999999858e+01,7.952383436495503305e-03
5.443999999999999773e+01,8.628230909667952697e-03
5.447999999999999687e+01,4.376034323778070327e-03
5.452000000000000313e+01,7.606701715495355239e-03
5.456000000000000227e+01,8.829538559556510124e-03
5.460000000000000142e+01,7.253653570577145090e-03
5.464000000000000057e+01,8.293609522387116600e-03
5.467999999999999972e+01,1.042846171087087777e-02
5.471999999999999886e+01,8.000296059103448321e-03
5.475999999999999801e+01,7.762106608588327690e-03
5.479999999999999716e+01,7.827921945844437332e-03
5.484000000000000341e+01,6.372608442284996913e-03
5.488000000000000256e+01,9.297431150893922455e-03
5.492000000000000171e+01,9.788558081755284121e-03
5.496000000000000085e+01,7.176773519273173946e-03
5.500000000000000000e+01,1.058774511582716120e-02
5.503999999999999915e+01,9.922400497211446985e-03
5.507999999999999829e+01,5.484928506138190413e-03
5.511999999999999744e+01,8.773670405863033192e-03
5.515999999999999659e+01,8.290284769612224838e-03
5.520000000000000284e+01,6.833309620762534342e-03
5.524000000000000199e+01,7.687985261844779844e-03
5.528000000000000114e+01,8.055773505964081843e-03
5.532000000000000028e+01,8.423376550515383060e-03
5.535999999999999943e+01,8.060740895008546708e-03
5.539999999999999858e+01,6.298650823847657884e-03
5.543999999999999773e+01,8.977533605122389043e-03
5.547999999999999687e+01,8.979368324445510113e-03
5.552000000000000313e+01,8.676828510934004451e-03
5.556000000000000227e+01,7.157347309414948192e-03
5.560000000000000142e+01,7.523651667736382803e-03
5.564000000000000057e+01,9.106525870302405526e-03
5.567999999999999972e+01,7.099784828707622966e-03
5.571999999999999886e+01,8.317260369349772919e-03
5.575999999999999801e+01,1.014292766001671960e-02
5.579999999999999716e+01,1.032578857786187188e-02
5.584000000000000341e+01,8.074951837500812107e-03
5.588000000000000256e+01,6.006442107627523938e-03
5.592000000000000171e+01,7.040472981407307727e-03
5.596000000000000085e+01,7.283426143848624815e-03
5.600000000000000000e+01,7.769543856394753138e-03
5.603999999999999915e+01,8.863852746652176040e-03
5.607999999999999829e+01,6.611896714735090476e-03
5.611999999999999744e+01,7.523318662569975640e-03
5.615999999999999659e+01,1.080722730477239393e-02
5.620000000000000284e+01,9.102250587378154026e-03
5.624000000000000199e+01,9.283058121679232944e-03
5.628000000000000114e+01,7.699382732261132213e-03
5.632000000000000028e+01,6.480546808663795871e-03
5.635999999999999943e+01,9.155141792995093522e-03
5.639999999999999858e+01,8.057606706819490233e-03
5.643999999999999773e+01,7.629099765658707739e-03
5.647999999999999687e+01,8.417160951802015595e-03
5.652000000000000313e+01,4.033822769593289545e-03
5.656000000000000227e+01,7.559208889538810219e-03
5.660000000000000142e+01,6.339059971873970377e-03
5.664000000000000057e+01,8.099774616410379893e-03
5.667999999999999972e+01,6.392547542597666610e-03
5.671999999999999886e+01,6.023563675323126421e-03
5.675999999999999801e+01,6.566958438567867262e-03
5.679999999999999716e+01,8.326920675044103756e-03
5.684000000000000341e+01,7.409832069760273823e-03
5.688000000000000256e+01,9.777795460594582155e-03
5.692000000000000171e+01,7.461060944640169300e-03
5.696000000000000085e+01,8.246864906602952017e-03
5.700000000000000000e+01,6.720644409134950321e-03
5.703999999999999915e+01,9.392042354162624326e-03
5.707999999999999829e+01,7.926282129413630625e-03
5.711999999999999744e+01,1.084065353832495103e-02
5.715999999999999659e+01,8.096921991585027609e-03
5.720000000000000284e+01,6.752270455168640946e-03
5.724000000000000199e+01,1.057864151076070430e-02
5.728000000000000114e+01,9.355287214366878740e-03
5.732000000000000028e+01,7.280014641931847538e-03
5.735999999999999943e+01,7.455550741303686862e-03
5.739999999999999858e+01,7.205032895375994804e-03
5.743999999999999773e+01,7.136838871332259332e-03
5.747999999999999687e+01,1.041453340191481405e-02
5.752000000000000313e+01,7.790773101437445218e-03
5.756000000000000227e+01,8.999603471222264450e-03
5.760000000000000142e+01,1.032991955096050456e-02
5.764000000000000057e+01,1.105166784016200707e-02
5.767999999999999972e+01,1.043479483833660744e-02
5.771999999999999886e+01,9.513542806927600959e-03
5.775999999999999801e+01,8.287911664175908952e-03
5.779999999999999716e+01,1.028649285218943485e-02
5.784000000000000341e+01,8.452103241475191278e-03
5.788000000000000256e+01,9.841925798007990916e-03
5.792000000000000171e+01,8.737208659968581301e-03
5.796000000000000085e+01,7.632300926262405166e-03
5.800000000000000000e+01,7.622282643227053407e-03
5.803999999999999915e+01,6.638669042698686421e-03
5.807999999999999829e+01,9.305131694881813020e-03
5.811999999999999744e+01,9.537892028591612656e-03
5.815999999999999659e+01,9.222921293790977901e-03
5.820000000000000284e+01,1.055037966491412411e-02
5.824000000000000199e+01,1.108675566443166442e-02
5.828000000000000114e+01,9.189429018439571745e-03
5.832000000000000028e+01,1.009044914608495276e-02
5.835999999999999943e+01,1.232970912814651196e-02
5.839999999999999858e+01,6.173163299783999448e-03
5.843999999999999773e+01,8.290364640264885968e-03
5.847999999999999687e+01,9.190618624325960079e-03
5.852000000000000313e+01,9.543140804044933367e-03
5.856000000000000227e+01,9.043742173191485906e-03
5.860000000000000142e+01,8.179124929160615926e-03
5.864000000000000057e+01,8.896098106809437883e-03
5.867999999999999972e+01,8.578636873925835071e-03
5.871999999999999886e+01,6.496687730019668101e-03
5.875999999999999801e+01,8.125651233814991034e-03
5.879999999999999716e+01,1.145788040204228156e-02
5.884000000000000341e+01,9.557867674997078469e-03
5.888000000000000256e+01,5.284988860950450701e-03
5.892000000000000171e+01,8.008262751858936587e-03
5.896000000000000085e+01,1.000129058439277671e-02
5.900000000000000000e+01,1.029066771848480277e-02
5.903999999999999915e+01,1.094487875878066493e-02
5.907999999999999829e+01,9.834601152222285231e-03
5.911999999999999744e+01,8.298266084724288671e-03
5.915999999999999659e+01,6.153360119844783482e-03
5.920000000000000284e+01,1.076125514802987390e-02
5.924000000000000199e+01,1.044109638782306400e-02
5.928000000000000114e+01,9.999068764111595023e-03
5.932000000000000028e+01,1.126030574196414634e-02
5.935999999999999943e+01,1.197380919853409213e-02
5.939999999999999858e+01,1.067947221460021148e-02
5.943999999999999773e+01,9.384941609913901445e-03
5.947999999999999687e+01,7.116812744407993718e-03
5.952000000000000313e+01,8.377081618498460544e-03
5.956000000000000227e+01,8.237887573991357210e-03
5.960000000000000142e+01,1.174876667535099985e-02
5.964000000000000057e+01,1.106164458945910374e-02
5.967999999999999972e+01,8.731708200115389021e-03
5.971999999999999886e+01,1.066022256030377431e-02
5.975999999999999801e+01,8.208222133280634186e-03
5.979999999999999716e+01,6.972783047558587903e-03
5.984000000000000341e+01,9.569929971831600893e-03
5.988000000000000256e+01,1.204520680621390914e-02
5.992000000000000171e+01,1.074834637529096561e-02
5.996000000000000085e+01,8.903751196699331849e-03
