2.003999999999999915e+01,8.215267055542103958e-02
2.007999999999999829e+01,5.452311321430900609e-02
2.012000000000000099e+01,8.219955075587506710e-02
2.016000000000000014e+01,7.883489523642651930e-02
2.019999999999999929e+01,9.242872852262479233e-02
2.023999999999999844e+01,8.645962079462388150e-02
2.028000000000000114e+01,6.457970951566877060e-02
2.032000000000000028e+01,7.896245367273614646e-02
2.035999999999999943e+01,8.473866920533908165e-02
2.039999999999999858e+01,7.616927005600010459e-02
2.044000000000000128e+01,5.116731264752261144e-02
2.048000000000000043e+01,7.938436640822763013e-02
2.051999999999999957e+01,4.760400943237153709e-02
2.055999999999999872e+01,7.504260195208742323e-02
2.060000000000000142e+01,8.422254490438038643e-02
2.064000000000000057e+01,8.583939339303661709e-02
2.067999999999999972e+01,7.389319404055920415e-02
2.071999999999999886e+01,6.273164443101507393e-02
2.076000000000000156e+01,3.931137354636528997e-02
2.080000000000000071e+01,7.380568545497120936e-02
2.083999999999999986e+01,8.273703273337605635e-02
2.087999999999999901e+01,5.801852344392181143e-02
2.092000000000000171e+01,5.938876885416700252e-02
2.096000000000000085e+01,8.632602930703604793e-02
2.100000000000000000e+01,8.170035670109822290e-02
2.103999999999999915e+01,6.559852966086278381e-02
2.107999999999999829e+01,6.749855033156082484e-02
2.112000000000000099e+01,8.087873069565477968e-02
2.116000000000000014e+01,7.130457949346007129e-02
2.119999999999999929e+01,6.408022174988678432e-02
2.123999999999999844e+01,7.537942628914336141e-02
2.128000000000000114e+01,5.668086657046123022e-02
2.132000000000000028e+01,3.250606565869080394e-02
2.135999999999999943e+01,3.989817797964492763e-02
2.139999999999999858e+01,6.477036323520440897e-02
2.144000000000000128e+01,6.251430468490187797e-02
2.148000000000000043e+01,4.852116919288524538e-02
2.151999999999999957e+01,5.513849942460657266e-02
2.155999999999999872e+01,6.201863940146464665e-02
2.160000000000000142e+01,5.246607562513933010e-02
2.164000000000000057e+01,6.848044160182507889e-02
2.167999999999999972e+01,5.997520687063343653e-02
2.171999999999999886e+01,6.060225069711677737e-02
2.176000000000000156e+01,5.105738638275379715e-02
2.180000000000000071e+01,6.264468731291700232e-02
2.183999999999999986e+01,4.788629622691809029e-02
2.187999999999999901e+01,3.339067474976774308e-02
2.192000000000000171e+01,6.637480278806148770e-02
2.196000000000000085e+01,6.727414271864402828e-02
2.200000000000000000e+01,3.295828168423803328e-02
2.203999999999999915e+01,4.951343027442912936e-02
2.207999999999999829e+01,6.607045606826864037e-02
2.212000000000000099e+01,4.454272532579103827e-02
2.216000000000000014e+01,7.179905059664162814e-02
2.219999999999999929e+01,5.340545701652151672e-02
2.223999999999999844e+01,7.179601269473459557e-02
2.228000000000000114e+01,4.531924144796466158e-02
2.232000000000000028e+01,7.310471986680044942e-02
2.235999999999999943e+01,7.245750248784529890e-02
2.239999999999999858e+01,6.894258165602965005e-02
2.244000000000000128e+01,6.229908503429724964e-02
2.248000000000000043e+01,4.470098800501035030e-02
2.251999999999999957e+01,5.032190447376105880e-02
2.255999999999999872e+01,7.290101374303206705e-02
2.260000000000000142e+01,4.539540955063071231e-02
2.264000000000000057e+01,4.554354824550010949e-02
2.267999999999999972e+01,4.595435620849747799e-02
2.271999999999999886e+01,5.054083822288772676e-02
2.276000000000000156e+01,5.304217359115343672e-02
2.280000000000000071e+01,7.563207949796389717e-02
2.283999999999999986e+01,5.726759804158797207e-02
2.287999999999999901e+01,4.568744376866160778e-02
2.292000000000000171e+01,5.028283518287093856e-02
2.296000000000000085e+01,2.044550718328743202e-02
2.300000000000000000e+01,4.852248603997805915e-02
2.303999999999999915e+01,5.547096876982701014e-02
2.307999999999999829e+01,3.111712487501596888e-02
2.312000000000000099e+01,4.041691202350476686e-02
2.316000000000000014e+01,4.528369647532799053e-02
2.319999999999999929e+01,4.832614641365049618e-02
2.323999999999999844e+01,5.319639930171691372e-02
2.328000000000000114e+01,6.641613312299274319e-02
2.332000000000000028e+01,3.894228669667015863e-02
2.335999999999999943e+01,4.981765297179242130e-02
2.339999999999999858e+01,4.452095704713000118e-02
2.344000000000000128e+01,2.800867298602818453e-02
2.348000000000000043e+01,5.245425977546398777e-02
2.351999999999999957e+01,3.411930267196026240e-02
2.355999999999999872e+01,3.665542274337723477e-02
2.360000000000000142e+01,4.832358557177567071e-02
2.364000000000000057e+01,3.990664629787221002e-02
2.367999999999999972e+01,3.514352602645692825e-02
2.371999999999999886e+01,4.707758574149704250e-02
2.376000000000000156e+01,3.214397798260568845e-02
2.380000000000000071e+01,3.312493821603720162e-02
2.383999999999999986e+01,3.880316666389301006e-02
2.387999999999999901e+01,3.483095570803353830e-02
2.392000000000000171e+01,3.607773757256647201e-02
2.396000000000000085e+01,3.784789548009426935e-02
2.400000000000000000e+01,4.588050545402266867e-02
2.403999999999999915e+01,5.756688927711509779e-02
2.407999999999999829e+01,4.290730013002772708e-02
2.412000000000000099e+01,6.085774732025932970e-02
2.416000000000000014e+01,4.150578406539650461e-02
2.419999999999999929e+01,3.989440987263702387e-02
2.423999999999999844e+01,5.393668116478415181e-02
2.428000000000000114e+01,4.137208708155143411e-02
2.432000000000000028e+01,2.307000820750798945e-02
2.435999999999999943e+01,3.711706824854737324e-02
2.439999999999999858e+01,4.203535830444302818e-02
2.444000000000000128e+01,4.225961779850026523e-02
2.448000000000000043e+01,4.326805543410423144e-02
2.451999999999999957e+01,2.966949431303530019e-02
2.455999999999999872e+01,1.711596861946093617e-02
2.460000000000000142e+01,4.056369421903427419e-02
2.464000000000000057e+01,2.096986812863938648e-02
2.467999999999999972e+01,2.459478461633662558e-02
2.471999999999999886e+01,4.856889814486938656e-02
2.476000000000000156e+01,5.297950373413178038e-02
2.480000000000000071e+01,2.478323036608440222e-02
2.483999999999999986e+01,4.432720758987117315e-02
2.487999999999999901e+01,5.343801802398170930e-02
2.492000000000000171e+01,7.324590957300528005e-02
2.496000000000000085e+01,2.522981389386623821e-02
2.500000000000000000e+01,3.304083565903925129e-02
2.503999999999999915e+01,4.815764832775630555e-02
2.507999999999999829e+01,1.866765019898858693e-02
2.512000000000000099e+01,2.048322638153858219e-02
2.516000000000000014e+01,2.751763985636416707e-02
2.519999999999999929e+01,3.664047776618811758e-02
2.523999999999999844e+01,3.272143053281109659e-02
2.528000000000000114e+01,3.558640946072171712e-02
2.532000000000000028e+01,2.827903373157992020e-02
2.535999999999999943e+01,3.923383621053654763e-02
2.539999999999999858e+01,5.514657855953228327e-02
2.544000000000000128e+01,5.827827800016695953e-02
2.548000000000000043e+01,3.662903279448120886e-02
2.551999999999999957e+01,3.637235356899062855e-02
2.555999999999999872e+01,3.637798238503402171e-02
2.560000000000000142e+01,2.229821162447168451e-02
2.564000000000000057e+01,3.508920551341780658e-02
2.567999999999999972e+01,3.953387083212762249e-02
2.571999999999999886e+01,6.693628096597270538e-02
2.576000000000000156e+01,1.190603360981118582e-02
2.580000000000000071e+01,3.487652555894648482e-02
2.583999999999999986e+01,3.071822182825688710e-02
2.587999999999999901e+01,3.308300168329428997e-02
2.592000000000000171e+01,2.449274966567869041e-02
2.596000000000000085e+01,3.755587576088197099e-02
2.600000000000000000e+01,3.444661354895875438e-02
2.603999999999999915e+01,3.890388413469889062e-02
2.607999999999999829e+01,2.614528709916021099e-02
2.612000000000000099e+01,3.738785398847681296e-02
2.616000000000000014e+01,4.524051118350617268e-02
2.619999999999999929e+01,3.118167394578730961e-02
2.623999999999999844e+01,1.895026338011019523e-02
2.628000000000000114e+01,5.132851495272950509e-02
2.632000000000000028e+01,1.718694531806163814e-02
2.635999999999999943e+01,2.791589510763816187e-02
2.639999999999999858e+01,1.908113125946690053e-02
2.644000000000000128e+01,1.337810559825779004e-02
2.648000000000000043e+01,3.037186210847941242e-02
2.651999999999999957e+01,2.884535920992557442e-02
2.655999999999999872e+01,2.236369252660356383e-02
2.660000000000000142e+01,1.327466292165796133e-02
2.664000000000000057e+01,4.957785226174462462e-02
2.667999999999999972e+01,4.127403012290541823e-02
2.671999999999999886e+01,2.123247381063203890e-02
2.676000000000000156e+01,2.440939919057749305e-02
2.680000000000000071e+01,2.315286532357886673e-02
2.683999999999999986e+01,4.354959919460644341e-02
2.687999999999999901e+01,6.035063180504457968e-03
2.692000000000000171e+01,3.530383123382793004e-02
2.696000000000000085e+01,1.761774680879244284e-02
2.700000000000000000e+01,1.767190025333835457e-02
2.703999999999999915e+01,3.624888851048957417e-02
2.707999999999999829e+01,4.647937260114327895e-02
2.712000000000000099e+01,3.427651222718026969e-02
2.716000000000000014e+01,2.337922849339017090e-02
2.719999999999999929e+01,4.378725818504450307e-02
2.723999999999999844e+01,4.332713228109429104e-02
2.728000000000000114e+01,3.034660000514551731e-02
2.732000000000000028e+01,2.441070534166699807e-02
2.735999999999999943e+01,3.464979947432505342e-02
2.739999999999999858e+01,1.541209638257230383e-02
2.744000000000000128e+01,1.652324917320509984e-02
2.748000000000000043e+01,3.041810054860537293e-02
2.751999999999999957e+01,4.874889125109518190e-02
2.755999999999999872e+01,3.134204898054860494e-02
2.760000000000000142e+01,2.019720724315974408e-02
2.764000000000000057e+01,2.366211526253504671e-02
2.767999999999999972e+01,2.269345366017336274e-02
2.771999999999999886e+01,3.607366446048350384e-02
2.776000000000000156e+01,1.841182896293824464e-02
2.780000000000000071e+01,3.335956823539722865e-02
2.783999999999999986e+01,3.004774985691190115e-02
2.787999999999999901e+01,4.082391649293410502e-02
2.792000000000000171e+01,3.673179060420084935e-02
2.796000000000000085e+01,5.246672073634453537e-02
2.800000000000000000e+01,3.976824766861732086e-02
2.803999999999999915e+01,3.880993366707281844e-02
2.807999999999999829e+01,2.637458223288977055e-02
2.812000000000000099e+01,4.420095955224188911e-02
2.816000000000000014e+01,4.115906588416103767e-02
2.819999999999999929e+01,2.298797725205216011e-02
2.823999999999999844e+01,3.142645984208966570e-02
2.828000000000000114e+01,1.717058515344555697e-02
2.832000000000000028e+01,5.117625921454129617e-02
2.835999999999999943e+01,2.153139671973295158e-02
2.839999999999999858e+01,4.980016378133464428e-02
2.844000000000000128e+01,1.213739854611871061e-01
2.848000000000000043e+01,6.460216016905108438e-02
2.851999999999999957e+01,7.956991734328068555e-02
2.855999999999999872e+01,5.879991611857318667e-02
2.860000000000000142e+01,4.429179000112268283e-02
2.864000000000000057e+01,3.448033005377296872e-02
2.867999999999999972e+01,3.458287765988926621e-02
2.871999999999999886e+01,1.877356312044912989e-02
2.876000000000000156e+01,7.400032379981704052e-03
2.880000000000000071e+01,4.794013266510255278e-02
2.883999999999999986e+01,6.161192831271612713e-02
2.887999999999999901e+01,2.650255942410111032e-02
2.892000000000000171e+01,2.269828822838115476e-02
2.896000000000000085e+01,3.324273390721608351e-02
2.900000000000000000e+01,6.074456464377063492e-02
2.903999999999999915e+01,2.485664085482880772e-02
2.907999999999999829e+01,5.053440381296543660e-02
2.912000000000000099e+01,3.186571657299833160e-02
2.916000000000000014e+01,3.171959824272691658e-02
2.919999999999999929e+01,5.140038040521574536e-02
2.923999999999999844e+01,4.395194043981690696e-02
2.928000000000000114e+01,3.624360729156114042e-02
2.932000000000000028e+01,2.644930470327199259e-02
2.935999999999999943e+01,5.056871782068238924e-02
2.939999999999999858e+01,3.790679790131849108e-02
2.944000000000000128e+01,1.089812944987030192e-02
2.948000000000000043e+01,1.128147865251166726e-02
2.951999999999999957e+01,1.114403725005997520e-02
2.955999999999999872e+01,2.065962570626146341e-02
2.960000000000000142e+01,2.235012856273600051e-02
2.964000000000000057e+01,4.908482312497550876e-02
2.967999999999999972e+01,5.025544429205169167e-02
2.971999999999999886e+01,4.047055696805174768e-02
2.976000000000000156e+01,2.286056397618071306e-02
2.980000000000000071e+01,3.472948706227180909e-02
2.983999999999999986e+01,2.703426504551673451e-02
2.987999999999999901e+01,4.907881639267152457e-02
2.992000000000000171e+01,3.329850020150380840e-02
2.996000000000000085e+01,3.891019309953192007e-02
3.000000000000000000e+01,4.765317766831551199e-02
3.003999999999999915e+01,5.665790837059774682e-02
3.007999999999999829e+01,3.853331158723561495e-02
3.012000000000000099e+01,3.997463258478504283e-02
3.016000000000000014e+01,4.506895982498575204e-02
3.019999999999999929e+01,3.216430072913647326e-02
3.023999999999999844e+01,1.743442412144519463e-02
3.028000000000000114e+01,1.522702758597930736e-02
3.032000000000000028e+01,4.588975706726795833e-02
3.035999999999999943e+01,2.568419782183446395e-02
3.039999999999999858e+01,2.921839835838101890e-02
3.044000000000000128e+01,4.788373209920964574e-02
3.048000000000000043e+01,4.594137118453549273e-02
3.051999999999999957e+01,4.399982887890751398e-02
3.055999999999999872e+01,3.240700932454736172e-02
3.060000000000000142e+01,2.394540618540196703e-02
3.064000000000000057e+01,4.391914448638187252e-02
3.067999999999999972e+01,6.467628328832425444e-02
3.071999999999999886e+01,4.134763853074151924e-02
3.076000000000000156e+01,3.836743324155397761e-02
3.080000000000000071e+01,4.895311208320391599e-02
3.083999999999999986e+01,4.545273411652817064e-02
3.087999999999999901e+01,4.769221064601581600e-02
3.092000000000000171e+01,2.384572361218301878e-02
3.096000000000000085e+01,0.000000000000000000e+00
3.100000000000000000e+01,4.841528243798880887e-02
3.103999999999999915e+01,4.857086405984356592e-02
3.107999999999999829e+01,2.864041041069513571e-02
3.112000000000000099e+01,4.914513471816249479e-02
3.116000000000000014e+01,3.443350915939077245e-02
3.119999999999999929e+01,3.093991168091573055e-02
3.123999999999999844e+01,3.762086798562077478e-02
3.128000000000000114e+01,6.334586193715242841e-02
3.132000000000000028e+01,2.072433631175246704e-02
3.135999999999999943e+01,4.462469054275880476e-02
3.139999999999999858e+01,3.513473604545033074e-02
3.144000000000000128e+01,3.294976972592119496e-02
3.148000000000000043e+01,5.189575452819895213e-02
3.151999999999999957e+01,3.849488483113410603e-02
3.155999999999999872e+01,2.718164186033936863e-02
3.160000000000000142e+01,2.317336699917965301e-02
3.164000000000000057e+01,4.081775783172275629e-02
3.167999999999999972e+01,4.776726165844459582e-02
3.171999999999999886e+01,4.558707738242968877e-02
3.176000000000000156e+01,5.045097382788580470e-02
3.180000000000000071e+01,1.931583817446609272e-02
3.183999999999999986e+01,3.513747317151547089e-02
3.187999999999999901e+01,3.922072679748296598e-02
3.192000000000000171e+01,3.600033847567396528e-02
3.196000000000000085e+01,4.373701559045686804e-02
3.200000000000000000e+01,3.190927668244799426e-02
3.203999999999999915e+01,3.990808205764122957e-02
3.207999999999999829e+01,4.086409273693373395e-02
3.211999999999999744e+01,4.964674094443333879e-02
3.215999999999999659e+01,3.495194326069602647e-02
3.220000000000000284e+01,2.182295739061217502e-02
3.224000000000000199e+01,5.278115148041619825e-02
3.228000000000000114e+01,4.669678398683187875e-02
3.232000000000000028e+01,1.896102177400726951e-02
3.235999999999999943e+01,2.383426238907957254e-02
3.239999999999999858e+01,4.122971717346771148e-02
3.243999999999999773e+01,3.123468114706602627e-02
3.247999999999999687e+01,4.706608257693151165e-02
3.252000000000000313e+01,3.759392172209544830e-02
3.256000000000000227e+01,3.725267980817043717e-02
3.260000000000000142e+01,3.899893417757859665e-02
3.264000000000000057e+01,3.187625237244123139e-02
3.267999999999999972e+01,4.040615745760834515e-02
3.271999999999999886e+01,5.493655357530170119e-02
3.275999999999999801e+01,4.129381678585660603e-02
3.279999999999999716e+01,4.747752895592887573e-02
3.284000000000000341e+01,3.774886222573387712e-02
3.288000000000000256e+01,4.028148214040236375e-02
3.292000000000000171e+01,5.533625100291839766e-02
3.296000000000000085e+01,4.560913703337673292e-02
3.300000000000000000e+01,6.223012993867407111e-02
3.303999999999999915e+01,7.076473845912580052e-02
3.307999999999999829e+01,7.747377325817733640e-02
3.311999999999999744e+01,1.097482979208995318e-01
3.315999999999999659e+01,1.161974453863037632e-01
3.320000000000000284e+01,5.090856231382234059e-02
3.324000000000000199e+01,2.814152985520773295e-02
3.328000000000000114e+01,5.702669919412614585e-02
3.332000000000000028e+01,4.156489154615775755e-02
3.335999999999999943e+01,5.819022666014547762e-02
3.339999999999999858e+01,5.342489891494003884e-02
3.343999999999999773e+01,4.709481961503028669e-02
3.347999999999999687e+01,6.815625626560742334e-02
3.352000000000000313e+01,6.078359736534144631e-02
3.356000000000000227e+01,4.428101957868131600e-02
3.360000000000000142e+01,4.212657669039665542e-02
3.364000000000000057e+01,3.892909180226768878e-02
3.367999999999999972e+01,5.007973177844224355e-02
3.371999999999999886e+01,6.227425828086093768e-02
3.375999999999999801e+01,7.081705453212645829e-02
3.379999999999999716e+01,5.796913775383868289e-02
3.384000000000000341e+01,6.181713165189078873e-02
3.388000000000000256e+01,4.531787176639756609e-02
3.392000000000000171e+01,4.681884912327266557e-02
3.396000000000000085e+01,5.040715218425589894e-02
3.400000000000000000e+01,3.964813477104727618e-02
3.403999999999999915e+01,5.028061470935968336e-02
3.407999999999999829e+01,6.482647654081266642e-02
3.411999999999999744e+01,4.389474992534037751e-02
3.415999999999999659e+01,5.270225985092310411e-02
3.420000000000000284e+01,7.298828889912015172e-02
3.424000000000000199e+01,5.336197000894286196e-02
3.428000000000000114e+01,6.138793404855189678e-02
3.432000000000000028e+01,5.532740479770088815e-02
3.435999999999999943e+01,7.587567916248393052e-02
3.439999999999999858e+01,5.390291232054778697e-02
3.443999999999999773e+01,4.549557305917032585e-02
3.447999999999999687e+01,4.830585048113511526e-02
3.452000000000000313e+01,5.137731212856321700e-02
3.456000000000000227e+01,5.653602422455908383e-02
3.460000000000000142e+01,7.343407259282910826e-02
3.464000000000000057e+01,6.398482349340789410e-02
3.467999999999999972e+01,6.601403331216861015e-02
3.471999999999999886e+01,5.708710751034987846e-02
3.475999999999999801e+01,6.850811947332327567e-02
3.479999999999999716e+01,4.366885573969875312e-02
3.484000000000000341e+01,2.796022497593158435e-02
3.488000000000000256e+01,4.981676004717278811e-02
3.492000000000000171e+01,5.471718605219277193e-02
3.496000000000000085e+01,5.779180253511939647e-02
3.500000000000000000e+01,6.712749139953841371e-02
3.503999999999999915e+01,6.681134110719000319e-02
3.507999999999999829e+01,7.093018192212166562e-02
3.511999999999999744e+01,7.661446830707645261e-02
3.515999999999999659e+01,6.221220768335315732e-02
3.520000000000000284e+01,6.607089107686524299e-02
3.524000000000000199e+01,6.340811806867048539e-02
3.528000000000000114e+01,6.961505552291666343e-02
3.532000000000000028e+01,6.147450694078195749e-02
3.535999999999999943e+01,7.107314766769842751e-02
3.539999999999999858e+01,6.815036356430238806e-02
3.543999999999999773e+01,6.496691365450099620e-02
3.547999999999999687e+01,1.006528909242677960e-01
3.552000000000000313e+01,1.107740623116108963e-01
3.556000000000000227e+01,9.141741299919320385e-02
3.560000000000000142e+01,1.083215026150349952e-01
3.564000000000000057e+01,1.043563830577061563e-01
3.567999999999999972e+01,9.752189439155509176e-02
3.571999999999999886e+01,9.799185708032812081e-02
3.575999999999999801e+01,8.907075762570543231e-02
3.579999999999999716e+01,7.649767205109202217e-02
3.584000000000000341e+01,7.566376722063594684e-02
3.588000000000000256e+01,7.483000871639822194e-02
3.592000000000000171e+01,9.173536928270711877e-02
3.596000000000000085e+01,8.724974589951707549e-02
3.600000000000000000e+01,9.137287535209932809e-02
3.603999999999999915e+01,7.593108206125093185e-02
3.607999999999999829e+01,9.361955965398893742e-02
3.611999999999999744e+01,8.730836002888310576e-02
3.615999999999999659e+01,9.377977029172657186e-02
3.620000000000000284e+01,8.094710506301536213e-02
3.624000000000000199e+01,9.002739588888356015e-02
3.628000000000000114e+01,1.176293625920343949e-01
3.632000000000000028e+01,8.210152898915169806e-02
3.635999999999999943e+01,1.104862749129706945e-01
3.639999999999999858e+01,8.434983205734612743e-02
3.643999999999999773e+01,7.543070841075981414e-02
3.647999999999999687e+01,9.051144927669724227e-02
3.652000000000000313e+01,8.576633987475165699e-02
3.656000000000000227e+01,1.034558810311374671e-01
3.660000000000000142e+01,1.013195618855681629e-01
3.664000000000000057e+01,8.953120290179014673e-02
3.667999999999999972e+01,1.022644179853960389e-01
3.671999999999999886e+01,9.595435967599881544e-02
3.675999999999999801e+01,1.144267327199335188e-01
3.679999999999999716e+01,1.112471491365925047e-01
3.684000000000000341e+01,1.145892744711066308e-01
3.688000000000000256e+01,1.184531553459785558e-01
3.692000000000000171e+01,1.343169488250549604e-01
3.696000000000000085e+01,1.389634584095141290e-01
3.700000000000000000e+01,1.269144653618986818e-01
3.703999999999999915e+01,1.229523600670786310e-01
3.707999999999999829e+01,1.422074420691819552e-01
3.711999999999999744e+01,1.069412449851930291e-01
3.715999999999999659e+01,1.371527310073057948e-01
3.720000000000000284e+01,1.551034337525048212e-01
3.724000000000000199e+01,1.469673802426907927e-01
3.728000000000000114e+01,1.711788451453219451e-01
3.732000000000000028e+01,2.204335384828006728e-01
3.735999999999999943e+01,1.794280997892221952e-01
3.739999999999999858e+01,1.976394984190477100e-01
3.743999999999999773e+01,2.202855921510275261e-01
3.747999999999999687e+01,2.384968870874432378e-01
3.752000000000000313e+01,2.533168474913394252e-01
3.756000000000000227e+01,2.642237337056395630e-01
3.760000000000000142e+01,2.860869779544517044e-01
3.764000000000000057e+01,3.293412680215418997e-01
3.767999999999999972e+01,3.566825721270052707e-01
3.771999999999999886e+01,3.853281283751300301e-01
3.775999999999999801e+01,4.150170644288599386e-01
3.779999999999999716e+01,4.827925347140082368e-01
3.784000000000000341e+01,5.210898983283421826e-01
3.788000000000000256e+01,5.844304201390189135e-01
3.792000000000000171e+01,6.741184317291033512e-01
3.796000000000000085e+01,7.643280633995725992e-01
3.800000000000000000e+01,7.893207454883344187e-01
3.803999999999999915e+01,9.032690591102110478e-01
3.807999999999999829e+01,1.000000000000000000e+00
3.811999999999999744e+01,9.809057161730811991e-01
3.815999999999999659e+01,9.876371573833130357e-01
3.820000000000000284e+01,9.364559088872195236e-01
3.824000000000000199e+01,8.518834937496502224e-01
3.828000000000000114e+01,8.027888794388663429e-01
3.832000000000000028e+01,7.388246681739590871e-01
3.835999999999999943e+01,6.597299876178730482e-01
3.839999999999999858e+01,5.814177392747951201e-01
3.843999999999999773e+01,5.049313874077705488e-01
3.847999999999999687e+01,4.407056198005651626e-01
3.852000000000000313e+01,4.090880823977084968e-01
3.856000000000000227e+01,3.592096427782514034e-01
3.860000000000000142e+01,3.398524847689103345e-01
3.864000000000000057e+01,3.327558909512446927e-01
3.867999999999999972e+01,3.045288393456500042e-01
3.871999999999999886e+01,2.556930595751304436e-01
3.875999999999999801e+01,2.467697648673050637e-01
3.879999999999999716e+01,2.232376803209442095e-01
3.884000000000000341e+01,2.195312871616605377e-01
3.888000000000000256e+01,1.926074725691070411e-01
3.892000000000000171e+01,2.027265824508830139e-01
3.896000000000000085e+01,1.763240275442940208e-01
3.900000000000000000e+01,1.775731635572397327e-01
3.903999999999999915e+01,1.746481724302366700e-01
3.907999999999999829e+01,1.772011399869907189e-01
3.911999999999999744e+01,1.549714520881387558e-01
3.915999999999999659e+01,1.596108330806173814e-01
3.920000000000000284e+01,1.407718851835179363e-01
3.924000000000000199e+01,1.294978144621923288e-01
3.928000000000000114e+01,1.137887191786815105e-01
3.932000000000000028e+01,1.095575008371733328e-01
3.935999999999999943e+01,1.183693583407521427e-01
3.939999999999999858e+01,1.104854121900945702e-01
3.943999999999999773e+01,9.581861552892710632e-02
3.947999999999999687e+01,7.071682085993261091e-02
3.952000000000000313e+01,7.822313096938598997e-02
3.956000000000000227e+01,7.138142323663944355e-02
3.960000000000000142e+01,6.923500700612165992e-02
3.964000000000000057e+01,8.821851842206067384e-02
3.967999999999999972e+01,6.728899958272532844e-02
3.971999999999999886e+01,6.618506175567448468e-02
3.975999999999999801e+01,4.290706140064151630e-02
3.979999999999999716e+01,8.093253590701131317e-02
3.984000000000000341e+01,6.417552284881897218e-02
3.988000000000000256e+01,6.333106093446594365e-02
3.992000000000000171e+01,4.239945498414736391e-02
3.996000000000000085e+01,4.859768490445875305e-02
4.000000000000000000e+01,6.914324699738108593e-02
4.003999999999999915e+01,4.403665264126344764e-02
4.007999999999999829e+01,6.614666274621264219e-02
4.011999999999999744e+01,7.677812529067831737e-02
4.015999999999999659e+01,3.888787581477512467e-02
4.020000000000000284e+01,5.682283730949294620e-02
4.024000000000000199e+01,5.440974731193688047e-02
4.028000000000000114e+01,5.486579228685665305e-02
4.032000000000000028e+01,5.323448813683497038e-02
4.035999999999999943e+01,5.551577820529737112e-02
4.039999999999999858e+01,3.640552743326142676e-02
4.043999999999999773e+01,3.033821704633973826e-02
4.047999999999999687e+01,5.166154462859982172e-02
4.052000000000000313e+01,4.481076599873187738e-02
4.056000000000000227e+01,4.891597414270950489e-02
4.060000000000000142e+01,6.136849084329608350e-02
4.064000000000000057e+01,4.434254968054628793e-02
4.067999999999999972e+01,5.183768088157739845e-02
4.071999999999999886e+01,9.350597027009568962e-02
4.075999999999999801e+01,1.070001233442697958e-01
4.079999999999999716e+01,8.188544228626108701e-02
4.084000000000000341e+01,8.885696580447099979e-02
4.088000000000000256e+01,7.521949023781047960e-02
4.092000000000000171e+01,6.001632493070824942e-02
4.096000000000000085e+01,4.611700538634892765e-02
4.100000000000000000e+01,4.473882134855934611e-02
4.103999999999999915e+01,5.066442139990216115e-02
4.107999999999999829e+01,7.015461620382279495e-02
4.111999999999999744e+01,4.268818249863030878e-02
4.115999999999999659e+01,4.339490343306731668e-02
4.120000000000000284e+01,5.505753086877349795e-02
4.124000000000000199e+01,4.219810426598397113e-02
4.128000000000000114e+01,3.507722772999030680e-02
4.132000000000000028e+01,3.212969232363601518e-02
4.135999999999999943e+01,3.674676819014588425e-02
4.139999999999999858e+01,4.631977711228332795e-02
4.143999999999999773e+01,2.928376835058437572e-02
4.147999999999999687e+01,3.885567017210630331e-02
4.152000000000000313e+01,3.773145079694386478e-02
4.156000000000000227e+01,2.512850324800068244e-02
4.160000000000000142e+01,4.435079763157151467e-02
4.164000000000000057e+01,4.557267080678805565e-02
4.167999999999999972e+01,3.505493343709582821e-02
4.171999999999999886e+01,2.714528310656228599e-02
4.175999999999999801e+01,3.540881543919476709e-02
4.179999999999999716e+01,5.045430189723495995e-02
4.184000000000000341e+01,4.723847474172059024e-02
4.188000000000000256e+01,3.750035835651851363e-02
4.192000000000000171e+01,6.063091304762259492e-02
4.196000000000000085e+01,5.480457895324130496e-02
4.200000000000000000e+01,3.671685953762295063e-02
4.203999999999999915e+01,4.810652098694166018e-02
4.207999999999999829e+01,3.366968643990772558e-02
4.211999999999999744e+01,4.375374364335769817e-02
4.215999999999999659e+01,4.679374185782775308e-02
4.220000000000000284e+01,5.244176690702406080e-02
4.224000000000000199e+01,3.591541837200456361e-02
4.228000000000000114e+01,4.364907419930477706e-02
4.232000000000000028e+01,4.486038560952100573e-02
4.235999999999999943e+01,3.902761294557702959e-02
4.239999999999999858e+01,4.180279039164083027e-02
4.243999999999999773e+01,5.631632077091702077e-02
4.247999999999999687e+01,4.735111086366095012e-02
4.252000000000000313e+01,6.708061965684951333e-02
4.256000000000000227e+01,6.646178596967446117e-02
4.260000000000000142e+01,5.645103222594249209e-02
4.264000000000000057e+01,4.826564816948038933e-02
4.267999999999999972e+01,5.468812746423526439e-02
4.271999999999999886e+01,5.406647753150567448e-02
4.275999999999999801e+01,4.979196851451661576e-02
4.279999999999999716e+01,5.621229799733537535e-02
4.284000000000000341e+01,5.611021784160179909e-02
4.288000000000000256e+01,6.670296615160413445e-02
4.292000000000000171e+01,7.155589674904223874e-02
4.296000000000000085e+01,7.379941245712084985e-02
4.300000000000000000e+01,6.586835597822200683e-02
4.303999999999999915e+01,6.628430201673443656e-02
4.307999999999999829e+01,7.348204163550153822e-02
4.311999999999999744e+01,6.867912277604278082e-02
4.315999999999999659e+01,7.326666066296734503e-02
4.320000000000000284e+01,7.185347839805536485e-02
4.324000000000000199e+01,8.348288532573566734e-02
4.328000000000000114e+01,7.685079802656433201e-02
4.332000000000000028e+01,8.795690164627431584e-02
4.335999999999999943e+01,7.975803172498033278e-02
4.339999999999999858e+01,1.159058093305422726e-01
4.343999999999999773e+01,1.030097288787408250e-01
4.347999999999999687e+01,1.091561558777768420e-01
4.352000000000000313e+01,1.004323337080060136e-01
4.356000000000000227e+01,1.086640703948401065e-01
4.360000000000000142e+01,1.127211079996177368e-01
4.364000000000000057e+01,1.204294611059051057e-01
4.367999999999999972e+01,1.218761665359034824e-01
4.371999999999999886e+01,1.358436663140216161e-01
4.375999999999999801e+01,1.278974691805747910e-01
4.379999999999999716e+01,1.455154223621789589e-01
4.384000000000000341e+01,1.526978306790290618e-01
4.388000000000000256e+01,1.484012198340087518e-01
4.392000000000000171e+01,1.631470612524296981e-01
4.396000000000000085e+01,1.635443329546875102e-01
4.400000000000000000e+01,1.712450174854115437e-01
4.403999999999999915e+01,1.828578346673048471e-01
4.407999999999999829e+01,2.093392069241742370e-01
4.411999999999999744e+01,2.149503063962348304e-01
4.415999999999999659e+01,2.268213293485372151e-01
4.420000000000000284e+01,2.345175779632428514e-01
4.424000000000000199e+01,2.263000178224127135e-01
4.428000000000000114e+01,2.076468576294322466e-01
4.432000000000000028e+01,2.362097700916996612e-01
4.435999999999999943e+01,2.079026895041730938e-01
4.439999999999999858e+01,2.307246813381233219e-01
4.443999999999999773e+01,2.133721785694916995e-01
4.447999999999999687e+01,1.994100186245929551e-01
4.452000000000000313e+01,1.932729409267321674e-01
4.456000000000000227e+01,2.014826234593749266e-01
4.460000000000000142e+01,1.629961083207901174e-01
4.464000000000000057e+01,1.573779231000613510e-01
4.467999999999999972e+01,1.663673503787481966e-01
4.471999999999999886e+01,1.359648498956611273e-01
4.475999999999999801e+01,1.439088779997433898e-01
4.479999999999999716e+01,1.244608650289027035e-01
4.484000000000000341e+01,1.282290660499955381e-01
4.488000000000000256e+01,1.129529702027354393e-01
4.492000000000000171e+01,8.828466331082879259e-02
4.496000000000000085e+01,9.439770764032952288e-02
4.500000000000000000e+01,9.137939821113155725e-02
4.503999999999999915e+01,7.714279144603845839e-02
4.507999999999999829e+01,6.655731956915793279e-02
4.511999999999999744e+01,6.979680304423649395e-02
4.515999999999999659e+01,8.007868653371624790e-02
4.520000000000000284e+01,7.444664085879561244e-02
4.524000000000000199e+01,6.490055772336160433e-02
4.528000000000000114e+01,7.961410267254502571e-02
4.532000000000000028e+01,7.580503020601930819e-02
4.535999999999999943e+01,6.599496666771152709e-02
4.539999999999999858e+01,6.896635408203026507e-02
4.543999999999999773e+01,5.289337438949168191e-02
4.547999999999999687e+01,4.803663169538716082e-02
4.552000000000000313e+01,5.335265170260057588e-02
4.556000000000000227e+01,4.640683987237007729e-02
4.560000000000000142e+01,3.815561862850258557e-02
4.564000000000000057e+01,5.364224567588819076e-02
4.567999999999999972e+01,4.564973107385906365e-02
4.571999999999999886e+01,5.461250440848944288e-02
4.575999999999999801e+01,4.244393193981363388e-02
4.579999999999999716e+01,3.288293477262160119e-02
4.584000000000000341e+01,3.636420069067978350e-02
4.588000000000000256e+01,2.393145215472509274e-02
4.592000000000000171e+01,4.436687299147366176e-02
4.596000000000000085e+01,4.132311705955530462e-02
4.600000000000000000e+01,4.323471722412115803e-02
4.603999999999999915e+01,4.071044494741284103e-02
4.607999999999999829e+01,4.627192657335738729e-02
4.611999999999999744e+01,3.383242508291231521e-02
4.615999999999999659e+01,2.634825962080736619e-02
4.620000000000000284e+01,3.921059705119019079e-02
4.624000000000000199e+01,2.572418207343327504e-02
4.628000000000000114e+01,2.293216911334986299e-02
4.632000000000000028e+01,2.874761459374321898e-02
4.635999999999999943e+01,3.508362657695544840e-02
4.639999999999999858e+01,3.359244580530831165e-02
4.643999999999999773e+01,3.079575026226754469e-02
4.647999999999999687e+01,2.043271925031546823e-02
4.652000000000000313e+01,2.859007975442262595e-02
4.656000000000000227e+01,2.500721763522530464e-02
4.660000000000000142e+01,4.255341019821586024e-02
4.664000000000000057e+01,4.001161586318786184e-02
4.667999999999999972e+01,3.851208253473051984e-02
4.671999999999999886e+01,2.866358167508563370e-02
4.675999999999999801e+01,3.107462654880214711e-02
4.679999999999999716e+01,2.774536705745957524e-02
4.684000000000000341e+01,2.493661386450355885e-02
4.688000000000000256e+01,4.743075735480408589e-02
4.692000000000000171e+01,3.888045138699114389e-02
4.696000000000000085e+01,4.102446214723915602e-02
4.700000000000000000e+01,2.308044085614441299e-02
4.703999999999999915e+01,2.991756154012199798e-02
4.707999999999999829e+01,3.049260809974817590e-02
4.711999999999999744e+01,3.393593171868927033e-02
4.715999999999999659e+01,2.903023261904636235e-02
4.720000000000000284e+01,2.334065806436532928e-02
4.724000000000000199e+01,3.017143635863348342e-02
4.728000000000000114e+01,4.221827752425290348e-02
4.732000000000000028e+01,3.209010794208085049e-02
4.735999999999999943e+01,3.056926635744890153e-02
4.739999999999999858e+01,3.609054383320056680e-02
4.743999999999999773e+01,3.534970203127661692e-02
4.747999999999999687e+01,1.347729869349728257e-02
4.752000000000000313e+01,3.177714900754182586e-02
4.756000000000000227e+01,2.372808135125761136e-02
4.760000000000000142e+01,2.298197499019695444e-02
4.764000000000000057e+01,3.345183470762491673e-02
4.767999999999999972e+01,3.244219864475968856e-02
4.771999999999999886e+01,3.456163170568898879e-02
4.775999999999999801e+01,3.276671123283497050e-02
4.779999999999999716e+01,2.157921848874031628e-02
4.784000000000000341e+01,2.160766673795401493e-02
4.788000000000000256e+01,2.789557188305879024e-02
4.792000000000000171e+01,1.592140082513264498e-02
4.796000000000000085e+01,1.072841126906569353e-02
4.800000000000000000e+01,2.875123935908599493e-02
4.803999999999999915e+01,3.059891475512778458e-02
4.807999999999999829e+01,1.496709584005465055e-02
4.811999999999999744e+01,3.455097624088365044e-02
4.815999999999999659e+01,2.778586341584352720e-02
4.820000000000000284e+01,3.693225819114865499e-02
4.824000000000000199e+01,2.364265950681359793e-02
4.828000000000000114e+01,2.417761982859125552e-02
4.832000000000000028e+01,3.879800145946563777e-02
4.835999999999999943e+01,2.393895693904993585e-02
4.839999999999999858e+01,3.855649557484274598e-02
4.843999999999999773e+01,3.047714834579511728e-02
4.847999999999999687e+01,2.187463243657648826e-02
4.852000000000000313e+01,3.909654215217744228e-02
4.856000000000000227e+01,3.440415291189001523e-02
4.860000000000000142e+01,2.162342765974161959e-02
4.864000000000000057e+01,3.779752082154545084e-02
4.867999999999999972e+01,3.727464637675415027e-02
4.871999999999999886e+01,2.866342086899380942e-02
4.875999999999999801e+01,3.909404056331514110e-02
4.879999999999999716e+01,3.882762596039470576e-02
4.884000000000000341e+01,3.151631452347745943e-02
4.888000000000000256e+01,3.463821167687160946e-02
4.892000000000000171e+01,1.610663204107324123e-02
4.896000000000000085e+01,3.722539080376150583e-02
4.900000000000000000e+01,3.329938758292432660e-02
4.903999999999999915e+01,3.876310360417420386e-02
4.907999999999999829e+01,2.726893452844858512e-02
4.911999999999999744e+01,2.177319950047713198e-02
4.915999999999999659e+01,2.488456670342444749e-02
4.920000000000000284e+01,3.008134811975294101e-02
4.924000000000000199e+01,1.858109169098191849e-02
4.928000000000000114e+01,1.960093224232247952e-02
4.932000000000000028e+01,2.348877391599633185e-02
4.935999999999999943e+01,2.476639797454604358e-02
4.939999999999999858e+01,3.334675756169804689e-02
4.943999999999999773e+01,2.940393133889139532e-02
4.947999999999999687e+01,3.432903453073532507e-02
4.952000000000000313e+01,4.473078695993307902e-02
4.956000000000000227e+01,4.156586924798377769e-02
4.960000000000000142e+01,2.666034761799187386e-02
4.964000000000000057e+01,3.444870329556996846e-02
4.967999999999999972e+01,3.414858750131427589e-02
4.971999999999999886e+01,3.802075925913189075e-02
4.975999999999999801e+01,3.406531683106376468e-02
4.979999999999999716e+01,4.680378328195997084e-02
4.984000000000000341e+01,3.423651507155406337e-02
4.988000000000000256e+01,3.418926858571935679e-02
4.992000000000000171e+01,3.309693816637650221e-02
4.996000000000000085e+01,3.226385539658983143e-02
5.000000000000000000e+01,2.438573029876137110e-02
5.003999999999999915e+01,3.111454541752059488e-02
5.007999999999999829e+01,4.853728593553048587e-02
5.011999999999999744e+01,2.865435995206300213e-02
5.015999999999999659e+01,3.276958265479743004e-02
5.020000000000000284e+01,4.601351178555400379e-02
5.024000000000000199e+01,3.316905412458800301e-02
5.028000000000000114e+01,2.762722161743162014e-02
5.032000000000000028e+01,2.495326480670777280e-02
5.035999999999999943e+01,2.671238259550081859e-02
5.039999999999999858e+01,3.577411048699540019e-02
5.043999999999999773e+01,2.526910950208888229e-02
5.047999999999999687e+01,2.754492230623319451e-02
5.052000000000000313e+01,3.060164716146934749e-02
5.056000000000000227e+01,3.130887121052057520e-02
5.060000000000000142e+01,4.453602667749455291e-02
5.064000000000000057e+01,2.802260270210468404e-02
5.067999999999999972e+01,1.907262103018422805e-02
5.071999999999999886e+01,4.038153348644279994e-02
5.075999999999999801e+01,2.229776060848713201e-02
5.079999999999999716e+01,3.942935090501959589e-02
5.084000000000000341e+01,4.951579351575377541e-02
5.088000000000000256e+01,3.742677886248984426e-02
5.092000000000000171e+01,4.333586921128172731e-02
5.096000000000000085e+01,4.011285826300670793e-02
5.100000000000000000e+01,3.062728152084947739e-02
5.103999999999999915e+01,3.992239668970010147e-02
5.107999999999999829e+01,3.617238571007479198e-02
5.111999999999999744e+01,2.876846708565985317e-02
5.115999999999999659e+01,3.805828676098422375e-02
5.120000000000000284e+01,3.430296523672449194e-02
5.124000000000000199e+01,3.289366937702848520e-02
5.128000000000000114e+01,4.348248500560256830e-02
5.132000000000000028e+01,3.737400190320359916e-02
5.135999999999999943e+01,2.291596929343766437e-02
5.139999999999999858e+01,3.741240892213785335e-02
5.143999999999999773e+01,4.068974848917826515e-02
5.147999999999999687e+01,2.466109605690085596e-02
5.152000000000000313e+01,3.941297205212202642e-02
5.156000000000000227e+01,5.181522181525750198e-02
5.160000000000000142e+01,3.917238348752566379e-02
5.164000000000000057e+01,4.765796769544190792e-02
5.167999999999999972e+01,3.944620801906081886e-02
5.171999999999999886e+01,3.853689288319237655e-02
5.175999999999999801e+01,4.988649635118166253e-02
5.179999999999999716e+01,5.445169904452807491e-02
5.184000000000000341e+01,2.692836590424917825e-02
5.188000000000000256e+01,3.801153563874652003e-02
5.192000000000000171e+01,3.031039282656986314e-02
5.196000000000000085e+01,4.086809189353233368e-02
5.200000000000000000e+01,4.646743634081214325e-02
5.203999999999999915e+01,2.258689306948721137e-02
5.207999999999999829e+01,4.148670470807946237e-02
5.211999999999999744e+01,3.638483231441623500e-02
5.215999999999999659e+01,3.962881855394954217e-02
5.220000000000000284e+01,4.156656756890091814e-02
5.224000000000000199e+01,5.576317498327779815e-02
5.228000000000000114e+01,4.700154757733536470e-02
5.232000000000000028e+01,4.893356461662594359e-02
5.235999999999999943e+01,3.025514268170572882e-02
5.239999999999999858e+01,3.505285383892960127e-02
5.243999999999999773e+01,4.037036890949589896e-02
5.247999999999999687e+01,4.099033647596723312e-02
5.252000000000000313e+01,4.499963844192966106e-02
5.256000000000000227e+01,4.978959659014638856e-02
5.260000000000000142e+01,4.336030918265855461e-02
5.264000000000000057e+01,3.405952544307206536e-02
5.267999999999999972e+01,5.266958411671864015e-02
5.271999999999999886e+01,5.093002598285018695e-02
5.275999999999999801e+01,4.423201790561456792e-02
5.279999999999999716e+01,2.970601434775502550e-02
5.284000000000000341e+01,3.343874229424197153e-02
5.288000000000000256e+01,3.795208628669503870e-02
5.292000000000000171e+01,3.307221582729569231e-02
5.296000000000000085e+01,3.705983830041243571e-02
5.300000000000000000e+01,2.721949184726359106e-02
5.303999999999999915e+01,3.955086161358213614e-02
5.307999999999999829e+01,4.796721058032546448e-02
5.311999999999999744e+01,5.690327817079863376e-02
5.315999999999999659e+01,3.583758292561817910e-02
5.320000000000000284e+01,4.111746095208195645e-02
5.324000000000000199e+01,3.178673799000379663e-02
5.328000000000000114e+01,3.941035474477550676e-02
5.332000000000000028e+01,4.051024739755518939e-02
5.335999999999999943e+01,4.134722661178842629e-02
5.339999999999999858e+01,2.444317692909478770e-02
5.343999999999999773e+01,4.379762857659175168e-02
5.347999999999999687e+01,4.488930665304961820e-02
5.352000000000000313e+01,4.597891854283701202e-02
5.356000000000000227e+01,3.741436838817543964e-02
5.360000000000000142e+01,4.345631193389490332e-02
5.364000000000000057e+01,5.914826508257813031e-02
5.367999999999999972e+01,4.379492089405907090e-02
5.371999999999999886e+01,5.087407495541492602e-02
5.375999999999999801e+01,4.621210332698116180e-02
5.379999999999999716e+01,3.789588791234371062e-02
5.384000000000000341e+01,5.253389033651324064e-02
5.388000000000000256e+01,3.717003961838051540e-02
5.392000000000000171e+01,5.206468166554451688e-02
5.396000000000000085e+01,4.582694941701642016e-02
5.400000000000000000e+01,4.219576397758609959e-02
5.403999999999999915e+01,4.977974189087966406e-02
5.407999999999999829e+01,4.901382913835621025e-02
5.411999999999999744e+01,4.146322462310013390e-02
5.415999999999999659e+01,6.364934813088445054e-02
5.420000000000000284e+01,4.200761039901486360e-02
5.424000000000000199e+01,4.071136713539133534e-02
5.428000000000000114e+01,4.019556432147285141e-02
5.432000000000000028e+01,3.054723877946102090e-02
5.435999999999999943e+01,5.533122793567062797e-02
5.439999999999999858e+01,5.089590068816980672e-02
5.443999999999999773e+01,5.167573826257105402e-02
5.447999999999999687e+01,5.062731800129665477e-02
5.452000000000000313e+01,3.809854404656814325e-02
5.456000000000000227e+01,5.921945774482074987e-02
5.460000000000000142e+01,4.120807179342025894e-02
5.464000000000000057e+01,5.267248634060781032e-02
5.467999999999999972e+01,3.543928400487287439e-02
5.471999999999999886e+01,5.107314729391471825e-02
5.475999999999999801e+01,4.948754574684486457e-02
5.479999999999999716e+01,4.737798282791134963e-02
5.484000000000000341e+01,4.709225940025883739e-02
5.488000000000000256e+01,4.445649332653024699e-02
5.492000000000000171e+01,4.651409723023127579e-02
5.496000000000000085e+01,5.065639289412526142e-02
5.500000000000000000e+01,5.036169230067454039e-02
5.503999999999999915e+01,4.928213291312399935e-02
5.507999999999999829e+01,4.585250579431719709e-02
5.511999999999999744e+01,4.685535624773982943e-02
5.515999999999999659e+01,4.629073089589436085e-02
5.520000000000000284e+01,3.607173780112276490e-02
5.524000000000000199e+01,4.880678694889707681e-02
5.528000000000000114e+01,5.267006027973342164e-02
5.532000000000000028e+01,4.713981813655553771e-02
5.535999999999999943e+01,3.978120778290936826e-02
5.539999999999999858e+01,5.042014052328378654e-02
5.543999999999999773e+01,4.436125777797413766e-02
5.547999999999999687e+01,3.751746105116829377e-02
5.552000000000000313e+01,4.397558060691381804e-02
5.556000000000000227e+01,5.147484738723161896e-02
5.560000000000000142e+01,5.584137925476458791e-02
5.564000000000000057e+01,6.072731367275760461e-02
5.567999999999999972e+01,6.039356458373328768e-02
5.571999999999999886e+01,4.179676096965226351e-02
5.575999999999999801e+01,4.589306705662870439e-02
5.579999999999999716e+01,4.268273602531918315e-02
5.584000000000000341e+01,5.616555630053361725e-02
5.588000000000000256e+01,5.086356734250709749e-02
5.592000000000000171e+01,5.234176149616999452e-02
5.596000000000000085e+01,4.181768670304163854e-02
5.600000000000000000e+01,3.676944838743033406e-02
5.603999999999999915e+01,4.789260165312269474e-02
5.607999999999999829e+01,4.910040948107616959e-02
5.611999999999999744e+01,6.074051781581984305e-02
5.615999999999999659e+01,4.707409879756874888e-02
5.620000000000000284e+01,4.957905129247729831e-02
5.624000000000000199e+01,3.851649580122187833e-02
5.628000000000000114e+01,4.284269982899380214e-02
5.632000000000000028e+01,5.186209823793426488e-02
5.635999999999999943e+01,4.131402524914135066e-02
5.639999999999999858e+01,5.111117580864885102e-02
5.643999999999999773e+01,4.238431421643108071e-02
5.647999999999999687e+01,4.513317725775953942e-02
5.652000000000000313e+01,4.396658803441426400e-02
5.656000000000000227e+01,5.114530557030235597e-02
5.660000000000000142e+01,5.362595884738450419e-02
5.664000000000000057e+01,5.297374676874509747e-02
5.667999999999999972e+01,3.875397151654552674e-02
5.671999999999999886e+01,4.853152215663902869e-02
5.675999999999999801e+01,4.239369370891970384e-02
5.679999999999999716e+01,5.216629419879941637e-02
5.684000000000000341e+01,4.967564804707517989e-02
5.688000000000000256e+01,4.613904499757368050e-02
5.692000000000000171e+01,5.199117283406155809e-02
5.696000000000000085e+01,4.975391609815835170e-02
5.700000000000000000e+01,4.594895277332970707e-02
5.703999999999999915e+01,4.735882816306128534e-02
5.707999999999999829e+01,4.433144640957464161e-02
5.711999999999999744e+01,4.964930117681692207e-02
5.715999999999999659e+01,4.505167504634763342e-02
5.720000000000000284e+01,4.227759240203354807e-02
5.724000000000000199e+01,4.367485410701924670e-02
5.728000000000000114e+01,3.985223162354645937e-02
5.732000000000000028e+01,5.637471729654534858e-02
5.735999999999999943e+01,5.411220810597028308e-02
5.739999999999999858e+01,4.193418791546743574e-02
5.743999999999999773e+01,5.427513795064928259e-02
5.747999999999999687e+01,5.174408787145006600e-02
5.752000000000000313e+01,5.494955094241879556e-02
5.756000000000000227e+01,4.823948294531562458e-02
5.760000000000000142e+01,5.457020302487020774e-02
5.764000000000000057e+01,4.550716828185948082e-02
5.767999999999999972e+01,5.313705406171528867e-02
5.771999999999999886e+01,5.346006190555575854e-02
5.775999999999999801e+01,4.047623843588327858e-02
5.779999999999999716e+01,4.548965703806962663e-02
5.784000000000000341e+01,5.258740617385482263e-02
5.788000000000000256e+01,5.185652266544040628e-02
5.792000000000000171e+01,4.329700149579031321e-02
5.796000000000000085e+01,3.525659188851061610e-02
5.800000000000000000e+01,4.312646070774903140e-02
5.803999999999999915e+01,4.995022713516540647e-02
5.807999999999999829e+01,5.233661099346283846e-02
5.811999999999999744e+01,4.532912818522408932e-02
5.815999999999999659e+01,4.797108805487782651e-02
5.820000000000000284e+01,4.278437514404372782e-02
5.824000000000000199e+01,4.046454455650830284e-02
5.828000000000000114e+01,4.701153963569712491e-02
5.832000000000000028e+01,4.233857172302918359e-02
5.835999999999999943e+01,5.722797956383601781e-02
5.839999999999999858e+01,3.272374381654701014e-02
5.843999999999999773e+01,4.369478030988466905e-02
5.847999999999999687e+01,4.448930302330174336e-02
5.852000000000000313e+01,3.745511281994266806e-02
5.856000000000000227e+01,4.528766152451707550e-02
5.860000000000000142e+01,5.650878203910619790e-02
5.864000000000000057e+01,5.024908374506865255e-02
5.867999999999999972e+01,3.876932566631156873e-02
5.871999999999999886e+01,5.128664262804611546e-02
5.875999999999999801e+01,4.919266625026668532e-02
5.879999999999999716e+01,4.526989019692039679e-02
5.884000000000000341e+01,4.682259441153315688e-02
5.888000000000000256e+01,3.819873467586500093e-02
5.892000000000000171e+01,4.913718045516714955e-02
5.896000000000000085e+01,4.311650192959465278e-02
5.900000000000000000e+01,4.622342608411787734e-02
5.903999999999999915e+01,4.724065314083807782e-02
5.907999999999999829e+01,4.355950488251852243e-02
5.911999999999999744e+01,5.239721941344756967e-02
5.915999999999999659e+01,4.218884599416121428e-02
5.920000000000000284e+01,4.084718284977033320e-02
5.924000000000000199e+01,4.732875568315875192e-02
5.928000000000000114e+01,3.476422551522374838e-02
5.932000000000000028e+01,3.915327749169821014e-02
5.935999999999999943e+01,4.536560203438232131e-02
5.939999999999999858e+01,3.227094120461487803e-02
5.943999999999999773e+01,5.021668274923225816e-02
5.947999999999999687e+01,5.068150012746647920e-02
5.952000000000000313e+01,4.070880596282322461e-02
5.956000000000000227e+01,3.751583835959075575e-02
5.960000000000000142e+01,4.475473478101387598e-02
5.964000000000000057e+01,4.468651244869223382e-02
5.967999999999999972e+01,3.391989118532896808e-02
5.971999999999999886e+01,2.784603785507176743e-02
5.975999999999999801e+01,4.081265004198824514e-02
5.979999999999999716e+01,4.881992928719642438e-02
5.984000000000000341e+01,4.299838169297800355e-02
5.988000000000000256e+01,3.534789896321996472e-02
5.992000000000000171e+01,4.230311724215047448e-02
5.996000000000000085e+01,4.038597271092751045e-02
