2.003999999999999915e+01,1.052645470587996318e-02
2.007999999999999829e+01,0.000000000000000000e+00
2.012000000000000099e+01,5.849491691972077793e-03
2.016000000000000014e+01,1.052459649851385931e-02
2.019999999999999929e+01,1.007030983507738175e-02
2.023999999999999844e+01,1.171687481925758403e-02
2.028000000000000114e+01,6.874515719210345238e-03
2.032000000000000028e+01,3.206054292945044373e-03
2.035999999999999943e+01,1.010462686012832470e-02
2.039999999999999858e+01,1.150302690461086838e-02
2.044000000000000128e+01,1.061469588299727984e-02
2.048000000000000043e+01,8.799166792973470499e-03
2.051999999999999957e+01,3.213780125343115943e-03
2.055999999999999872e+01,1.004933654914132342e-02
2.060000000000000142e+01,1.101393939751635007e-02
2.064000000000000057e+01,5.366025414712987870e-03
2.067999999999999972e+01,1.003795865333388486e-02
2.071999999999999886e+01,8.838938699968362095e-03
2.076000000000000156e+01,9.061005620842050093e-03
2.080000000000000071e+01,6.316576190993042524e-03
2.083999999999999986e+01,7.526908784863229653e-03
2.087999999999999901e+01,1.077629812271564506e-02
2.092000000000000171e+01,9.452470828885979962e-03
2.096000000000000085e+01,1.239239068536539777e-02
2.100000000000000000e+01,6.742292504796904354e-03
2.103999999999999915e+01,1.233899692542219859e-02
2.107999999999999829e+01,1.404225166055132409e-02
2.112000000000000099e+01,1.172846294073530415e-02
2.116000000000000014e+01,1.163912270547910396e-02
2.119999999999999929e+01,8.274302654469753437e-03
2.123999999999999844e+01,1.164510859368009243e-02
2.128000000000000114e+01,1.149324717823927387e-02
2.132000000000000028e+01,1.022879953255379469e-02
2.135999999999999943e+01,7.233796298129681335e-03
2.139999999999999858e+01,1.239574938367863158e-02
2.144000000000000128e+01,9.276670581267557406e-03
2.148000000000000043e+01,8.752822977698184945e-03
2.151999999999999957e+01,1.181295787887262985e-02
2.155999999999999872e+01,5.047137559758279809e-03
2.160000000000000142e+01,1.101124839834432233e-02
2.164000000000000057e+01,8.199952398986663088e-03
2.167999999999999972e+01,1.088834482317113835e-02
2.171999999999999886e+01,1.104282247672921241e-02
2.176000000000000156e+01,1.224760850804920524e-02
2.180000000000000071e+01,1.122746476752043386e-02
2.183999999999999986e+01,9.280127304198198743e-03
2.187999999999999901e+01,1.178193077675883035e-02
2.192000000000000171e+01,1.329474383351986200e-02
2.196000000000000085e+01,1.072871917076254067e-02
2.200000000000000000e+01,5.443389786172778654e-03
2.203999999999999915e+01,8.438612663813363501e-03
2.207999999999999829e+01,5.501089746453723291e-03
2.212000000000000099e+01,7.568881069526142182e-03
2.216000000000000014e+01,7.288149873798793581e-03
2.219999999999999929e+01,1.188913927686669966e-02
2.223999999999999844e+01,3.450734303661966672e-03
2.228000000000000114e+01,9.781561965776411349e-03
2.232000000000000028e+01,1.376386762034018454e-02
2.235999999999999943e+01,1.311116429583258046e-02
2.239999999999999858e+01,8.565015503633283123e-03
2.244000000000000128e+01,1.044551179286834497e-02
2.248000000000000043e+01,1.189319199335097006e-02
2.251999999999999957e+01,1.247547759247916513e-02
2.255999999999999872e+01,1.225416566669579842e-02
2.260000000000000142e+01,8.880972295849436093e-03
2.264000000000000057e+01,7.052465703679675242e-03
2.267999999999999972e+01,1.282474698379955889e-02
2.271999999999999886e+01,2.838569681646497915e-03
2.276000000000000156e+01,1.052608313419895608e-02
2.280000000000000071e+01,1.339319816772300935e-02
2.283999999999999986e+01,8.597255273022250469e-03
2.287999999999999901e+01,6.890923639637119499e-03
2.292000000000000171e+01,8.521391189902383437e-03
2.296000000000000085e+01,5.269663883757586161e-03
2.300000000000000000e+01,9.371537677878055000e-03
2.303999999999999915e+01,6.428323669141292399e-03
2.307999999999999829e+01,9.293787300528743786e-03
2.312000000000000099e+01,8.760183353890119845e-03
2.316000000000000014e+01,1.286111527901848302e-02
2.319999999999999929e+01,6.518127737854411546e-03
2.323999999999999844e+01,7.466945115198539949e-03
2.328000000000000114e+01,8.909903189494741346e-03
2.332000000000000028e+01,9.672860064573508138e-03
2.335999999999999943e+01,7.222140974391562385e-03
2.339999999999999858e+01,8.479004293390825578e-03
2.344000000000000128e+01,1.103336915278930325e-02
2.348000000000000043e+01,1.142460655708444316e-02
2.351999999999999957e+01,9.343731890935317794e-03
2.355999999999999872e+01,9.178328634928449581e-03
2.360000000000000142e+01,1.241152368401095794e-02
2.364000000000000057e+01,9.402993179618080941e-03
2.367999999999999972e+01,1.442783238323573289e-02
2.371999999999999886e+01,3.199840610841889459e-03
2.376000000000000156e+01,1.322976580903599195e-02
2.380000000000000071e+01,4.040606752573301826e-03
2.383999999999999986e+01,1.165998462091842429e-02
2.387999999999999901e+01,7.414115377275144921e-03
2.392000000000000171e+01,1.317911896469583372e-02
2.396000000000000085e+01,9.612550589608184412e-03
2.400000000000000000e+01,6.910906903876941690e-03
2.403999999999999915e+01,1.051231951480913543e-02
2.407999999999999829e+01,8.984353053551989710e-03
2.412000000000000099e+01,8.197717767826863053e-03
2.416000000000000014e+01,5.865926686112910016e-03
2.419999999999999929e+01,1.391579102193246827e-02
2.423999999999999844e+01,1.016220634470463291e-02
2.428000000000000114e+01,4.678075409032914599e-03
2.432000000000000028e+01,7.536300969520909852e-03
2.435999999999999943e+01,1.175382795872067544e-02
2.439999999999999858e+01,1.275768230577842971e-02
2.444000000000000128e+01,1.289614818647008727e-02
2.448000000000000043e+01,9.079378297076782373e-03
2.451999999999999957e+01,7.919646268887333210e-03
2.455999999999999872e+01,1.003492171602016723e-02
2.460000000000000142e+01,7.391601444306756565e-03
2.464000000000000057e+01,1.111313633507125288e-02
2.467999999999999972e+01,9.705294070830238970e-03
2.471999999999999886e+01,6.937688645864011593e-03
2.476000000000000156e+01,8.186654718848794532e-03
2.480000000000000071e+01,9.126406013453347912e-03
2.483999999999999986e+01,9.447957914336850907e-03
2.487999999999999901e+01,8.286153268482870579e-03
2.492000000000000171e+01,9.595996916063409890e-03
2.496000000000000085e+01,4.478728382081252450e-03
2.500000000000000000e+01,8.259991054742758451e-03
2.503999999999999915e+01,9.383755667934035039e-03
2.507999999999999829e+01,1.149604231867392898e-02
2.512000000000000099e+01,6.872232555947009602e-03
2.516000000000000014e+01,7.068355901491817951e-03
2.519999999999999929e+01,7.017062695409601557e-03
2.523999999999999844e+01,6.285774425098310768e-03
2.528000000000000114e+01,8.582308136207408497e-03
2.532000000000000028e+01,1.248533413804495465e-02
2.535999999999999943e+01,9.096091955613651303e-03
2.539999999999999858e+01,1.361663107985865845e-02
2.544000000000000128e+01,9.176384662432561165e-03
2.548000000000000043e+01,9.617869324406860126e-03
2.551999999999999957e+01,6.907481871612972807e-03
2.555999999999999872e+01,7.410308140817228537e-03
2.560000000000000142e+01,1.131173910572367061e-02
2.564000000000000057e+01,1.008379598311885152e-02
2.567999999999999972e+01,7.248904972760445570e-03
2.571999999999999886e+01,5.711522788099895366e-03
2.576000000000000156e+01,5.718837351471968769e-03
2.580000000000000071e+01,1.363593449964291444e-02
2.583999999999999986e+01,7.030522007509423625e-03
2.587999999999999901e+01,7.655125920862496103e-03
2.592000000000000171e+01,7.846924737317290469e-03
2.596000000000000085e+01,1.106654770800094729e-02
2.600000000000000000e+01,6.128747258583149178e-03
2.603999999999999915e+01,7.679400342333525531e-03
2.607999999999999829e+01,1.337022303910064339e-02
2.612000000000000099e+01,7.813775267672060099e-03
2.616000000000000014e+01,9.363750899154584667e-03
2.619999999999999929e+01,1.103709486610024784e-02
2.623999999999999844e+01,9.002396481222809180e-03
2.628000000000000114e+01,3.877625358640723451e-03
2.632000000000000028e+01,1.024686150299292282e-02
2.635999999999999943e+01,7.655315045355904138e-03
2.639999999999999858e+01,4.939949767720885898e-03
2.644000000000000128e+01,1.174108978427697118e-02
2.648000000000000043e+01,6.615194048010873511e-03
2.651999999999999957e+01,1.137658555334415678e-02
2.655999999999999872e+01,1.292431131839735098e-02
2.660000000000000142e+01,7.859539296298534775e-03
2.664000000000000057e+01,9.036034930029222118e-03
2.667999999999999972e+01,5.577535388412266544e-03
2.671999999999999886e+01,6.197410556177604390e-03
2.676000000000000156e+01,6.755265002885826008e-03
2.680000000000000071e+01,8.301646983069772487e-03
2.683999999999999986e+01,5.831003785461330927e-03
2.687999999999999901e+01,1.176452221262770312e-02
2.692000000000000171e+01,7.068742214149713841e-03
2.696000000000000085e+01,4.473835335747662970e-03
2.700000000000000000e+01,7.131446085395495849e-03
2.703999999999999915e+01,2.867575710673018509e-03
2.707999999999999829e+01,4.165207962778046287e-03
2.712000000000000099e+01,7.810901640730512352e-03
2.716000000000000014e+01,5.523865755839414693e-03
2.719999999999999929e+01,8.489348138059467364e-03
2.723999999999999844e+01,7.746791363762838695e-03
2.728000000000000114e+01,8.425342297103373748e-03
2.732000000000000028e+01,6.446402456272280757e-03
2.735999999999999943e+01,8.360448523927704531e-03
2.739999999999999858e+01,1.076864845319775235e-02
2.744000000000000128e+01,6.193571587589437322e-03
2.748000000000000043e+01,8.354140650913019148e-03
2.751999999999999957e+01,9.896518883936797004e-03
2.755999999999999872e+01,6.803904753482590065e-03
2.760000000000000142e+01,1.310420572651377347e-02
2.764000000000000057e+01,8.342631934106895658e-03
2.767999999999999972e+01,8.524593199405152560e-03
2.771999999999999886e+01,6.481643609068740361e-03
2.776000000000000156e+01,1.191590422591745635e-02
2.780000000000000071e+01,9.007356328324460717e-03
2.783999999999999986e+01,5.295227777037871987e-03
2.787999999999999901e+01,8.504137278697585997e-03
2.792000000000000171e+01,8.808370128847083438e-03
2.796000000000000085e+01,1.294379385603632894e-02
2.800000000000000000e+01,1.275321136883554758e-02
2.803999999999999915e+01,5.084978414895330312e-03
2.807999999999999829e+01,1.064107291328610615e-02
2.812000000000000099e+01,7.668969073841395111e-03
2.816000000000000014e+01,1.235946756559624764e-02
2.819999999999999929e+01,1.012848863953627783e-02
2.823999999999999844e+01,8.577057105040154436e-03
2.828000000000000114e+01,1.178377169954119077e-02
2.832000000000000028e+01,7.821821465141680016e-03
2.835999999999999943e+01,9.977550485237509856e-03
2.839999999999999858e+01,7.992665414957748210e-03
2.844000000000000128e+01,6.872719221194999173e-03
2.848000000000000043e+01,1.304459468934615271e-02
2.851999999999999957e+01,2.036700289497394602e-03
2.855999999999999872e+01,3.078992851744925471e-03
2.860000000000000142e+01,1.011537153810007465e-02
2.864000000000000057e+01,8.747147445440289076e-03
2.867999999999999972e+01,9.726989763306007064e-03
2.871999999999999886e+01,6.937000705077930526e-03
2.876000000000000156e+01,7.298438645197911565e-03
2.880000000000000071e+01,7.103486793640938560e-03
2.883999999999999986e+01,7.464490353570466148e-03
2.887999999999999901e+01,9.246606733627421928e-03
2.892000000000000171e+01,5.837562558147576901e-03
2.896000000000000085e+01,3.478849766635979095e-03
2.900000000000000000e+01,1.032766570614688205e-02
2.903999999999999915e+01,5.311251021450647154e-03
2.907999999999999829e+01,6.597908737762257086e-03
2.912000000000000099e+01,8.069741068462399011e-03
2.916000000000000014e+01,5.833540377634205062e-03
2.919999999999999929e+01,5.080250478062137316e-03
2.923999999999999844e+01,5.809871497558461752e-03
2.928000000000000114e+01,6.539276796800516309e-03
2.932000000000000028e+01,5.476354993312510487e-03
2.935999999999999943e+01,6.946892619050229999e-03
2.939999999999999858e+01,5.389164425070006210e-03
2.944000000000000128e+01,1.161763654954280946e-02
2.948000000000000043e+01,4.126970996824675525e-03
2.951999999999999957e+01,6.214617528472119769e-03
2.955999999999999872e+01,4.903217059866920094e-03
2.960000000000000142e+01,8.102779143540869353e-03
2.964000000000000057e+01,9.139233455199097245e-03
2.967999999999999972e+01,7.580001482239528098e-03
2.971999999999999886e+01,7.812666705248536014e-03
2.976000000000000156e+01,1.181473160821827628e-02
2.980000000000000071e+01,1.050204487025961815e-02
2.983999999999999986e+01,9.189144201418293287e-03
2.987999999999999901e+01,5.651339578804168672e-03
2.992000000000000171e+01,5.017777866571102377e-03
2.996000000000000085e+01,3.518845326063429774e-03
3.000000000000000000e+01,9.373536252966071722e-03
3.003999999999999915e+01,1.337410542912868469e-02
3.007999999999999829e+01,7.363355763121478582e-03
3.012000000000000099e+01,5.987164208214016022e-03
3.016000000000000014e+01,9.430921738110394081e-03
3.019999999999999929e+01,1.095876107988518096e-02
3.023999999999999844e+01,8.098804416125716596e-03
3.028000000000000114e+01,1.042957891239062324e-02
3.032000000000000028e+01,7.260212583394624539e-03
3.035999999999999943e+01,5.264776009057112356e-03
3.039999999999999858e+01,5.308426598019041175e-03
3.044000000000000128e+01,1.029562106373185619e-02
3.048000000000000043e+01,6.013061348964914357e-03
3.051999999999999957e+01,5.067325102177205193e-03
3.055999999999999872e+01,7.582006348442280746e-03
3.060000000000000142e+01,1.065264862993316186e-02
3.064000000000000057e+01,9.768074824426738537e-03
3.067999999999999972e+01,3.074376600816618437e-03
3.071999999999999886e+01,9.481420367885240452e-03
3.076000000000000156e+01,8.040040667664168778e-03
3.080000000000000071e+01,8.328764665712026088e-03
3.083999999999999986e+01,6.454384726111864722e-03
3.087999999999999901e+01,7.978626353431914758e-03
3.092000000000000171e+01,3.940932124044315907e-03
3.096000000000000085e+01,7.565849172714285940e-03
3.100000000000000000e+01,9.954617024444634490e-03
3.103999999999999915e+01,5.236525687138550607e-03
3.107999999999999829e+01,6.203543655146933830e-03
3.112000000000000099e+01,8.406290754877331073e-03
3.116000000000000014e+01,7.209995966845347999e-03
3.119999999999999929e+01,3.974192288736950671e-03
3.123999999999999844e+01,5.681935043624577845e-03
3.128000000000000114e+01,1.214783351342866614e-02
3.132000000000000028e+01,7.984447616936703532e-03
3.135999999999999943e+01,8.702811588246924662e-03
3.139999999999999858e+01,7.443464257172655030e-03
3.144000000000000128e+01,8.470395207038973126e-03
3.148000000000000043e+01,2.452265322434315706e-03
3.151999999999999957e+01,1.114160064914972680e-02
3.155999999999999872e+01,1.148813947577560952e-02
3.160000000000000142e+01,1.134009440621317442e-02
3.164000000000000057e+01,1.137723200321150152e-02
3.167999999999999972e+01,4.740091096583878144e-03
3.171999999999999886e+01,7.372284560842910089e-03
3.176000000000000156e+01,8.891925153856420835e-03
3.180000000000000071e+01,1.084393671920221014e-02
3.183999999999999986e+01,1.211597430934137007e-02
3.187999999999999901e+01,7.702485213005804202e-03
3.192000000000000171e+01,1.206395553757317468e-02
3.196000000000000085e+01,9.318569612786053308e-03
3.200000000000000000e+01,5.151646840473872967e-03
3.203999999999999915e+01,8.214760156735870580e-03
3.207999999999999829e+01,5.777738271476297316e-03
3.211999999999999744e+01,4.761839559137000938e-03
3.215999999999999659e+01,1.079058647291680079e-02
3.220000000000000284e+01,5.695676243225263058e-03
3.224000000000000199e+01,7.830802741169188078e-03
3.228000000000000114e+01,6.875875673247066645e-03
3.232000000000000028e+01,7.403869365937145591e-03
3.235999999999999943e+01,8.487829717592364556e-03
3.239999999999999858e+01,7.408691116277612773e-03
3.243999999999999773e+01,6.885519429552506947e-03
3.247999999999999687e+01,1.019355306265224727e-02
3.252000000000000313e+01,6.827310876183415381e-03
3.256000000000000227e+01,4.202426833632888839e-03
3.260000000000000142e+01,7.509844747785099361e-03
3.264000000000000057e+01,6.244083479246671960e-03
3.267999999999999972e+01,3.927569227775250596e-03
3.271999999999999886e+01,8.408514597272070956e-03
3.275999999999999801e+01,9.552220140127428913e-03
3.279999999999999716e+01,8.718218854027267109e-03
3.284000000000000341e+01,6.277292558567579631e-03
3.288000000000000256e+01,7.111400323379700114e-03
3.292000000000000171e+01,9.119446022834777274e-03
3.296000000000000085e+01,9.644160993628334705e-03
3.300000000000000000e+01,7.264215545068349045e-03
3.303999999999999915e+01,6.367193157741182254e-03
3.307999999999999829e+01,2.874495349838081162e-03
3.311999999999999744e+01,7.291603516376957486e-03
3.315999999999999659e+01,9.916396850162493420e-03
3.320000000000000284e+01,9.636530403655781465e-03
3.324000000000000199e+01,3.053172129984857344e-03
3.328000000000000114e+01,7.098686081752286249e-03
3.332000000000000028e+01,9.784464352429744771e-03
3.335999999999999943e+01,7.402690151992239072e-03
3.339999999999999858e+01,5.391495087746686274e-03
3.343999999999999773e+01,3.194706749829740681e-03
3.347999999999999687e+01,9.711085868863182299e-03
3.352000000000000313e+01,4.609436473184776693e-03
3.356000000000000227e+01,8.529939533234364921e-03
3.360000000000000142e+01,9.854768834267356448e-03
3.364000000000000057e+01,4.072747254060667295e-03
3.367999999999999972e+01,9.228583920568007512e-03
3.371999999999999886e+01,7.462960807352030101e-03
3.375999999999999801e+01,8.910577617646906964e-03
3.379999999999999716e+01,3.498531852473588284e-03
3.384000000000000341e+01,7.603015026759051866e-03
3.388000000000000256e+01,8.988231439452491062e-03
3.392000000000000171e+01,4.935115478618811585e-03
3.396000000000000085e+01,4.960397361185981367e-03
3.400000000000000000e+01,5.912432834804562734e-03
3.403999999999999915e+01,7.544034232764323250e-03
3.407999999999999829e+01,9.916998631508145909e-03
3.411999999999999744e+01,6.480849604002415255e-03
3.415999999999999659e+01,1.033654038775112111e-02
3.420000000000000284e+01,6.343818696064290608e-03
3.424000000000000199e+01,5.440744564374167154e-03
3.428000000000000114e+01,7.812708966384862563e-03
3.432000000000000028e+01,5.487905656558472907e-03
3.435999999999999943e+01,4.955014368922505165e-03
3.439999999999999858e+01,8.562319279252845333e-03
3.443999999999999773e+01,6.051527042678587348e-03
3.447999999999999687e+01,8.669682437785089166e-03
3.452000000000000313e+01,6.652867708746400786e-03
3.456000000000000227e+01,9.270625277968021216e-03
3.460000000000000142e+01,6.759037389624000455e-03
3.464000000000000057e+01,4.988814291435645851e-03
3.467999999999999972e+01,4.454331700260195058e-03
3.471999999999999886e+01,1.694960620595098227e-03
3.475999999999999801e+01,8.761106163223768978e-03
3.479999999999999716e+01,9.400170966105051221e-03
3.484000000000000341e+01,6.331220896798529785e-03
3.488000000000000256e+01,3.571057744106877988e-03
3.492000000000000171e+01,6.434219218075787165e-03
3.496000000000000085e+01,6.516320432752996557e-03
3.500000000000000000e+01,4.373534053626347388e-03
3.503999999999999915e+01,4.146255766759755247e-03
3.507999999999999829e+01,5.710891802704203511e-03
3.511999999999999744e+01,8.758457546118871354e-03
3.515999999999999659e+01,5.687928443249574278e-03
3.520000000000000284e+01,6.201425556916121719e-03
3.524000000000000199e+01,8.136055812859021089e-03
3.528000000000000114e+01,9.267129188188167124e-03
3.532000000000000028e+01,1.033620919428329676e-02
3.535999999999999943e+01,6.708524811660000926e-03
3.539999999999999858e+01,6.479476438741987691e-03
3.543999999999999773e+01,7.486171001269765340e-03
3.547999999999999687e+01,5.464619171542707543e-03
3.552000000000000313e+01,3.875450200687859895e-03
3.556000000000000227e+01,6.241090288462909294e-03
3.560000000000000142e+01,7.988565364014130893e-03
3.564000000000000057e+01,5.101073894163385067e-03
3.567999999999999972e+01,8.022300325297930523e-03
3.571999999999999886e+01,7.173717747483742899e-03
3.575999999999999801e+01,7.313691333090901851e-03
3.579999999999999716e+01,8.318627312670429791e-03
3.584000000000000341e+01,7.654850920179106025e-03
3.588000000000000256e+01,1.137846324923009328e-02
3.592000000000000171e+01,1.195023669469983015e-02
3.596000000000000085e+01,7.330872079590056330e-03
3.600000000000000000e+01,7.284287415351225169e-03
3.603999999999999915e+01,9.709386576354457621e-03
3.607999999999999829e+01,8.673662621872368222e-03
3.611999999999999744e+01,7.761338700293259583e-03
3.615999999999999659e+01,6.416242401753770828e-03
3.620000000000000284e+01,7.110251799291029788e-03
3.624000000000000199e+01,1.089391514743786281e-02
3.628000000000000114e+01,9.362847560242011299e-03
3.632000000000000028e+01,1.098323112791086721e-02
3.635999999999999943e+01,8.463026039843361478e-03
3.639999999999999858e+01,1.014482048898563207e-02
3.643999999999999773e+01,1.164103125037583598e-02
3.647999999999999687e+01,8.811262893574580909e-03
3.652000000000000313e+01,1.005990056015863311e-02
3.656000000000000227e+01,1.198811220325608079e-02
3.660000000000000142e+01,7.983624447202698413e-03
3.664000000000000057e+01,9.169888173322583019e-03
3.667999999999999972e+01,1.233346218063568339e-02
3.671999999999999886e+01,1.197441816882894618e-02
3.675999999999999801e+01,7.042208138994065711e-03
3.679999999999999716e+01,1.125575481494127048e-02
3.684000000000000341e+01,9.289415064088679327e-03
3.688000000000000256e+01,1.263742145954416252e-02
3.692000000000000171e+01,1.036171422149995483e-02
3.696000000000000085e+01,1.469808930663137406e-02
3.700000000000000000e+01,7.910822585762342790e-03
3.703999999999999915e+01,8.909780467675234433e-03
3.707999999999999829e+01,1.120628347396708697e-02
3.711999999999999744e+01,1.319361106805399565e-02
3.715999999999999659e+01,1.178191594621715368e-02
3.720000000000000284e+01,1.345987784248403769e-02
3.724000000000000199e+01,1.371631963463157758e-02
3.728000000000000114e+01,1.428155601212940592e-02
3.732000000000000028e+01,1.033542510960131985e-02
3.735999999999999943e+01,1.380473814056950958e-02
3.739999999999999858e+01,1.591432852729799882e-02
3.743999999999999773e+01,1.295637947976173779e-02
3.747999999999999687e+01,1.766106254368102202e-02
3.752000000000000313e+01,1.562968881593330278e-02
3.756000000000000227e+01,1.854188171551827968e-02
3.760000000000000142e+01,2.306060614419467095e-02
3.764000000000000057e+01,1.979272603792026769e-02
3.767999999999999972e+01,2.258075801776652722e-02
3.771999999999999886e+01,2.122820568749318737e-02
3.775999999999999801e+01,2.191476403797460934e-02
3.779999999999999716e+01,2.414605760797811085e-02
3.784000000000000341e+01,2.891083770340589082e-02
3.788000000000000256e+01,2.545643539034206024e-02
3.792000000000000171e+01,3.133318420769538176e-02
3.796000000000000085e+01,3.677716639963991840e-02
3.800000000000000000e+01,4.333330580975346125e-02
3.803999999999999915e+01,5.112519646310952071e-02
3.807999999999999829e+01,6.281010727863704790e-02
3.811999999999999744e+01,7.912960176771580145e-02
3.815999999999999659e+01,9.538711196223079170e-02
3.820000000000000284e+01,1.236330429729654151e-01
3.824000000000000199e+01,1.717774043524515626e-01
3.828000000000000114e+01,2.417359016360506596e-01
3.832000000000000028e+01,3.524184012325452531e-01
3.835999999999999943e+01,5.570320760407125871e-01
3.839999999999999858e+01,8.480994954040597111e-01
3.843999999999999773e+01,1.000000000000000000e+00
3.847999999999999687e+01,9.359817797571136078e-01
3.852000000000000313e+01,8.398907569793122585e-01
3.856000000000000227e+01,6.577163986912442084e-01
3.860000000000000142e+01,4.610813684836126414e-01
3.864000000000000057e+01,2.986198650565286550e-01
3.867999999999999972e+01,2.019101292880520482e-01
3.871999999999999886e+01,1.453064276242873043e-01
3.875999999999999801e+01,1.078595946072658518e-01
3.879999999999999716e+01,8.233938737501733662e-02
3.884000000000000341e+01,6.726267928821909325e-02
3.888000000000000256e+01,5.583180612531499221e-02
3.892000000000000171e+01,4.829395580863977272e-02
3.896000000000000085e+01,4.100310849679904279e-02
3.900000000000000000e+01,3.816145682448731508e-02
3.903999999999999915e+01,3.358930605645470135e-02
3.907999999999999829e+01,2.574173260474793209e-02
3.911999999999999744e+01,2.975898901168149216e-02
3.915999999999999659e+01,2.654581827820563095e-02
3.920000000000000284e+01,2.246730624108661881e-02
3.924000000000000199e+01,2.160205163775772222e-02
3.928000000000000114e+01,2.407364849329243772e-02
3.932000000000000028e+01,2.055075769227918125e-02
3.935999999999999943e+01,1.498838407488999568e-02
3.939999999999999858e+01,1.986951139232266336e-02
3.943999999999999773e+01,1.597528874826617193e-02
3.947999999999999687e+01,1.646846632885514902e-02
3.952000000000000313e+01,1.430419211801099190e-02
3.956000000000000227e+01,1.714528787374304183e-02
3.960000000000000142e+01,1.491885109707224641e-02
3.964000000000000057e+01,1.491692185422420144e-02
3.967999999999999972e+01,1.565637350587624141e-02
3.971999999999999886e+01,1.101930826540910117e-02
3.975999999999999801e+01,1.231456786003877479e-02
3.979999999999999716e+01,1.089057960929049051e-02
3.984000000000000341e+01,1.249445986362432426e-02
3.988000000000000256e+01,1.490151860015015428e-02
3.992000000000000171e+01,9.830964830176978572e-03
3.996000000000000085e+01,1.267023889054177260e-02
4.000000000000000000e+01,1.056557559388753009e-02
4.003999999999999915e+01,1.185956313316040289e-02
4.007999999999999829e+01,1.105227320804737408e-02
4.011999999999999744e+01,1.216050760735106449e-02
4.015999999999999659e+01,1.302137325681198068e-02
4.020000000000000284e+01,1.153377403080127137e-02
4.024000000000000199e+01,1.189990256401342837e-02
4.028000000000000114e+01,1.016475427190093733e-02
4.032000000000000028e+01,1.090130348094207544e-02
4.035999999999999943e+01,1.101970288741798906e-02
4.039999999999999858e+01,1.293003361573518209e-02
4.043999999999999773e+01,6.126814526500289071e-03
4.047999999999999687e+01,8.283973055883261591e-03
4.052000000000000313e+01,1.254204803369740086e-02
4.056000000000000227e+01,6.109071221216340157e-03
4.060000000000000142e+01,8.636472410789934259e-03
4.064000000000000057e+01,1.264682094592523877e-02
4.067999999999999972e+01,4.977366896112158864e-03
4.071999999999999886e+01,3.858210235196276022e-03
4.075999999999999801e+01,8.671381604683614519e-03
4.079999999999999716e+01,1.070351137546885628e-02
4.084000000000000341e+01,1.088155390482351340e-02
4.088000000000000256e+01,9.081915423298652507e-03
4.092000000000000171e+01,9.506788565588763715e-03
4.096000000000000085e+01,9.993280257434369179e-03
4.100000000000000000e+01,9.120060808143429926e-03
4.103999999999999915e+01,1.121291674967168223e-02
4.107999999999999829e+01,7.558478452913805837e-03
4.111999999999999744e+01,1.039254187454505957e-02
4.115999999999999659e+01,1.254666110122561705e-02
4.120000000000000284e+01,1.086919188060607791e-02
4.124000000000000199e+01,7.832012285723518805e-03
4.128000000000000114e+01,1.023278679375857342e-02
4.132000000000000028e+01,9.172754929714022759e-03
4.135999999999999943e+01,8.236139841978127804e-03
4.139999999999999858e+01,6.001611839858882538e-03
4.143999999999999773e+01,8.030896427924488420e-03
4.147999999999999687e+01,5.857811771592033416e-03
4.152000000000000313e+01,1.196534162205933026e-02
4.156000000000000227e+01,1.133682758989759502e-02
4.160000000000000142e+01,1.058454330639561902e-02
4.164000000000000057e+01,9.955676693888129355e-03
4.167999999999999972e+01,1.006819736649359337e-02
4.171999999999999886e+01,7.708664123231931224e-03
4.175999999999999801e+01,8.068020776887646628e-03
4.179999999999999716e+01,7.314856640174431483e-03
4.184000000000000341e+01,8.971597912849986131e-03
4.188000000000000256e+01,7.970894935015598870e-03
4.192000000000000171e+01,8.267752546843315162e-03
4.196000000000000085e+01,7.699277674073612930e-03
4.200000000000000000e+01,7.872191108914934968e-03
4.203999999999999915e+01,6.067427239432172242e-03
4.207999999999999829e+01,1.081296510446339010e-02
4.211999999999999744e+01,7.771912749516595234e-03
4.215999999999999659e+01,1.183733492238385997e-02
4.220000000000000284e+01,9.104918308987604639e-03
4.224000000000000199e+01,8.535220588580222367e-03
4.228000000000000114e+01,7.470973097857208124e-03
4.232000000000000028e+01,9.372805087945646971e-03
4.235999999999999943e+01,8.184615720856868240e-03
4.239999999999999858e+01,5.822110531952431021e-03
4.243999999999999773e+01,8.650375357998568368e-03
4.247999999999999687e+01,1.061330936100666512e-02
4.252000000000000313e+01,1.127833402837460572e-02
4.256000000000000227e+01,4.898333265266853996e-03
4.260000000000000142e+01,1.087754906951081575e-02
4.264000000000000057e+01,1.092408477425478065e-02
4.267999999999999972e+01,8.127787938842098714e-03
4.271999999999999886e+01,8.977338297300274314e-03
4.275999999999999801e+01,1.242218785072099312e-02
4.279999999999999716e+01,9.378185278215147788e-03
4.284000000000000341e+01,1.016542112890882026e-02
4.288000000000000256e+01,8.665997616182688143e-03
4.292000000000000171e+01,1.068882803912747995e-02
4.296000000000000085e+01,9.003669535772699378e-03
4.300000000000000000e+01,9.048653713425305195e-03
4.303999999999999915e+01,9.649638675915762909e-03
4.307999999999999829e+01,1.037404591064195782e-02
4.311999999999999744e+01,1.116007859678555189e-02
4.315999999999999659e+01,6.446011485402850481e-03
4.320000000000000284e+01,1.242264524552893178e-02
4.324000000000000199e+01,1.660699638159052888e-02
4.328000000000000114e+01,1.040928916174348358e-02
4.332000000000000028e+01,1.267759304613966242e-02
4.335999999999999943e+01,1.105251843646698484e-02
4.339999999999999858e+01,1.041602440235681222e-02
4.343999999999999773e+01,1.157147140381947249e-02
4.347999999999999687e+01,9.884088421370651120e-03
4.352000000000000313e+01,1.011224062738039914e-02
4.356000000000000227e+01,1.052561358800360551e-02
4.360000000000000142e+01,1.050623794474633832e-02
4.364000000000000057e+01,9.374347390483967965e-03
4.367999999999999972e+01,1.065236812497420346e-02
4.371999999999999886e+01,1.736835075892976393e-02
4.375999999999999801e+01,1.487641859470558228e-02
4.379999999999999716e+01,1.510338284582389209e-02
4.384000000000000341e+01,1.353806639006158163e-02
4.388000000000000256e+01,1.475344355389687605e-02
4.392000000000000171e+01,1.479450975278227311e-02
4.396000000000000085e+01,1.990275692622279352e-02
4.400000000000000000e+01,2.037606426702312512e-02
4.403999999999999915e+01,1.973685797494095437e-02
4.407999999999999829e+01,2.268170627371577860e-02
4.411999999999999744e+01,2.686232524319621950e-02
4.415999999999999659e+01,2.566644150771803246e-02
4.420000000000000284e+01,3.139164797258717915e-02
4.424000000000000199e+01,2.982464658057293674e-02
4.428000000000000114e+01,3.629108071988172701e-02
4.432000000000000028e+01,3.861695163809335946e-02
4.435999999999999943e+01,4.526844142541523036e-02
4.439999999999999858e+01,5.797586477131699834e-02
4.443999999999999773e+01,6.981796355698133283e-02
4.447999999999999687e+01,8.685083887602136621e-02
4.452000000000000313e+01,1.106812115206455283e-01
4.456000000000000227e+01,1.455730710741789391e-01
4.460000000000000142e+01,1.822568753698407262e-01
4.464000000000000057e+01,2.276538827820726307e-01
4.467999999999999972e+01,2.501858526884394029e-01
4.471999999999999886e+01,2.574538098983197298e-01
4.475999999999999801e+01,2.436488413682473819e-01
4.479999999999999716e+01,2.131585305788088747e-01
4.484000000000000341e+01,1.837186019148047411e-01
4.488000000000000256e+01,1.456887315176703113e-01
4.492000000000000171e+01,1.103777611146215948e-01
4.496000000000000085e+01,8.581929415545160034e-02
4.500000000000000000e+01,7.053020400083766239e-02
4.503999999999999915e+01,5.789821727511556410e-02
4.507999999999999829e+01,4.662559818485451785e-02
4.511999999999999744e+01,3.949320954624473828e-02
4.515999999999999659e+01,3.446175218228797466e-02
4.520000000000000284e+01,2.763801845706732180e-02
4.524000000000000199e+01,2.415115523473665080e-02
4.528000000000000114e+01,2.369217789995506709e-02
4.532000000000000028e+01,2.360381778941814113e-02
4.535999999999999943e+01,1.894231914048839782e-02
4.539999999999999858e+01,1.798847319748135901e-02
4.543999999999999773e+01,1.598391504365144489e-02
4.547999999999999687e+01,1.842857323493623384e-02
4.552000000000000313e+01,1.321024596754615150e-02
4.556000000000000227e+01,1.355348037624646250e-02
4.560000000000000142e+01,1.371116036620163847e-02
4.564000000000000057e+01,1.028445389053972078e-02
4.567999999999999972e+01,1.631251723813413601e-02
4.571999999999999886e+01,1.288548425582695250e-02
4.575999999999999801e+01,1.347508987290590120e-02
4.579999999999999716e+01,1.029491868972494048e-02
4.584000000000000341e+01,8.226929775915438683e-03
4.588000000000000256e+01,1.097894017712692551e-02
4.592000000000000171e+01,1.033195585329900988e-02
4.596000000000000085e+01,1.271285958982858004e-02
4.600000000000000000e+01,9.779063449393991803e-03
4.603999999999999915e+01,9.564170881788281592e-03
4.607999999999999829e+01,8.545755942878320924e-03
4.611999999999999744e+01,8.145148578980620016e-03
4.615999999999999659e+01,7.867973328862482713e-03
4.620000000000000284e+01,8.023215063489278279e-03
4.624000000000000199e+01,4.717666146944093745e-03
4.628000000000000114e+01,9.939934741379781447e-03
4.632000000000000028e+01,6.325078409403940040e-03
4.635999999999999943e+01,1.000210087142103244e-02
4.639999999999999858e+01,7.808252196920956005e-03
4.643999999999999773e+01,1.031081072955221736e-02
4.647999999999999687e+01,5.335777716894669377e-03
4.652000000000000313e+01,6.849263677281011188e-03
4.656000000000000227e+01,1.034009148848813106e-02
4.660000000000000142e+01,8.516221339914958194e-03
4.664000000000000057e+01,7.866332965588989160e-03
4.667999999999999972e+01,9.935350209088046267e-03
4.671999999999999886e+01,9.346938667360294578e-03
4.675999999999999801e+01,7.955006927136633668e-03
4.679999999999999716e+01,7.428072729256126813e-03
4.684000000000000341e+01,8.878481276882186149e-03
4.688000000000000256e+01,7.424273756007991783e-03
4.692000000000000171e+01,2.447480808139597484e-03
4.696000000000000085e+01,8.037806848870914303e-03
4.700000000000000000e+01,9.302187386034464767e-03
4.703999999999999915e+01,7.909140160469277023e-03
4.707999999999999829e+01,5.650776810275613682e-03
4.711999999999999744e+01,7.532650302346106594e-03
4.715999999999999659e+01,7.375065901430822440e-03
4.720000000000000284e+01,6.290368810693229736e-03
4.724000000000000199e+01,6.812234051801071590e-03
4.728000000000000114e+01,4.923860091576194933e-03
4.732000000000000028e+01,8.782444277072901442e-03
4.735999999999999943e+01,1.010719561960015354e-02
4.739999999999999858e+01,5.128500380502327809e-03
4.743999999999999773e+01,7.997859924003970084e-03
4.747999999999999687e+01,5.367133473703125830e-03
4.752000000000000313e+01,6.876645143788973590e-03
4.756000000000000227e+01,7.829826966146565329e-03
4.760000000000000142e+01,9.833399732984304809e-03
4.764000000000000057e+01,7.016653452205403631e-03
4.767999999999999972e+01,7.907567162647890710e-03
4.771999999999999886e+01,5.275898002341323535e-03
4.775999999999999801e+01,9.441736520411705968e-03
4.779999999999999716e+01,1.045577411514128467e-02
4.784000000000000341e+01,6.464102455423638253e-03
4.788000000000000256e+01,3.893604326655686169e-03
4.792000000000000171e+01,7.873426592991233583e-03
4.796000000000000085e+01,8.825042344496231844e-03
4.800000000000000000e+01,9.529314397360905131e-03
4.803999999999999915e+01,6.340222910190849298e-03
4.807999999999999829e+01,5.808244565644178799e-03
4.811999999999999744e+01,8.798536772361854191e-03
4.815999999999999659e+01,7.586481079328455217e-03
4.820000000000000284e+01,5.570909789040437779e-03
4.824000000000000199e+01,7.942766714282236198e-03
4.828000000000000114e+01,8.336966273912099074e-03
4.832000000000000028e+01,5.888351314913603009e-03
4.835999999999999943e+01,9.186697824755354902e-03
4.839999999999999858e+01,7.973712458566485986e-03
4.843999999999999773e+01,6.822369542825229213e-03
4.847999999999999687e+01,8.389937996460547845e-03
4.852000000000000313e+01,4.148439036258967476e-03
4.856000000000000227e+01,4.788744903130244361e-03
4.860000000000000142e+01,7.344602190616784064e-03
4.864000000000000057e+01,9.096945286783529594e-03
4.867999999999999972e+01,6.399754350236049050e-03
4.871999999999999886e+01,6.359678601308099352e-03
4.875999999999999801e+01,6.999215811632024213e-03
4.879999999999999716e+01,9.986883722046858286e-03
4.884000000000000341e+01,7.474469984275957692e-03
4.888000000000000256e+01,4.776512308365003789e-03
4.892000000000000171e+01,6.157000277639142725e-03
4.896000000000000085e+01,7.660929307550858394e-03
4.900000000000000000e+01,6.692827683426306150e-03
4.903999999999999915e+01,4.426837557059549837e-03
4.907999999999999829e+01,6.857263073433128228e-03
4.911999999999999744e+01,5.826907141117255995e-03
4.915999999999999659e+01,5.476165446175862601e-03
4.920000000000000284e+01,3.642144914349406022e-03
4.924000000000000199e+01,7.060713074187927214e-03
4.928000000000000114e+01,4.979200991775522417e-03
4.932000000000000028e+01,8.953638188850681495e-03
4.935999999999999943e+01,5.821274734903261923e-03
4.939999999999999858e+01,7.570718792086105625e-03
4.943999999999999773e+01,7.713290881996219366e-03
4.947999999999999687e+01,7.793914848211374279e-03
4.952000000000000313e+01,7.997981664435722948e-03
4.956000000000000227e+01,4.370486746121734524e-03
4.960000000000000142e+01,7.355114539656685928e-03
4.964000000000000057e+01,6.755368648800307192e-03
4.967999999999999972e+01,7.515005091814552438e-03
4.971999999999999886e+01,6.791364359503114165e-03
4.975999999999999801e+01,4.399055733786379555e-03
4.979999999999999716e+01,7.506525383628679174e-03
4.984000000000000341e+01,8.512748755275852813e-03
4.988000000000000256e+01,7.170538182017654159e-03
4.992000000000000171e+01,4.592238867017545655e-03
4.996000000000000085e+01,9.800205438158508808e-03
5.000000000000000000e+01,5.676683252570648500e-03
5.003999999999999915e+01,7.176534006676621100e-03
5.007999999999999829e+01,9.603189732361450820e-03
5.011999999999999744e+01,8.754458050555146559e-03
5.015999999999999659e+01,9.388704133627814863e-03
5.020000000000000284e+01,6.500375270311343698e-03
5.024000000000000199e+01,4.600648838453413186e-03
5.028000000000000114e+01,6.593981551505446841e-03
5.032000000000000028e+01,6.486069520109430907e-03
5.035999999999999943e+01,7.428557252239323741e-03
5.039999999999999858e+01,1.195511976956285458e-02
5.043999999999999773e+01,7.520976627876135162e-03
5.047999999999999687e+01,7.227081064683160520e-03
5.052000000000000313e+01,4.461159704319696447e-03
5.056000000000000227e+01,7.812988534254394074e-03
5.060000000000000142e+01,3.625442034932142669e-03
5.064000000000000057e+01,6.729788005514361973e-03
5.067999999999999972e+01,6.064372768932074428e-03
5.071999999999999886e+01,7.252718778384097641e-03
5.075999999999999801e+01,6.339821449322894688e-03
5.079999999999999716e+01,6.848106981506152033e-03
5.084000000000000341e+01,5.749525019845689450e-03
5.088000000000000256e+01,4.774390253811156871e-03
5.092000000000000171e+01,7.568722780421456575e-03
5.096000000000000085e+01,7.334858378120521528e-03
5.100000000000000000e+01,6.297487325422955126e-03
5.103999999999999915e+01,5.259970082339101780e-03
5.107999999999999829e+01,6.879575567797955107e-03
5.111999999999999744e+01,1.103271001235050543e-02
5.115999999999999659e+01,6.348734995774680569e-03
5.120000000000000284e+01,4.074695296655836754e-03
5.124000000000000199e+01,8.659971344210976377e-03
5.128000000000000114e+01,8.115955231911792939e-03
5.132000000000000028e+01,7.942575515695842261e-03
5.135999999999999943e+01,8.881395706942867355e-03
5.139999999999999858e+01,5.865066145754132231e-03
5.143999999999999773e+01,8.286723151796387271e-03
5.147999999999999687e+01,8.607139119946063260e-03
5.152000000000000313e+01,5.034202667727372300e-03
5.156000000000000227e+01,8.135192138788863506e-03
5.160000000000000142e+01,9.320331801286418569e-03
5.164000000000000057e+01,6.426728580960512811e-03
5.167999999999999972e+01,6.252046954991798133e-03
5.171999999999999886e+01,6.139018260075791190e-03
5.175999999999999801e+01,6.705612110330960197e-03
5.179999999999999716e+01,4.614793407516016438e-03
5.184000000000000341e+01,4.501333426739827226e-03
5.188000000000000256e+01,7.971952960210786782e-03
5.192000000000000171e+01,8.908754221309643853e-03
5.196000000000000085e+01,3.851108214533860950e-03
5.200000000000000000e+01,5.776374280126197330e-03
5.203999999999999915e+01,7.021730915701824595e-03
5.207999999999999829e+01,7.957959940856757647e-03
5.211999999999999744e+01,8.461467586142017161e-03
5.215999999999999659e+01,8.964832619784177808e-03
5.220000000000000284e+01,7.119771121631916777e-03
5.224000000000000199e+01,7.190272675010357661e-03
5.228000000000000114e+01,8.311180126903041504e-03
5.232000000000000028e+01,9.246554632509808996e-03
5.235999999999999943e+01,8.080690912093648620e-03
5.239999999999999858e+01,9.448360240763455445e-03
5.243999999999999773e+01,7.602446523683652549e-03
5.247999999999999687e+01,8.166472214053054068e-03
5.252000000000000313e+01,6.505666292387344597e-03
5.256000000000000227e+01,5.215500728984841759e-03
5.260000000000000142e+01,8.065589518125719157e-03
5.264000000000000057e+01,5.600999647137185587e-03
5.267999999999999972e+01,5.051974233614157407e-03
5.271999999999999886e+01,8.272421864287560211e-03
5.275999999999999801e+01,9.206241701168753691e-03
5.279999999999999716e+01,7.544449128916910947e-03
5.284000000000000341e+01,5.697125271938469071e-03
5.288000000000000256e+01,5.085600076550011138e-03
5.292000000000000171e+01,5.215498081518825380e-03
5.296000000000000085e+01,5.221662133828457175e-03
5.300000000000000000e+01,7.081594717471055740e-03
5.303999999999999915e+01,6.222321761592908805e-03
5.307999999999999829e+01,7.402208438564087355e-03
5.311999999999999744e+01,1.000328538989065513e-02
5.315999999999999659e+01,6.980700599494048426e-03
5.320000000000000284e+01,4.884930750032345260e-03
5.324000000000000199e+01,8.288950167983834966e-03
5.328000000000000114e+01,8.232201429720647709e-03
5.332000000000000028e+01,7.310156505541143615e-03
5.335999999999999943e+01,8.674459903419272366e-03
5.339999999999999858e+01,6.639792477150101811e-03
5.343999999999999773e+01,6.397098039518139129e-03
5.347999999999999687e+01,8.626143153272428782e-03
5.352000000000000313e+01,1.147301948730659014e-02
5.356000000000000227e+01,1.116811330296500759e-02
5.360000000000000142e+01,8.329394214366120722e-03
5.364000000000000057e+01,7.097257907573825166e-03
5.367999999999999972e+01,8.460455688490325921e-03
5.371999999999999886e+01,8.340389075306889333e-03
5.375999999999999801e+01,6.737058195835737145e-03
5.379999999999999716e+01,9.768361092320671651e-03
5.384000000000000341e+01,9.215303724701284435e-03
5.388000000000000256e+01,1.057781464891513826e-02
5.392000000000000171e+01,4.030179160505699063e-03
5.396000000000000085e+01,6.257573517553016718e-03
5.400000000000000000e+01,1.027694265260909248e-02
5.403999999999999915e+01,7.992886422874809216e-03
5.407999999999999829e+01,1.009627706925990756e-02
5.411999999999999744e+01,8.738902243487750576e-03
5.415999999999999659e+01,5.527482737766723810e-03
5.420000000000000284e+01,7.506870823799947218e-03
5.424000000000000199e+01,8.064793125923192668e-03
5.428000000000000114e+01,4.111402340417616950e-03
5.432000000000000028e+01,7.449915783544183191e-03
5.435999999999999943e+01,9.305166877566925510e-03
5.439999999999999858e+01,7.699653394118178076e-03
5.443999999999999773e+01,1.085236962888288040e-02
5.447999999999999687e+01,7.392677161638923009e-03
5.452000000000000313e+01,2.882301496954519510e-03
5.456000000000000227e+01,7.888520978478160903e-03
5.460000000000000142e+01,8.754210086654794568e-03
5.464000000000000057e+01,9.125388918503340996e-03
5.467999999999999972e+01,9.063854550466654558e-03
5.471999999999999886e+01,6.344916959654637797e-03
5.475999999999999801e+01,8.075225366401029420e-03
5.479999999999999716e+01,6.035785730645389785e-03
5.484000000000000341e+01,8.198404553550179066e-03
5.488000000000000256e+01,8.568777945757380041e-03
5.492000000000000171e+01,6.837921291926102492e-03
5.496000000000000085e+01,9.000138737038922490e-03
5.500000000000000000e+01,4.611746090333049969e-03
5.503999999999999915e+01,6.773696589312520715e-03
5.507999999999999829e+01,9.491686344619266330e-03
5.511999999999999744e+01,8.810710771705811475e-03
5.515999999999999659e+01,7.697023532654228770e-03
5.520000000000000284e+01,7.386563727889188663e-03
5.524000000000000199e+01,6.643392512610534449e-03
5.528000000000000114e+01,7.877591011224779546e-03
5.532000000000000028e+01,8.493687509058040278e-03
5.535999999999999943e+01,5.401834702391520270e-03
5.539999999999999858e+01,8.365950602675666786e-03
5.543999999999999773e+01,8.425477786282640352e-03
5.547999999999999687e+01,8.546669915294499709e-03
5.552000000000000313e+01,6.999212555866109534e-03
5.556000000000000227e+01,9.159440366673831518e-03
5.560000000000000142e+01,1.008359758508014029e-02
5.564000000000000057e+01,7.670588085456213172e-03
5.567999999999999972e+01,7.543934321000863447e-03
5.571999999999999886e+01,9.271057779111958191e-03
5.575999999999999801e+01,8.896953875242001250e-03
5.579999999999999716e+01,6.915998326248225941e-03
5.584000000000000341e+01,7.097805126410811072e-03
5.588000000000000256e+01,8.453623225452046308e-03
5.592000000000000171e+01,6.101493809365090941e-03
5.596000000000000085e+01,6.962675252591844777e-03
5.600000000000000000e+01,8.997868378134014564e-03
5.603999999999999915e+01,8.746444190489064546e-03
5.607999999999999829e+01,7.382544841451081988e-03
5.611999999999999744e+01,9.417347708867665479e-03
5.615999999999999659e+01,9.474518389687025186e-03
5.620000000000000284e+01,1.064390444325249464e-02
5.624000000000000199e+01,6.004247750746691259e-03
5.628000000000000114e+01,1.051041000859228962e-02
5.632000000000000028e+01,8.033387752009348362e-03
5.635999999999999943e+01,7.780926454772739073e-03
5.639999999999999858e+01,8.455290323451629050e-03
5.643999999999999773e+01,1.166320015025445501e-02
5.647999999999999687e+01,9.123864946490211486e-03
5.652000000000000313e+01,9.056279007843779857e-03
5.656000000000000227e+01,9.606534003208789044e-03
5.660000000000000142e+01,9.106112447370738952e-03
5.664000000000000057e+01,8.172983954448058766e-03
5.667999999999999972e+01,9.464417443369765523e-03
5.671999999999999886e+01,7.171499870669665287e-03
5.675999999999999801e+01,1.037838281286140689e-02
5.679999999999999716e+01,1.000091494905586131e-02
5.684000000000000341e+01,9.685116376271972471e-03
5.688000000000000256e+01,1.122309873261002205e-02
5.692000000000000171e+01,8.002588642405737696e-03
5.696000000000000085e+01,8.242580401344066707e-03
5.700000000000000000e+01,8.358851116661221090e-03
5.703999999999999915e+01,7.795228378493849510e-03
5.707999999999999829e+01,1.137187430784268073e-02
5.711999999999999744e+01,7.903541330377489293e-03
5.715999999999999659e+01,8.946258967836778070e-03
5.720000000000000284e+01,9.494474508952426353e-03
5.724000000000000199e+01,8.621233852077374651e-03
5.728000000000000114e+01,7.191694405852609544e-03
5.732000000000000028e+01,8.666485421405138029e-03
5.735999999999999943e+01,7.607475547052576677e-03
5.739999999999999858e+01,8.216857417489434670e-03
5.743999999999999773e+01,8.764316598870542860e-03
5.747999999999999687e+01,1.011501049983688262e-02
5.752000000000000313e+01,7.943152844057208006e-03
5.756000000000000227e+01,9.602580646387713637e-03
5.760000000000000142e+01,6.936096815398640203e-03
5.764000000000000057e+01,5.876208547441899924e-03
5.767999999999999972e+01,6.670103764852245050e-03
5.771999999999999886e+01,7.154889393370163046e-03
5.775999999999999801e+01,7.454159458069156523e-03
5.779999999999999716e+01,8.309477470328958948e-03
5.784000000000000341e+01,7.434356458628820288e-03
5.788000000000000256e+01,1.026692803027567935e-02
5.792000000000000171e+01,9.267964580146002482e-03
5.796000000000000085e+01,8.701455691564888989e-03
5.800000000000000000e+01,1.085388859167761913e-02
5.803999999999999915e+01,9.360177699342423288e-03
5.807999999999999829e+01,1.145056613215430542e-02
5.811999999999999744e+01,1.001840492540401022e-02
5.815999999999999659e+01,7.782759946651151770e-03
5.820000000000000284e+01,1.036715364909454942e-02
5.824000000000000199e+01,7.266104893340811707e-03
5.828000000000000114e+01,6.760404923705454379e-03
5.832000000000000028e+01,8.911850816631388186e-03
5.835999999999999943e+01,9.518250193048576058e-03
5.839999999999999858e+01,7.776242848571216816e-03
5.843999999999999773e+01,1.091607190079427712e-02
5.847999999999999687e+01,1.059514941239611888e-02
5.852000000000000313e+01,8.605587021477017692e-03
5.856000000000000227e+01,7.913638390119048793e-03
5.860000000000000142e+01,7.963131108458912019e-03
5.864000000000000057e+01,9.495628687876277521e-03
5.867999999999999972e+01,9.606674670544216449e-03
5.871999999999999886e+01,1.027377154045488843e-02
5.875999999999999801e+01,1.044637129869995830e-02
5.879999999999999716e+01,9.568301535416087744e-03
5.884000000000000341e+01,8.875501351027997518e-03
5.888000000000000256e+01,7.688204438411084911e-03
5.892000000000000171e+01,7.922116332926861307e-03
5.896000000000000085e+01,9.391846316495745112e-03
5.900000000000000000e+01,8.142389804570217618e-03
5.903999999999999915e+01,8.128751637322290460e-03
5.907999999999999829e+01,9.350931942564222679e-03
5.911999999999999744e+01,9.646037646036557250e-03
5.915999999999999659e+01,1.055899259131703669e-02
5.920000000000000284e+01,7.331431861660098540e-03
5.924000000000000199e+01,9.418288725363082453e-03
5.928000000000000114e+01,1.181401047115787119e-02
5.932000000000000028e+01,9.698435233668294825e-03
5.935999999999999943e+01,9.313054952399358460e-03
5.939999999999999858e+01,1.003990026885711630e-02
5.943999999999999773e+01,8.480139136169623573e-03
5.947999999999999687e+01,9.083151983553890488e-03
5.952000000000000313e+01,8.017528123723660985e-03
5.956000000000000227e+01,8.620302910544727984e-03
5.960000000000000142e+01,7.863425988928912994e-03
5.964000000000000057e+01,1.081424727439943105e-02
5.967999999999999972e+01,1.098408728855327504e-02
5.971999999999999886e+01,1.016505766949072839e-02
5.975999999999999801e+01,1.181778766833885101e-02
5.979999999999999716e+01,1.025695813889276366e-02
5.984000000000000341e+01,7.892650205558890408e-03
5.988000000000000256e+01,1.096635580784231442e-02
5.992000000000000171e+01,9.096187703610859182e-03
5.996000000000000085e+01,9.450592061828867393e-03
