2.003999999999999915e+01,3.906790096967359405e-02
2.007999999999999829e+01,4.609682674886488724e-02
2.012000000000000099e+01,2.172242077057992896e-02
2.016000000000000014e+01,4.207969037518318606e-02
2.019999999999999929e+01,5.701441711370663218e-02
2.023999999999999844e+01,5.432692624488743433e-02
2.028000000000000114e+01,6.609784401978587021e-02
2.032000000000000028e+01,6.115022384328692995e-02
2.035999999999999943e+01,4.648758273100269539e-02
2.039999999999999858e+01,3.634287459525100544e-02
2.044000000000000128e+01,2.890874023378394234e-02
2.048000000000000043e+01,7.275795881827117062e-02
2.051999999999999957e+01,3.279042836345341660e-02
2.055999999999999872e+01,5.178752760119686993e-02
2.060000000000000142e+01,3.486289728416773481e-02
2.064000000000000057e+01,5.182578746810856396e-02
2.067999999999999972e+01,3.783718600761867834e-02
2.071999999999999886e+01,4.395499100761065397e-02
2.076000000000000156e+01,5.346112966638079389e-02
2.080000000000000071e+01,3.834153403112307290e-02
2.083999999999999986e+01,2.954723083778722920e-02
2.087999999999999901e+01,6.638828323413885346e-02
2.092000000000000171e+01,4.968585381542531265e-02
2.096000000000000085e+01,3.388663923188961480e-02
2.100000000000000000e+01,5.739702301920934779e-02
2.103999999999999915e+01,3.414152214791062873e-02
2.107999999999999829e+01,5.109929930341249038e-02
2.112000000000000099e+01,3.936478408591702338e-02
2.116000000000000014e+01,4.976995469731478744e-02
2.119999999999999929e+01,5.723770192408622615e-02
2.123999999999999844e+01,3.081699907413833206e-02
2.128000000000000114e+01,6.223132679635354908e-02
2.132000000000000028e+01,7.353831857005171946e-02
2.135999999999999943e+01,2.655751080643422787e-02
2.139999999999999858e+01,4.802996912280154546e-02
2.144000000000000128e+01,5.549492893803265048e-02
2.148000000000000043e+01,4.872647037103393364e-02
2.151999999999999957e+01,4.602410558852002009e-02
2.155999999999999872e+01,3.473632004318454036e-02
2.160000000000000142e+01,3.655142444707295407e-02
2.164000000000000057e+01,3.384766638639365166e-02
2.167999999999999972e+01,3.769512113115564694e-02
2.171999999999999886e+01,5.441954598790476466e-02
2.176000000000000156e+01,5.826607203405566315e-02
2.180000000000000071e+01,4.426446142505122833e-02
2.183999999999999986e+01,4.042878215755473653e-02
2.187999999999999901e+01,4.133695658096550596e-02
2.192000000000000171e+01,4.269650655979261716e-02
2.196000000000000085e+01,3.050039812859742239e-02
2.200000000000000000e+01,3.005166044777833959e-02
2.203999999999999915e+01,4.406133237552842946e-02
2.207999999999999829e+01,3.683406925629158918e-02
2.212000000000000099e+01,4.451705559552512209e-02
2.216000000000000014e+01,2.554102925909927657e-02
2.219999999999999929e+01,5.423363836319828463e-02
2.223999999999999844e+01,4.429347997532614295e-02
2.228000000000000114e+01,4.203413423693223155e-02
2.232000000000000028e+01,3.932248466115123575e-02
2.235999999999999943e+01,4.564716719683747925e-02
2.239999999999999858e+01,3.796435175767035736e-02
2.244000000000000128e+01,5.739146071559170920e-02
2.248000000000000043e+01,4.044500134333320340e-02
2.251999999999999957e+01,5.196398583015257588e-02
2.255999999999999872e+01,3.930907679383967290e-02
2.260000000000000142e+01,3.749785922474135197e-02
2.264000000000000057e+01,3.771945692692611762e-02
2.267999999999999972e+01,5.804746216408628035e-02
2.271999999999999886e+01,5.307197445071789449e-02
2.276000000000000156e+01,3.431490886287405506e-02
2.280000000000000071e+01,4.063448874227638952e-02
2.283999999999999986e+01,3.068737185781739152e-02
2.287999999999999901e+01,2.390266989132253106e-02
2.292000000000000171e+01,4.264645326390316404e-02
2.296000000000000085e+01,4.421986032631970709e-02
2.300000000000000000e+01,2.297489352494935105e-02
2.303999999999999915e+01,1.799569610453567725e-02
2.307999999999999829e+01,5.074465887410231635e-02
2.312000000000000099e+01,3.989061676763838715e-02
2.316000000000000014e+01,5.117626158649003776e-02
2.319999999999999929e+01,4.438785061466019033e-02
2.323999999999999844e+01,5.431704893947317259e-02
2.328000000000000114e+01,3.306883714218253334e-02
2.332000000000000028e+01,3.780095070929594125e-02
2.335999999999999943e+01,3.552908382152232536e-02
2.339999999999999858e+01,3.054571465820885706e-02
2.344000000000000128e+01,3.663195732562949530e-02
2.348000000000000043e+01,4.452509582180819159e-02
2.351999999999999957e+01,4.789937288405625437e-02
2.355999999999999872e+01,2.371095842605239548e-02
2.360000000000000142e+01,2.753614861315036369e-02
2.364000000000000057e+01,3.949399200133776877e-02
2.367999999999999972e+01,3.134450073478654147e-02
2.371999999999999886e+01,3.064990300411549878e-02
2.376000000000000156e+01,4.192859689169433496e-02
2.380000000000000071e+01,2.315948045734933514e-02
2.383999999999999986e+01,4.211852462962521748e-02
2.387999999999999901e+01,2.741504007548124788e-02
2.392000000000000171e+01,2.988100499680808667e-02
2.396000000000000085e+01,4.951641941553425186e-02
2.400000000000000000e+01,4.972225906401533252e-02
2.403999999999999915e+01,4.789435649687794061e-02
2.407999999999999829e+01,5.487686708110928180e-02
2.412000000000000099e+01,2.232293159191824083e-02
2.416000000000000014e+01,2.388243843642246997e-02
2.419999999999999929e+01,2.182676383186780630e-02
2.423999999999999844e+01,4.326629616282900298e-02
2.428000000000000114e+01,4.505033397402222195e-02
2.432000000000000028e+01,4.389695011100798461e-02
2.435999999999999943e+01,3.867654508060448110e-02
2.439999999999999858e+01,5.491806794623195487e-02
2.444000000000000128e+01,5.489289492513614588e-02
2.448000000000000043e+01,4.108614497248799097e-02
2.451999999999999957e+01,5.325972104209744651e-02
2.455999999999999872e+01,4.555188284241612484e-02
2.460000000000000142e+01,3.445478331598222921e-02
2.464000000000000057e+01,4.640105113830452627e-02
2.467999999999999972e+01,4.659902126591523169e-02
2.471999999999999886e+01,4.408548984162490719e-02
2.476000000000000156e+01,3.321245931181075056e-02
2.480000000000000071e+01,6.051942972094418588e-02
2.483999999999999986e+01,4.919363406345539369e-02
2.487999999999999901e+01,5.526320831074220397e-02
2.492000000000000171e+01,2.066673740806516252e-02
2.496000000000000085e+01,3.780546171337280381e-02
2.500000000000000000e+01,4.455140791752867230e-02
2.503999999999999915e+01,3.593433817597606328e-02
2.507999999999999829e+01,3.251296368565039646e-02
2.512000000000000099e+01,4.919799806793557356e-02
2.516000000000000014e+01,4.283873986754786062e-02
2.519999999999999929e+01,3.331614057235638554e-02
2.523999999999999844e+01,2.605227787681885579e-02
2.528000000000000114e+01,1.743243335451093515e-02
2.532000000000000028e+01,3.140411674769866962e-02
2.535999999999999943e+01,2.323518727994391964e-02
2.539999999999999858e+01,5.392401878912962687e-02
2.544000000000000128e+01,3.039161125209811909e-02
2.548000000000000043e+01,2.990257152432020463e-02
2.551999999999999957e+01,4.274234379777597237e-02
2.555999999999999872e+01,3.660438196224034130e-02
2.560000000000000142e+01,2.820675886327366280e-02
2.564000000000000057e+01,1.822723423187033037e-02
2.567999999999999972e+01,4.168339305837730213e-02
2.571999999999999886e+01,4.119157999712152324e-02
2.576000000000000156e+01,3.459946740877338500e-02
2.580000000000000071e+01,3.229937085427610904e-02
2.583999999999999986e+01,3.225801122835936924e-02
2.587999999999999901e+01,4.418994438290010235e-02
2.592000000000000171e+01,3.601454411069497652e-02
2.596000000000000085e+01,4.907515268670854108e-02
2.600000000000000000e+01,3.321755166197305764e-02
2.603999999999999915e+01,3.339980175980564875e-02
2.607999999999999829e+01,4.013326707520872838e-02
2.612000000000000099e+01,2.721123887955239490e-02
2.616000000000000014e+01,3.304010070851422926e-02
2.619999999999999929e+01,1.650243023400874837e-02
2.623999999999999844e+01,2.210444837330920523e-02
2.628000000000000114e+01,3.267624251866784596e-02
2.632000000000000028e+01,3.782549715299866888e-02
2.635999999999999943e+01,2.444885792295123372e-02
2.639999999999999858e+01,4.721894138179048850e-02
2.644000000000000128e+01,5.078537131104204211e-02
2.648000000000000043e+01,4.102206521120785321e-02
2.651999999999999957e+01,3.577669544295829923e-02
2.655999999999999872e+01,3.821214067053071289e-02
2.660000000000000142e+01,1.760329410485440491e-02
2.664000000000000057e+01,3.291525045661356647e-02
2.667999999999999972e+01,3.873810924030407499e-02
2.671999999999999886e+01,4.840114475615533290e-02
2.676000000000000156e+01,2.327205360932485881e-02
2.680000000000000071e+01,2.796392808604806351e-02
2.683999999999999986e+01,2.181118566428411065e-02
2.687999999999999901e+01,3.644261278904872836e-02
2.692000000000000171e+01,3.932574344709481584e-02
2.696000000000000085e+01,3.430121601172567841e-02
2.700000000000000000e+01,1.142855477189936957e-02
2.703999999999999915e+01,1.702133986906528146e-02
2.707999999999999829e+01,2.509878247761573866e-02
2.712000000000000099e+01,4.085704038898631957e-02
2.716000000000000014e+01,2.272685146904787970e-02
2.719999999999999929e+01,1.973283469551424460e-02
2.723999999999999844e+01,2.848619154498310477e-02
2.728000000000000114e+01,1.826181522838378826e-02
2.732000000000000028e+01,3.401776646903320600e-02
2.735999999999999943e+01,2.785902584818431699e-02
2.739999999999999858e+01,2.915518078063295340e-02
2.744000000000000128e+01,4.829854682732165339e-02
2.748000000000000043e+01,2.926098806070993874e-02
2.751999999999999957e+01,2.807064045219512249e-02
2.755999999999999872e+01,3.026863023029449651e-02
2.760000000000000142e+01,4.331031421666402259e-02
2.764000000000000057e+01,3.172626765877013116e-02
2.767999999999999972e+01,4.024863137690759540e-02
2.771999999999999886e+01,4.718909470288759622e-02
2.776000000000000156e+01,3.967022318638202538e-02
2.780000000000000071e+01,5.180592220564891187e-02
2.783999999999999986e+01,3.976773059633842422e-02
2.787999999999999901e+01,5.393578675429717278e-02
2.792000000000000171e+01,5.861474602396905126e-02
2.796000000000000085e+01,4.996397007590738792e-02
2.800000000000000000e+01,5.554568710073139182e-02
2.803999999999999915e+01,5.525302575140664252e-02
2.807999999999999829e+01,5.789686226772167155e-02
2.812000000000000099e+01,6.709191511995796220e-02
2.816000000000000014e+01,3.720236391958883088e-02
2.819999999999999929e+01,4.120033736466616192e-02
2.823999999999999844e+01,4.542376992683250236e-02
2.828000000000000114e+01,4.738754269477355591e-02
2.832000000000000028e+01,4.596205617530770005e-02
2.835999999999999943e+01,4.611754825684848819e-02
2.839999999999999858e+01,3.678394371324363032e-02
2.844000000000000128e+01,4.529755083209010408e-02
2.848000000000000043e+01,1.472655407375892712e-02
2.851999999999999957e+01,3.205011612366902990e-02
2.855999999999999872e+01,4.914729766005173500e-02
2.860000000000000142e+01,3.213011325152707182e-02
2.864000000000000057e+01,3.905997799669141957e-02
2.867999999999999972e+01,3.604890646416528815e-02
2.871999999999999886e+01,2.400057828796537882e-02
2.876000000000000156e+01,1.330730902903436846e-02
2.880000000000000071e+01,3.989036328980717638e-02
2.883999999999999986e+01,3.303681144630996047e-02
2.887999999999999901e+01,4.809702976087371074e-02
2.892000000000000171e+01,3.604639929964157524e-02
2.896000000000000085e+01,3.619498321037931815e-02
2.900000000000000000e+01,3.566534704275825529e-02
2.903999999999999915e+01,3.716852965497141614e-02
2.907999999999999829e+01,4.160821068103567888e-02
2.912000000000000099e+01,5.350278820332023816e-02
2.916000000000000014e+01,2.089068454868147143e-02
2.919999999999999929e+01,2.758818376022962107e-02
2.923999999999999844e+01,4.490345817609237705e-02
2.928000000000000114e+01,4.708163887368393280e-02
2.932000000000000028e+01,4.090032296559452385e-02
2.935999999999999943e+01,4.465902261853878924e-02
2.939999999999999858e+01,6.310205581790845342e-02
2.944000000000000128e+01,8.109278908315420420e-02
2.948000000000000043e+01,5.728788018316882669e-02
2.951999999999999957e+01,7.347033403386400707e-02
2.955999999999999872e+01,8.219697102253714638e-02
2.960000000000000142e+01,6.494235912330821592e-02
2.964000000000000057e+01,8.564183091334665043e-02
2.967999999999999972e+01,6.838629899917109123e-02
2.971999999999999886e+01,8.298501343652453510e-02
2.976000000000000156e+01,9.306486986078467416e-02
2.980000000000000071e+01,7.309691925238812060e-02
2.983999999999999986e+01,6.871698204371778917e-02
2.987999999999999901e+01,3.067451939789479429e-02
2.992000000000000171e+01,4.414133477616160456e-02
2.996000000000000085e+01,4.970049370564660896e-02
3.000000000000000000e+01,5.684063213520443303e-02
3.003999999999999915e+01,4.229200007549224066e-02
3.007999999999999829e+01,4.310546164405500147e-02
3.012000000000000099e+01,3.781862607572616247e-02
3.016000000000000014e+01,3.524236961029430376e-02
3.019999999999999929e+01,3.221381362737910092e-02
3.023999999999999844e+01,3.392911591841622776e-02
3.028000000000000114e+01,1.824812600917284991e-02
3.032000000000000028e+01,3.803610122873793409e-02
3.035999999999999943e+01,2.958362894682087588e-02
3.039999999999999858e+01,1.706413880870990760e-02
3.044000000000000128e+01,3.933585415612646935e-02
3.048000000000000043e+01,4.308167789779458051e-02
3.051999999999999957e+01,3.846800569163504740e-02
3.055999999999999872e+01,3.295019435930407470e-02
3.060000000000000142e+01,2.404312498948752916e-02
3.064000000000000057e+01,1.784663498570924350e-02
3.067999999999999972e+01,2.226792097566953829e-02
3.071999999999999886e+01,2.985162618156919287e-02
3.076000000000000156e+01,2.410559770472668617e-02
3.080000000000000071e+01,2.355526761487883314e-02
3.083999999999999986e+01,2.368223787351297557e-02
3.087999999999999901e+01,3.713802307179264045e-02
3.092000000000000171e+01,3.274567661460295320e-02
3.096000000000000085e+01,3.083798979585694253e-02
3.100000000000000000e+01,3.728888011605663300e-02
3.103999999999999915e+01,2.724715826470454350e-02
3.107999999999999829e+01,1.923825631153754101e-02
3.112000000000000099e+01,3.788744370788781068e-02
3.116000000000000014e+01,1.157811121769285190e-02
3.119999999999999929e+01,3.000046036263644134e-02
3.123999999999999844e+01,1.295292559181794416e-02
3.128000000000000114e+01,3.137435647609065903e-02
3.132000000000000028e+01,3.895117291786209801e-02
3.135999999999999943e+01,3.432785552092824238e-02
3.139999999999999858e+01,2.270056207672488738e-02
3.144000000000000128e+01,1.604304746734930634e-02
3.148000000000000043e+01,2.316618793259003772e-02
3.151999999999999957e+01,1.695959513172906954e-02
3.155999999999999872e+01,2.679285647956173785e-02
3.160000000000000142e+01,3.075174140487748481e-02
3.164000000000000057e+01,2.702889070542814978e-02
3.167999999999999972e+01,4.341245247485487485e-02
3.171999999999999886e+01,3.110372768232250174e-02
3.176000000000000156e+01,2.082782316075873150e-02
3.180000000000000071e+01,3.156201078594454007e-02
3.183999999999999986e+01,1.450759152704482122e-02
3.187999999999999901e+01,3.088885912496443925e-02
3.192000000000000171e+01,1.677048104639082549e-02
3.196000000000000085e+01,3.992842821986842400e-02
3.200000000000000000e+01,1.699825645218789802e-02
3.203999999999999915e+01,1.055977890238659657e-02
3.207999999999999829e+01,3.168307084047348315e-02
3.211999999999999744e+01,2.456591624192986864e-02
3.215999999999999659e+01,1.993342193968345583e-02
3.220000000000000284e+01,2.840382339769916345e-02
3.224000000000000199e+01,2.964432936592063111e-02
3.228000000000000114e+01,3.065845685996006556e-02
3.232000000000000028e+01,4.793835882235572554e-02
3.235999999999999943e+01,1.303030465935386267e-02
3.239999999999999858e+01,2.262801288632178623e-02
3.243999999999999773e+01,3.132158301775526954e-02
3.247999999999999687e+01,2.984829905167855901e-02
3.252000000000000313e+01,2.927823625810061989e-02
3.256000000000000227e+01,2.328563737433247266e-02
3.260000000000000142e+01,1.706666019180979807e-02
3.264000000000000057e+01,2.779121736213708421e-02
3.267999999999999972e+01,2.134540355091267896e-02
3.271999999999999886e+01,1.986936927622636254e-02
3.275999999999999801e+01,1.681143737236691707e-02
3.279999999999999716e+01,2.888968068489488478e-02
3.284000000000000341e+01,3.215658951540089489e-02
3.288000000000000256e+01,4.242655709735712599e-02
3.292000000000000171e+01,2.423015867822979688e-02
3.296000000000000085e+01,3.156225110221802521e-02
3.300000000000000000e+01,3.821612564069205159e-02
3.303999999999999915e+01,2.544043036474997327e-02
3.307999999999999829e+01,2.712315074962805272e-02
3.311999999999999744e+01,4.168284749610055850e-02
3.315999999999999659e+01,3.139089682141293219e-02
3.320000000000000284e+01,5.204951479394085562e-02
3.324000000000000199e+01,3.159025237157771920e-02
3.328000000000000114e+01,2.943004407105192718e-02
3.332000000000000028e+01,2.003994087280005706e-02
3.335999999999999943e+01,1.629737727100745784e-02
3.339999999999999858e+01,2.407627076617605000e-02
3.343999999999999773e+01,0.000000000000000000e+00
3.347999999999999687e+01,2.517381017932490347e-02
3.352000000000000313e+01,2.956253138924265847e-02
3.356000000000000227e+01,2.152520006349764245e-02
3.360000000000000142e+01,2.297604681715760197e-02
3.364000000000000057e+01,2.442643574522470121e-02
3.367999999999999972e+01,2.226164842127445476e-02
3.371999999999999886e+01,2.597032079416157838e-02
3.375999999999999801e+01,3.013037521328530699e-02
3.379999999999999716e+01,2.209029713133905948e-02
3.384000000000000341e+01,3.054191425405203622e-02
3.388000000000000256e+01,1.143084551405227495e-02
3.392000000000000171e+01,2.055930697971541585e-02
3.396000000000000085e+01,3.013915060125730433e-02
3.400000000000000000e+01,2.706702202532735441e-02
3.403999999999999915e+01,3.235347225490504269e-02
3.407999999999999829e+01,2.046955227042660322e-02
3.411999999999999744e+01,2.168852909877574606e-02
3.415999999999999659e+01,1.748497071407253620e-02
3.420000000000000284e+01,2.638430918605369491e-02
3.424000000000000199e+01,3.144255180999384197e-02
3.428000000000000114e+01,2.317106268089509299e-02
3.432000000000000028e+01,2.483959183195732015e-02
3.435999999999999943e+01,2.379662471587408457e-02
3.439999999999999858e+01,2.523831912408101147e-02
3.443999999999999773e+01,2.306483769691115501e-02
3.447999999999999687e+01,2.812033580135145372e-02
3.452000000000000313e+01,3.611233530191133162e-02
3.456000000000000227e+01,4.365203767518847228e-02
3.460000000000000142e+01,2.927705215601634353e-02
3.464000000000000057e+01,2.077552683803581685e-02
3.467999999999999972e+01,3.554329427587347295e-02
3.471999999999999886e+01,3.246293214144407163e-02
3.475999999999999801e+01,3.932258852838865781e-02
3.479999999999999716e+01,2.878595519296717198e-02
3.484000000000000341e+01,2.705974090766626386e-02
3.488000000000000256e+01,2.714042870073066563e-02
3.492000000000000171e+01,2.699473946689043627e-02
3.496000000000000085e+01,2.142651545856678538e-02
3.500000000000000000e+01,3.664246544824630025e-02
3.503999999999999915e+01,3.084740739877756335e-02
3.507999999999999829e+01,2.731109134336053360e-02
3.511999999999999744e+01,3.077783526738678624e-02
3.515999999999999659e+01,3.785884064745395627e-02
3.520000000000000284e+01,3.048051526372622111e-02
3.524000000000000199e+01,3.643100720984458057e-02
3.528000000000000114e+01,5.412887718658308811e-02
3.532000000000000028e+01,5.330085821091509052e-02
3.535999999999999943e+01,5.631302070395233922e-02
3.539999999999999858e+01,5.571000788789540192e-02
3.543999999999999773e+01,6.188413532368731290e-02
3.547999999999999687e+01,7.799828167556514813e-02
3.552000000000000313e+01,8.914173336600189623e-02
3.556000000000000227e+01,9.712184964110243124e-02
3.560000000000000142e+01,1.173011839282948332e-01
3.564000000000000057e+01,1.146621512810892390e-01
3.567999999999999972e+01,1.348405721318688411e-01
3.571999999999999886e+01,1.181935921047401611e-01
3.575999999999999801e+01,1.444709369884163430e-01
3.579999999999999716e+01,1.316636820078204151e-01
3.584000000000000341e+01,1.441589995461661777e-01
3.588000000000000256e+01,1.399357876632800479e-01
3.592000000000000171e+01,1.214791653143331568e-01
3.596000000000000085e+01,1.143180815627458796e-01
3.600000000000000000e+01,1.155155776911599708e-01
3.603999999999999915e+01,1.094831804129822311e-01
3.607999999999999829e+01,9.599496984711909653e-02
3.611999999999999744e+01,8.566918145753540936e-02
3.615999999999999659e+01,7.466517691478484486e-02
3.620000000000000284e+01,8.534902663997906425e-02
3.624000000000000199e+01,1.012285777344365811e-01
3.628000000000000114e+01,6.085361659808734974e-02
3.632000000000000028e+01,6.588809961278388472e-02
3.635999999999999943e+01,5.488181317845607782e-02
3.639999999999999858e+01,7.505201704864150614e-02
3.643999999999999773e+01,7.647041267739483617e-02
3.647999999999999687e+01,6.591459717730613344e-02
3.652000000000000313e+01,5.513240552745061335e-02
3.656000000000000227e+01,5.451615328877115058e-02
3.660000000000000142e+01,7.310263660407831376e-02
3.664000000000000057e+01,5.960803750929447725e-02
3.667999999999999972e+01,5.221281963707515017e-02
3.671999999999999886e+01,5.001330339726047652e-02
3.675999999999999801e+01,8.825299368321928850e-02
3.679999999999999716e+01,5.284233949074296915e-02
3.684000000000000341e+01,5.538577293465451329e-02
3.688000000000000256e+01,6.289898819566241972e-02
3.692000000000000171e+01,7.154134694432030817e-02
3.696000000000000085e+01,7.521301182096112870e-02
3.700000000000000000e+01,6.058470856921226860e-02
3.703999999999999915e+01,5.928522363408949419e-02
3.707999999999999829e+01,6.363328033477155810e-02
3.711999999999999744e+01,7.905095636571617124e-02
3.715999999999999659e+01,1.012457735914326917e-01
3.720000000000000284e+01,6.808975870278503872e-02
3.724000000000000199e+01,5.549199913711148902e-02
3.728000000000000114e+01,7.407073035837694053e-02
3.732000000000000028e+01,7.977157129920955936e-02
3.735999999999999943e+01,9.654203170187533600e-02
3.739999999999999858e+01,9.636804361356822446e-02
3.743999999999999773e+01,9.144928181940742418e-02
3.747999999999999687e+01,9.714829974682105684e-02
3.752000000000000313e+01,1.075911799391642415e-01
3.756000000000000227e+01,1.110300874612185767e-01
3.760000000000000142e+01,1.212461364192577856e-01
3.764000000000000057e+01,1.174546957571814126e-01
3.767999999999999972e+01,1.473248650345710953e-01
3.771999999999999886e+01,1.609283457054815625e-01
3.775999999999999801e+01,1.880865649907523807e-01
3.779999999999999716e+01,1.813563432776806317e-01
3.784000000000000341e+01,1.938288577983773853e-01
3.788000000000000256e+01,2.187265114841094593e-01
3.792000000000000171e+01,2.463347485268569392e-01
3.796000000000000085e+01,2.757498893364602188e-01
3.800000000000000000e+01,3.297898441400750613e-01
3.803999999999999915e+01,3.447452003074108484e-01
3.807999999999999829e+01,4.008175234332249093e-01
3.811999999999999744e+01,4.553079518682776605e-01
3.815999999999999659e+01,4.987278497075714467e-01
3.820000000000000284e+01,5.803277558318421514e-01
3.824000000000000199e+01,6.187765051750788725e-01
3.828000000000000114e+01,6.999236609075908389e-01
3.832000000000000028e+01,7.343049414545729237e-01
3.835999999999999943e+01,8.093513493074884213e-01
3.839999999999999858e+01,8.710680276659950039e-01
3.843999999999999773e+01,9.302991318970793566e-01
3.847999999999999687e+01,9.899816207619573927e-01
3.852000000000000313e+01,9.965724772663298037e-01
3.856000000000000227e+01,1.000000000000000000e+00
3.860000000000000142e+01,9.437842132293821074e-01
3.864000000000000057e+01,9.153561194459398642e-01
3.867999999999999972e+01,8.173442404690964835e-01
3.871999999999999886e+01,7.595456491894982953e-01
3.875999999999999801e+01,6.432333480084363453e-01
3.879999999999999716e+01,5.994408807006305073e-01
3.884000000000000341e+01,5.402854050124300533e-01
3.888000000000000256e+01,4.942328287465422298e-01
3.892000000000000171e+01,4.350764431743371352e-01
3.896000000000000085e+01,3.960264740619853785e-01
3.900000000000000000e+01,3.653350864742684889e-01
3.903999999999999915e+01,3.411949212089384620e-01
3.907999999999999829e+01,3.353538132450705200e-01
3.911999999999999744e+01,3.080498596727117011e-01
3.915999999999999659e+01,2.852638493613266490e-01
3.920000000000000284e+01,2.880063333138947468e-01
3.924000000000000199e+01,2.846485251292569796e-01
3.928000000000000114e+01,3.187929661125980529e-01
3.932000000000000028e+01,3.000716950770250802e-01
3.935999999999999943e+01,3.342152266587875564e-01
3.939999999999999858e+01,3.407960754039627282e-01
3.943999999999999773e+01,3.638686224237797084e-01
3.947999999999999687e+01,3.880703143346672102e-01
3.952000000000000313e+01,4.414152191332882391e-01
3.956000000000000227e+01,4.536422470017126840e-01
3.960000000000000142e+01,4.674502596330370463e-01
3.964000000000000057e+01,4.426255143112643453e-01
3.967999999999999972e+01,4.693100523641222654e-01
3.971999999999999886e+01,4.490027960959240283e-01
3.975999999999999801e+01,4.207878887514132082e-01
3.979999999999999716e+01,3.839875706434521807e-01
3.984000000000000341e+01,3.663899898656819976e-01
3.988000000000000256e+01,3.637026682826119961e-01
3.992000000000000171e+01,3.291601859906057026e-01
3.996000000000000085e+01,3.158537202217739370e-01
4.000000000000000000e+01,3.059355986593029764e-01
4.003999999999999915e+01,2.820099887924231163e-01
4.007999999999999829e+01,3.021383057197307709e-01
4.011999999999999744e+01,2.820524256359281390e-01
4.015999999999999659e+01,2.732620864519721415e-01
4.020000000000000284e+01,2.599528949782473064e-01
4.024000000000000199e+01,2.601984434784463951e-01
4.028000000000000114e+01,2.516326615753144980e-01
4.032000000000000028e+01,2.268001924910523770e-01
4.035999999999999943e+01,2.152965435434774644e-01
4.039999999999999858e+01,2.157661953363859131e-01
4.043999999999999773e+01,2.148798736134049925e-01
4.047999999999999687e+01,1.936603065426105719e-01
4.052000000000000313e+01,1.981951543624300704e-01
4.056000000000000227e+01,2.095071452409395518e-01
4.060000000000000142e+01,2.219482816245159917e-01
4.064000000000000057e+01,2.095377746875517200e-01
4.067999999999999972e+01,2.409552749706794228e-01
4.071999999999999886e+01,2.450360130438807016e-01
4.075999999999999801e+01,2.967853967324057263e-01
4.079999999999999716e+01,3.440159284600888268e-01
4.084000000000000341e+01,3.618764189164322409e-01
4.088000000000000256e+01,4.122689215514072081e-01
4.092000000000000171e+01,4.461688174311564947e-01
4.096000000000000085e+01,5.040157692185563976e-01
4.100000000000000000e+01,5.548587502215137635e-01
4.103999999999999915e+01,5.618728162693622519e-01
4.107999999999999829e+01,5.912524989694922795e-01
4.111999999999999744e+01,6.201798881386045847e-01
4.115999999999999659e+01,6.192853964057607463e-01
4.120000000000000284e+01,6.389491621668074162e-01
4.124000000000000199e+01,6.238208092032696550e-01
4.128000000000000114e+01,5.885851312335093066e-01
4.132000000000000028e+01,5.544785991635281519e-01
4.135999999999999943e+01,5.359600868086658032e-01
4.139999999999999858e+01,5.156337616581527783e-01
4.143999999999999773e+01,4.241422135061469478e-01
4.147999999999999687e+01,4.015557822482498374e-01
4.152000000000000313e+01,3.342367566862973205e-01
4.156000000000000227e+01,3.109716587298845258e-01
4.160000000000000142e+01,2.526885223432213667e-01
4.164000000000000057e+01,2.269373985518303438e-01
4.167999999999999972e+01,1.826603892946555563e-01
4.171999999999999886e+01,1.510344412106689460e-01
4.175999999999999801e+01,1.248301174250934231e-01
4.179999999999999716e+01,1.151174932079378349e-01
4.184000000000000341e+01,1.230261680962409648e-01
4.188000000000000256e+01,1.033721615075205991e-01
4.192000000000000171e+01,8.688058027470445255e-02
4.196000000000000085e+01,7.806982248016196280e-02
4.200000000000000000e+01,8.371748523648324392e-02
4.203999999999999915e+01,7.693910010597239391e-02
4.207999999999999829e+01,7.016026177677077424e-02
4.211999999999999744e+01,7.490288532493151463e-02
4.215999999999999659e+01,7.151193920946447014e-02
4.220000000000000284e+01,7.196117831246690022e-02
4.224000000000000199e+01,6.179172886245590246e-02
4.228000000000000114e+01,5.839942341405790494e-02
4.232000000000000028e+01,5.500666489853980878e-02
4.235999999999999943e+01,4.235073731392591245e-02
4.239999999999999858e+01,5.996762371100399641e-02
4.243999999999999773e+01,5.431430709547574454e-02
4.247999999999999687e+01,4.369029963405603872e-02
4.252000000000000313e+01,4.978391203879040799e-02
4.256000000000000227e+01,5.384379238077693225e-02
4.260000000000000142e+01,4.909234359128242936e-02
4.264000000000000057e+01,5.360315793399950818e-02
4.267999999999999972e+01,5.043224270420273991e-02
4.271999999999999886e+01,4.206471685706310304e-02
4.275999999999999801e+01,4.747785226836147981e-02
4.279999999999999716e+01,4.950173633035041126e-02
4.284000000000000341e+01,3.932549284709814519e-02
4.288000000000000256e+01,4.744830874851031777e-02
4.292000000000000171e+01,4.698571559689114496e-02
4.296000000000000085e+01,4.923370856527151812e-02
4.300000000000000000e+01,4.944796971211701253e-02
4.303999999999999915e+01,4.740257915633391828e-02
4.307999999999999829e+01,5.507129178001936992e-02
4.311999999999999744e+01,5.347683575124958372e-02
4.315999999999999659e+01,4.623392954030573765e-02
4.320000000000000284e+01,5.051248579879231287e-02
4.324000000000000199e+01,5.659794871868946420e-02
4.328000000000000114e+01,5.409800278291113790e-02
4.332000000000000028e+01,7.125263589114262663e-02
4.335999999999999943e+01,6.378154707298980264e-02
4.339999999999999858e+01,5.721368539187305507e-02
4.343999999999999773e+01,6.374872563291190952e-02
4.347999999999999687e+01,6.463531586720419608e-02
4.352000000000000313e+01,6.326225466200927072e-02
4.356000000000000227e+01,6.392202019667449220e-02
4.360000000000000142e+01,5.577045714806990601e-02
4.364000000000000057e+01,6.185139564637326393e-02
4.367999999999999972e+01,6.589860269592520692e-02
4.371999999999999886e+01,7.401191570024968913e-02
4.375999999999999801e+01,8.551357497220887782e-02
4.379999999999999716e+01,9.769254169746666161e-02
4.384000000000000341e+01,8.524578675948150941e-02
4.388000000000000256e+01,9.087217185134989494e-02
4.392000000000000171e+01,1.039534615529637690e-01
4.396000000000000085e+01,1.177120587955900743e-01
4.400000000000000000e+01,1.316961237951130015e-01
4.403999999999999915e+01,1.533610133731888314e-01
4.407999999999999829e+01,1.578555382193202183e-01
4.411999999999999744e+01,1.693531279787952037e-01
4.415999999999999659e+01,1.822057850979909299e-01
4.420000000000000284e+01,1.993504683381225606e-01
4.424000000000000199e+01,2.277906947148021222e-01
4.428000000000000114e+01,2.912480540672737761e-01
4.432000000000000028e+01,3.095209808446369726e-01
4.435999999999999943e+01,3.799809532713251947e-01
4.439999999999999858e+01,3.828904227675783423e-01
4.443999999999999773e+01,4.038730326006835791e-01
4.447999999999999687e+01,4.603246153252670836e-01
4.452000000000000313e+01,4.618772097544360800e-01
4.456000000000000227e+01,4.593627940900810169e-01
4.460000000000000142e+01,4.803435965228207150e-01
4.464000000000000057e+01,4.717284398644012167e-01
4.467999999999999972e+01,4.558833945359344053e-01
4.471999999999999886e+01,4.637594872733696860e-01
4.475999999999999801e+01,4.427173806944973977e-01
4.479999999999999716e+01,4.191897034748260364e-01
4.484000000000000341e+01,3.703585454310567293e-01
4.488000000000000256e+01,3.651294770068440609e-01
4.492000000000000171e+01,3.212676535240892584e-01
4.496000000000000085e+01,2.968344900813883469e-01
4.500000000000000000e+01,2.620085595017588309e-01
4.503999999999999915e+01,2.861472720348994803e-01
4.507999999999999829e+01,2.551610766766017058e-01
4.511999999999999744e+01,2.151376336652930932e-01
4.515999999999999659e+01,1.949946906097246302e-01
4.520000000000000284e+01,1.847917717988546149e-01
4.524000000000000199e+01,1.576444087949870065e-01
4.528000000000000114e+01,1.451813880431377934e-01
4.532000000000000028e+01,1.327179158688019667e-01
4.535999999999999943e+01,1.277093490936357101e-01
4.539999999999999858e+01,1.190856124914868586e-01
4.543999999999999773e+01,1.213055798776952188e-01
4.547999999999999687e+01,1.192326177717117353e-01
4.552000000000000313e+01,1.029262504624945257e-01
4.556000000000000227e+01,9.046007021373618506e-02
4.560000000000000142e+01,9.335599210149006510e-02
4.564000000000000057e+01,7.682235108228814557e-02
4.567999999999999972e+01,6.729177583163942211e-02
4.571999999999999886e+01,8.125641929208193837e-02
4.575999999999999801e+01,7.466190039624392982e-02
4.579999999999999716e+01,6.942244975919295569e-02
4.584000000000000341e+01,6.169742905148253853e-02
4.588000000000000256e+01,5.668299606454840767e-02
4.592000000000000171e+01,4.940891295383374737e-02
4.596000000000000085e+01,6.314492975253853391e-02
4.600000000000000000e+01,7.100657802296697629e-02
4.603999999999999915e+01,4.407611020022451920e-02
4.607999999999999829e+01,5.103317682494389745e-02
4.611999999999999744e+01,5.708611285365736837e-02
4.615999999999999659e+01,5.884611976296252184e-02
4.620000000000000284e+01,5.631319757478792098e-02
4.624000000000000199e+01,6.281662058936297865e-02
4.628000000000000114e+01,5.373111939921249719e-02
4.632000000000000028e+01,5.865220132215378385e-02
4.635999999999999943e+01,4.414372073285148523e-02
4.639999999999999858e+01,3.844566553099063727e-02
4.643999999999999773e+01,5.172443137449215383e-02
4.647999999999999687e+01,4.647731438362354833e-02
4.652000000000000313e+01,5.139614226411418074e-02
4.656000000000000227e+01,4.953692231123831696e-02
4.660000000000000142e+01,4.858093124967434451e-02
4.664000000000000057e+01,3.226193608376278638e-02
4.667999999999999972e+01,3.356424267665197858e-02
4.671999999999999886e+01,3.034770055410906595e-02
4.675999999999999801e+01,3.345646508312100781e-02
4.679999999999999716e+01,3.724253871006504707e-02
4.684000000000000341e+01,3.583200397829611888e-02
4.688000000000000256e+01,3.419509877622792932e-02
4.692000000000000171e+01,2.713566535628169143e-02
4.696000000000000085e+01,2.979033724286333368e-02
4.700000000000000000e+01,2.792616056751202891e-02
4.703999999999999915e+01,3.555016933952356850e-02
4.707999999999999829e+01,2.600381502422399391e-02
4.711999999999999744e+01,2.820484523036458774e-02
4.715999999999999659e+01,3.921630124058719108e-02
4.720000000000000284e+01,3.147595490812966912e-02
4.724000000000000199e+01,4.045323102938289811e-02
4.728000000000000114e+01,3.790814174851864921e-02
4.732000000000000028e+01,3.197380359625924540e-02
4.735999999999999943e+01,3.507581126074603428e-02
4.739999999999999858e+01,3.704776912791515886e-02
4.743999999999999773e+01,4.308583498920228599e-02
4.747999999999999687e+01,3.398681710966119235e-02
4.752000000000000313e+01,5.290141698843272428e-02
4.756000000000000227e+01,3.566838218918198106e-02
4.760000000000000142e+01,4.599712538605654072e-02
4.764000000000000057e+01,5.090334075976509637e-02
4.767999999999999972e+01,5.490542639267707165e-02
4.771999999999999886e+01,5.913298182183125001e-02
4.775999999999999801e+01,5.567881046338418044e-02
4.779999999999999716e+01,5.854994632663164389e-02
4.784000000000000341e+01,7.813870497251648728e-02
4.788000000000000256e+01,7.332766407295351896e-02
4.792000000000000171e+01,1.035337581446711397e-01
4.796000000000000085e+01,8.358518377028376078e-02
4.800000000000000000e+01,1.040758220835631548e-01
4.803999999999999915e+01,1.103330565751009240e-01
4.807999999999999829e+01,1.181712804783691395e-01
4.811999999999999744e+01,1.072577025433115311e-01
4.815999999999999659e+01,1.220985436872010499e-01
4.820000000000000284e+01,1.159283840064011112e-01
4.824000000000000199e+01,1.068208157646043793e-01
4.828000000000000114e+01,1.020052758804450566e-01
4.832000000000000028e+01,9.447824738216785423e-02
4.835999999999999943e+01,9.621348515187011508e-02
4.839999999999999858e+01,7.874508143070160782e-02
4.843999999999999773e+01,8.093125956038385582e-02
4.847999999999999687e+01,7.159507294580200187e-02
4.852000000000000313e+01,6.496947549927381549e-02
4.856000000000000227e+01,5.179175121882359512e-02
4.860000000000000142e+01,4.109869624726188858e-02
4.864000000000000057e+01,4.328262614553161219e-02
4.867999999999999972e+01,4.501426665726004916e-02
4.871999999999999886e+01,3.816050129558173909e-02
4.875999999999999801e+01,3.017668688215294215e-02
4.879999999999999716e+01,2.625898120840921418e-02
4.884000000000000341e+01,3.205538187183043508e-02
4.888000000000000256e+01,1.955182091961037497e-02
4.892000000000000171e+01,1.789196586352237092e-02
4.896000000000000085e+01,2.165373905296563012e-02
4.900000000000000000e+01,3.558145847333167577e-02
4.903999999999999915e+01,2.510937898417481967e-02
4.907999999999999829e+01,3.881027975716495881e-02
4.911999999999999744e+01,3.217793991888600463e-02
4.915999999999999659e+01,2.825618959951593442e-02
4.920000000000000284e+01,3.065974726933593311e-02
4.924000000000000199e+01,1.882990177526768991e-02
4.928000000000000114e+01,3.004343713787839196e-02
4.932000000000000028e+01,3.041236792578852141e-02
4.935999999999999943e+01,3.100676940900711637e-02
4.939999999999999858e+01,2.866376296715382813e-02
4.943999999999999773e+01,2.519070784633362786e-02
4.947999999999999687e+01,2.420232251682773519e-02
4.952000000000000313e+01,2.208388855221182084e-02
4.956000000000000227e+01,2.809812199831847324e-02
4.960000000000000142e+01,2.688246947157646449e-02
4.964000000000000057e+01,1.911469070298050035e-02
4.967999999999999972e+01,3.280885368919354839e-02
4.971999999999999886e+01,2.978449484141711470e-02
4.975999999999999801e+01,2.879296613240999239e-02
4.979999999999999716e+01,2.531586952365963428e-02
4.984000000000000341e+01,1.912728513407237554e-02
4.988000000000000256e+01,2.807488532431892322e-02
4.992000000000000171e+01,2.888892010505621916e-02
4.996000000000000085e+01,2.269898901332298088e-02
5.000000000000000000e+01,1.334573042242251373e-02
5.003999999999999915e+01,1.890273659604759654e-02
5.007999999999999829e+01,2.468521385969314405e-02
5.011999999999999744e+01,1.058629086632492146e-02
5.015999999999999659e+01,1.523827105464247052e-02
5.020000000000000284e+01,1.627508404739087811e-02
5.024000000000000199e+01,2.273352598738085512e-02
5.028000000000000114e+01,1.631408475175445336e-02
5.032000000000000028e+01,2.616042785228503073e-02
5.035999999999999943e+01,1.070329315484317215e-02
5.039999999999999858e+01,1.331930206159158588e-02
5.043999999999999773e+01,1.796814147989296215e-02
5.047999999999999687e+01,1.583893521381567540e-02
5.052000000000000313e+01,1.935727795150102293e-02
5.056000000000000227e+01,1.044957747311325499e-02
5.060000000000000142e+01,2.390749886597699769e-02
5.064000000000000057e+01,2.019505912316139212e-02
5.067999999999999972e+01,2.167832866577813419e-02
5.071999999999999886e+01,2.270930994020438007e-02
5.075999999999999801e+01,2.283616316232439311e-02
5.079999999999999716e+01,3.154752428099289602e-02
5.084000000000000341e+01,2.692916272499924768e-02
5.088000000000000256e+01,2.298811250363907294e-02
5.092000000000000171e+01,3.350548772318610868e-02
5.096000000000000085e+01,3.114498013990042030e-02
5.100000000000000000e+01,3.352834221143052157e-02
5.103999999999999915e+01,2.755221958442580221e-02
5.107999999999999829e+01,3.467900306790977494e-02
5.111999999999999744e+01,3.525366112089221848e-02
5.115999999999999659e+01,4.576834668591156507e-02
5.120000000000000284e+01,2.826851607719117754e-02
5.124000000000000199e+01,4.465622274470216341e-02
5.128000000000000114e+01,3.845149095485969615e-02
5.132000000000000028e+01,3.789430860734875617e-02
5.135999999999999943e+01,5.247331165102420147e-02
5.139999999999999858e+01,3.790819911549186266e-02
5.143999999999999773e+01,4.051255114220117526e-02
5.147999999999999687e+01,2.639838229977266998e-02
5.152000000000000313e+01,3.645719505712631536e-02
5.156000000000000227e+01,2.573092873480201104e-02
5.160000000000000142e+01,2.630020958385981961e-02
5.164000000000000057e+01,2.709496237814745107e-02
5.167999999999999972e+01,2.811518713959342691e-02
5.171999999999999886e+01,2.213144699342054975e-02
5.175999999999999801e+01,2.992837303958607170e-02
5.179999999999999716e+01,1.716614004066634169e-02
5.184000000000000341e+01,2.518809027162565925e-02
5.188000000000000256e+01,2.846527471290028616e-02
5.192000000000000171e+01,1.886457687762486263e-02
5.196000000000000085e+01,3.027398224103582114e-02
5.200000000000000000e+01,2.767590585664335065e-02
5.203999999999999915e+01,2.575514144280930534e-02
5.207999999999999829e+01,1.863777154288875221e-02
5.211999999999999744e+01,2.146042968128781050e-02
5.215999999999999659e+01,3.083431733460404237e-02
5.220000000000000284e+01,2.326376461047231781e-02
5.224000000000000199e+01,3.150715746901892184e-02
5.228000000000000114e+01,4.110562213876080284e-02
5.232000000000000028e+01,2.901532853337695714e-02
5.235999999999999943e+01,2.867242232205976030e-02
5.239999999999999858e+01,1.997003215777493762e-02
5.243999999999999773e+01,3.047038623114139977e-02
5.247999999999999687e+01,2.831877823797805324e-02
5.252000000000000313e+01,2.526304315736018283e-02
5.256000000000000227e+01,1.746254265984126600e-02
5.260000000000000142e+01,2.615374765142279567e-02
5.264000000000000057e+01,1.699683289468113118e-02
5.267999999999999972e+01,1.484298774397052080e-02
5.271999999999999886e+01,1.291461513055787436e-02
5.275999999999999801e+01,2.341138983956245201e-02
5.279999999999999716e+01,2.554868081488394574e-02
5.284000000000000341e+01,1.480809001800952214e-02
5.288000000000000256e+01,2.824048156648449603e-02
5.292000000000000171e+01,3.557258847728217432e-02
5.296000000000000085e+01,3.409337193606628430e-02
5.300000000000000000e+01,2.063995332245654665e-02
5.303999999999999915e+01,3.271503656004237648e-02
5.307999999999999829e+01,3.123447844793687464e-02
5.311999999999999744e+01,2.772019406219320900e-02
5.315999999999999659e+01,2.465730235798249334e-02
5.320000000000000284e+01,2.611236161163003541e-02
5.324000000000000199e+01,2.575961456044683143e-02
5.328000000000000114e+01,1.953250297196443275e-02
5.332000000000000028e+01,2.844157784916216680e-02
5.335999999999999943e+01,3.237996784500571379e-02
5.339999999999999858e+01,2.954031375724710390e-02
5.343999999999999773e+01,3.370372969216012954e-02
5.347999999999999687e+01,3.718893896892332129e-02
5.352000000000000313e+01,4.496617947595033665e-02
5.356000000000000227e+01,2.902138326043500818e-02
5.360000000000000142e+01,3.883100910613546813e-02
5.364000000000000057e+01,2.604819778826068799e-02
5.367999999999999972e+01,2.388317507298101661e-02
5.371999999999999886e+01,3.233594098222494773e-02
5.375999999999999801e+01,2.678122610851703042e-02
5.379999999999999716e+01,2.100014455813098077e-02
5.384000000000000341e+01,3.577732743102417234e-02
5.388000000000000256e+01,3.428783055653031320e-02
5.392000000000000171e+01,4.251244280411404369e-02
5.396000000000000085e+01,2.588541903332961663e-02
5.400000000000000000e+01,2.213538307078836281e-02
5.403999999999999915e+01,2.674393687797767954e-02
5.407999999999999829e+01,2.344484745923822167e-02
5.411999999999999744e+01,3.031170707826265007e-02
5.415999999999999659e+01,3.107828273939157102e-02
5.420000000000000284e+01,3.071481233103858302e-02
5.424000000000000199e+01,2.379921820260299734e-02
5.428000000000000114e+01,3.314941058124044188e-02
5.432000000000000028e+01,2.826620258090225754e-02
5.435999999999999943e+01,2.948238549550172630e-02
5.439999999999999858e+01,3.340916080163639640e-02
5.443999999999999773e+01,3.620589016985989450e-02
5.447999999999999687e+01,2.928761730726258533e-02
5.452000000000000313e+01,2.417625728989774084e-02
5.456000000000000227e+01,3.555660383612711112e-02
5.460000000000000142e+01,2.118163510275527378e-02
5.464000000000000057e+01,3.459436812793732774e-02
5.467999999999999972e+01,2.699610388083812859e-02
5.471999999999999886e+01,4.447450259988506432e-02
5.475999999999999801e+01,3.009774874544914047e-02
5.479999999999999716e+01,3.673109964661917110e-02
5.484000000000000341e+01,4.426768395636098558e-02
5.488000000000000256e+01,3.644126867901515548e-02
5.492000000000000171e+01,3.200320578734053983e-02
5.496000000000000085e+01,2.869429627304503211e-02
5.500000000000000000e+01,4.052157414542440633e-02
5.503999999999999915e+01,3.834137193656229209e-02
5.507999999999999829e+01,2.960904646811477262e-02
5.511999999999999744e+01,2.787979194333353727e-02
5.515999999999999659e+01,4.738656227453648395e-02
5.520000000000000284e+01,3.774921910973404876e-02
5.524000000000000199e+01,3.872966540273611175e-02
5.528000000000000114e+01,4.016150553947875346e-02
5.532000000000000028e+01,3.210426380891998055e-02
5.535999999999999943e+01,2.856497422035559480e-02
5.539999999999999858e+01,3.225467563197870202e-02
5.543999999999999773e+01,4.001048942340899861e-02
5.547999999999999687e+01,4.121418017453838678e-02
5.552000000000000313e+01,2.976591052569992762e-02
5.556000000000000227e+01,3.232422905542434860e-02
5.560000000000000142e+01,4.324113821008868097e-02
5.564000000000000057e+01,4.692816470309978810e-02
5.567999999999999972e+01,4.270754884731997603e-02
5.571999999999999886e+01,3.916424697951561423e-02
5.575999999999999801e+01,5.075713291502658570e-02
5.579999999999999716e+01,3.094670665323838096e-02
5.584000000000000341e+01,4.253870125621031506e-02
5.588000000000000256e+01,3.537889827497493062e-02
5.592000000000000171e+01,3.635176619108497487e-02
5.596000000000000085e+01,2.535043365750629801e-02
5.600000000000000000e+01,3.377776721623262229e-02
5.603999999999999915e+01,4.243057513231787703e-02
5.607999999999999829e+01,3.910918266449974617e-02
5.611999999999999744e+01,3.443182527674301663e-02
5.615999999999999659e+01,3.607977969372607591e-02
5.620000000000000284e+01,3.230521098023057813e-02
5.624000000000000199e+01,4.140763130297119010e-02
5.628000000000000114e+01,4.079505038167112463e-02
5.632000000000000028e+01,3.430810658963367316e-02
5.635999999999999943e+01,3.098359606966948412e-02
5.639999999999999858e+01,4.731367176431683363e-02
5.643999999999999773e+01,3.427371473971858873e-02
5.647999999999999687e+01,4.585858184007403360e-02
5.652000000000000313e+01,4.004717112520962685e-02
5.656000000000000227e+01,3.310571563464161093e-02
5.660000000000000142e+01,4.175228821393048989e-02
5.664000000000000057e+01,3.887650052235822745e-02
5.667999999999999972e+01,4.345562443570577527e-02
5.671999999999999886e+01,3.583462841298289819e-02
5.675999999999999801e+01,3.069830617255158919e-02
5.679999999999999716e+01,3.166137618469305054e-02
5.684000000000000341e+01,3.172032147765214971e-02
5.688000000000000256e+01,3.290842120055582909e-02
5.692000000000000171e+01,3.025543750884729377e-02
5.696000000000000085e+01,2.715016896978582339e-02
5.700000000000000000e+01,3.398493114431432038e-02
5.703999999999999915e+01,4.014148861232471471e-02
5.707999999999999829e+01,3.296832682651044955e-02
5.711999999999999744e+01,3.731663514122585817e-02
5.715999999999999659e+01,3.827569997894392922e-02
5.720000000000000284e+01,3.358632233137243822e-02
5.724000000000000199e+01,4.087025465616009323e-02
5.728000000000000114e+01,5.425357949666193697e-02
5.732000000000000028e+01,3.578175316710141551e-02
5.735999999999999943e+01,4.125699173585418295e-02
5.739999999999999858e+01,4.492442628033462698e-02
5.743999999999999773e+01,4.610629711340497039e-02
5.747999999999999687e+01,3.644356784517768788e-02
5.752000000000000313e+01,3.739862928467643094e-02
5.756000000000000227e+01,4.083836494503551712e-02
5.760000000000000142e+01,4.382581610889683954e-02
5.764000000000000057e+01,5.878657746440172499e-02
5.767999999999999972e+01,5.748066115572203483e-02
5.771999999999999886e+01,5.165590216193284567e-02
5.775999999999999801e+01,5.147869614095509916e-02
5.779999999999999716e+01,5.356024456938642681e-02
5.784000000000000341e+01,5.044519066942750735e-02
5.788000000000000256e+01,4.461865339624935395e-02
5.792000000000000171e+01,5.550974443167706190e-02
5.796000000000000085e+01,6.323751233169834507e-02
5.800000000000000000e+01,6.237987944571231347e-02
5.803999999999999915e+01,4.774068802614025303e-02
5.807999999999999829e+01,5.591896238448328116e-02
5.811999999999999744e+01,5.302671708936179673e-02
5.815999999999999659e+01,4.358235022314527196e-02
5.820000000000000284e+01,4.656313366161474870e-02
5.824000000000000199e+01,4.615467421515479646e-02
5.828000000000000114e+01,3.874225345734107900e-02
5.832000000000000028e+01,4.420682287604277977e-02
5.835999999999999943e+01,4.108599170609320700e-02
5.839999999999999858e+01,4.406455366585430161e-02
5.843999999999999773e+01,4.817227091076930340e-02
5.847999999999999687e+01,5.521650268694317659e-02
5.852000000000000313e+01,4.283117861712096991e-02
5.856000000000000227e+01,5.484475990950957863e-02
5.860000000000000142e+01,3.794014947283284173e-02
5.864000000000000057e+01,4.362708521804731232e-02
5.867999999999999972e+01,4.682845793163352421e-02
5.871999999999999886e+01,5.025530647178461791e-02
5.875999999999999801e+01,5.029291241207610452e-02
5.879999999999999716e+01,4.897455490163500624e-02
5.884000000000000341e+01,4.765575338052199794e-02
5.888000000000000256e+01,5.175858554319490157e-02
5.892000000000000171e+01,5.089073587256760095e-02
5.896000000000000085e+01,5.341124080238459498e-02
5.900000000000000000e+01,5.141290374880247427e-02
5.903999999999999915e+01,4.037732667330849040e-02
5.907999999999999829e+01,3.837810183959552979e-02
5.911999999999999744e+01,4.428562975448170624e-02
5.915999999999999659e+01,4.205959732532961459e-02
5.920000000000000284e+01,4.028496088890578392e-02
5.924000000000000199e+01,4.551339765477827037e-02
5.928000000000000114e+01,4.373787365750805844e-02
5.932000000000000028e+01,4.489886465199403182e-02
5.935999999999999943e+01,4.221877356950302917e-02
5.939999999999999858e+01,5.490079218883808787e-02
5.943999999999999773e+01,5.109021420581803113e-02
5.947999999999999687e+01,5.428270955666487929e-02
5.952000000000000313e+01,4.843796514874135900e-02
5.956000000000000227e+01,3.604109993721843486e-02
5.960000000000000142e+01,3.765082511903140861e-02
5.964000000000000057e+01,5.123386158891033576e-02
5.967999999999999972e+01,5.148718023031356034e-02
5.971999999999999886e+01,4.970677621627222348e-02
5.975999999999999801e+01,4.792592869591328492e-02
5.979999999999999716e+01,5.924799206644434241e-02
5.984000000000000341e+01,5.385153915088267129e-02
5.988000000000000256e+01,6.155799717006788657e-02
5.992000000000000171e+01,6.248641467998768823e-02
5.996000000000000085e+01,6.115518976301152071e-02
