2.003999999999999915e+01,6.908503148961719909e-02
2.007999999999999829e+01,4.693718152482144468e-02
2.012000000000000099e+01,4.263094781571524078e-02
2.016000000000000014e+01,4.363812270920035957e-02
2.019999999999999929e+01,6.704262866855890957e-02
2.023999999999999844e+01,8.588983567628191707e-02
2.028000000000000114e+01,8.385510914125872406e-02
2.032000000000000028e+01,4.499345716617893925e-02
2.035999999999999943e+01,6.839162407511734099e-02
2.039999999999999858e+01,6.445393537357291258e-02
2.044000000000000128e+01,8.101537172262718300e-02
2.048000000000000043e+01,4.214739560457743395e-02
2.051999999999999957e+01,6.440031525829596759e-02
2.055999999999999872e+01,8.551273014287849583e-02
2.060000000000000142e+01,6.144608901981774007e-02
2.064000000000000057e+01,5.028572528279432602e-02
2.067999999999999972e+01,6.418020637569371578e-02
2.071999999999999886e+01,3.972920367621170235e-02
2.076000000000000156e+01,6.766732224482438496e-02
2.080000000000000071e+01,5.460246064903080676e-02
2.083999999999999986e+01,8.291708468570817281e-02
2.087999999999999901e+01,8.655336687595242828e-02
2.092000000000000171e+01,8.107665890784890306e-02
2.096000000000000085e+01,4.143054423288865945e-02
2.100000000000000000e+01,4.316392015954903516e-02
2.103999999999999915e+01,7.298929364711968792e-02
2.107999999999999829e+01,3.789420595689971250e-02
2.112000000000000099e+01,2.177969366096599302e-02
2.116000000000000014e+01,2.692361416440581731e-02
2.119999999999999929e+01,6.889131915530451178e-02
2.123999999999999844e+01,3.530857251116394091e-02
2.128000000000000114e+01,4.386461055225664846e-02
2.132000000000000028e+01,6.001194938507446730e-02
2.135999999999999943e+01,6.552774094950752914e-02
2.139999999999999858e+01,5.699520224364313520e-02
2.144000000000000128e+01,8.186967123476360242e-02
2.148000000000000043e+01,3.802726453296851467e-02
2.151999999999999957e+01,6.062078237332864383e-02
2.155999999999999872e+01,5.739705140474344464e-02
2.160000000000000142e+01,7.505212420689405528e-02
2.164000000000000057e+01,6.613066529707400942e-02
2.167999999999999972e+01,5.417052293316809014e-02
2.171999999999999886e+01,4.676455223346283330e-02
2.176000000000000156e+01,5.226489370384443389e-02
2.180000000000000071e+01,4.865227234620309732e-02
2.183999999999999986e+01,3.896383095322626666e-02
2.187999999999999901e+01,3.496849427499983815e-02
2.192000000000000171e+01,4.274054665461037017e-02
2.196000000000000085e+01,6.607641627234497883e-02
2.200000000000000000e+01,4.385363066869907983e-02
2.203999999999999915e+01,7.819607571814692071e-02
2.207999999999999829e+01,4.268273562759231782e-02
2.212000000000000099e+01,6.639212753130631361e-02
2.216000000000000014e+01,5.175608036498879211e-02
2.219999999999999929e+01,4.053529168892169854e-02
2.223999999999999844e+01,1.944226846239435758e-02
2.228000000000000114e+01,3.631199134648847165e-02
2.232000000000000028e+01,3.040163057549871012e-02
2.235999999999999943e+01,5.220366566710666484e-02
2.239999999999999858e+01,5.502204652620568126e-02
2.244000000000000128e+01,7.720068646887788544e-02
2.248000000000000043e+01,5.647818495421946805e-02
2.251999999999999957e+01,2.930024182931266138e-02
2.255999999999999872e+01,5.792826011963744109e-02
2.260000000000000142e+01,6.719298769509036984e-02
2.264000000000000057e+01,2.216729796836422114e-02
2.267999999999999972e+01,4.661471036052974859e-02
2.271999999999999886e+01,5.055990768328655349e-02
2.276000000000000156e+01,5.943895166351877840e-02
2.280000000000000071e+01,3.490793146971881561e-02
2.283999999999999986e+01,3.011682547616712641e-02
2.287999999999999901e+01,3.937099451815220807e-02
2.292000000000000171e+01,2.128938621376701493e-02
2.296000000000000085e+01,3.585554742569070641e-02
2.300000000000000000e+01,9.028269057841041556e-02
2.303999999999999915e+01,5.587194371603002724e-02
2.307999999999999829e+01,4.120111850762291084e-02
2.312000000000000099e+01,5.120557121487640667e-02
2.316000000000000014e+01,4.981924716908202322e-02
2.319999999999999929e+01,6.057999462812470315e-02
2.323999999999999844e+01,8.196924405909197797e-02
2.328000000000000114e+01,8.057843964987557173e-02
2.332000000000000028e+01,3.628651987136538581e-02
2.335999999999999943e+01,6.108808063683499739e-02
2.339999999999999858e+01,6.652637553318294095e-02
2.344000000000000128e+01,7.006496971749479052e-02
2.348000000000000043e+01,5.310137243585990457e-02
2.351999999999999957e+01,3.423807692676374831e-02
2.355999999999999872e+01,5.523578075048844738e-02
2.360000000000000142e+01,5.573129683512910437e-02
2.364000000000000057e+01,5.698461727577068536e-02
2.367999999999999972e+01,2.862432781070436624e-02
2.371999999999999886e+01,4.847718191120777703e-02
2.376000000000000156e+01,5.693927789297615477e-02
2.380000000000000071e+01,4.148240810289829245e-02
2.383999999999999986e+01,3.665405891905753472e-02
2.387999999999999901e+01,6.447350782413850678e-02
2.392000000000000171e+01,6.837399468423591142e-02
2.396000000000000085e+01,4.683694996643744668e-02
2.400000000000000000e+01,2.302057923482762544e-02
2.403999999999999915e+01,4.779700470088744935e-02
2.407999999999999829e+01,6.649767969971132064e-02
2.412000000000000099e+01,7.570582122938755709e-02
2.416000000000000014e+01,4.505001502820699111e-02
2.419999999999999929e+01,5.653308419924675532e-02
2.423999999999999844e+01,4.068041701940360022e-02
2.428000000000000114e+01,5.633663226995729023e-02
2.432000000000000028e+01,1.466534084400663955e-02
2.435999999999999943e+01,5.917148224022059783e-02
2.439999999999999858e+01,3.078476899870738470e-02
2.444000000000000128e+01,1.986016348614267138e-02
2.448000000000000043e+01,2.487909616961415590e-02
2.451999999999999957e+01,6.596263106280708666e-02
2.455999999999999872e+01,8.730329341941579779e-02
2.460000000000000142e+01,6.991894979173012004e-02
2.464000000000000057e+01,5.367208427103279528e-02
2.467999999999999972e+01,4.197948234381052024e-02
2.471999999999999886e+01,1.396079709335356495e-02
2.476000000000000156e+01,5.161885162273923550e-02
2.480000000000000071e+01,5.586690409246725803e-02
2.483999999999999986e+01,6.087279818682106436e-02
2.487999999999999901e+01,1.614405687269440670e-02
2.492000000000000171e+01,6.328740617975686655e-02
2.496000000000000085e+01,5.538112484971495497e-02
2.500000000000000000e+01,8.088196178024395500e-02
2.503999999999999915e+01,6.348173675984221387e-02
2.507999999999999829e+01,5.253400122479009310e-02
2.512000000000000099e+01,8.258624155317109694e-02
2.516000000000000014e+01,4.088457892868700011e-02
2.519999999999999929e+01,4.929431930340971713e-02
2.523999999999999844e+01,4.783191829923440219e-02
2.528000000000000114e+01,2.662666711964971691e-02
2.532000000000000028e+01,3.617104528233725663e-02
2.535999999999999943e+01,2.217614881619081948e-02
2.539999999999999858e+01,3.437517185129167208e-02
2.544000000000000128e+01,4.125777204453159180e-02
2.548000000000000043e+01,3.978680908779812925e-02
2.551999999999999957e+01,5.843548625837539229e-02
2.555999999999999872e+01,2.545133567035998828e-02
2.560000000000000142e+01,7.560751486502209628e-02
2.564000000000000057e+01,8.817764845626489822e-02
2.567999999999999972e+01,5.518924111657643600e-02
2.571999999999999886e+01,7.155296753823246758e-02
2.576000000000000156e+01,7.045171485472893902e-02
2.580000000000000071e+01,4.315370235095440654e-02
2.583999999999999986e+01,4.812390611438924215e-02
2.587999999999999901e+01,5.195377033292433028e-02
2.592000000000000171e+01,4.629115698524913919e-02
2.596000000000000085e+01,3.796963580205006683e-02
2.600000000000000000e+01,7.368525936300825141e-02
2.603999999999999915e+01,6.460163856122316806e-02
2.607999999999999829e+01,5.096090018177663883e-02
2.612000000000000099e+01,5.478232170735348322e-02
2.616000000000000014e+01,2.481414071724778736e-02
2.619999999999999929e+01,7.494916659373250523e-02
2.623999999999999844e+01,3.814461530711674847e-02
2.628000000000000114e+01,6.170185329406855518e-02
2.632000000000000028e+01,4.957128026548827948e-02
2.635999999999999943e+01,7.844072161125331677e-02
2.639999999999999858e+01,4.276950969726459051e-02
2.644000000000000128e+01,6.138580892519453908e-02
2.648000000000000043e+01,6.557429295953971782e-02
2.651999999999999957e+01,5.799246189918684513e-02
2.655999999999999872e+01,3.636246082362377952e-02
2.660000000000000142e+01,4.016713113033321125e-02
2.664000000000000057e+01,6.561004712360320179e-02
2.667999999999999972e+01,5.118909365012859480e-02
2.671999999999999886e+01,3.145175708799257536e-02
2.676000000000000156e+01,2.651910145088056184e-02
2.680000000000000071e+01,4.967862226407809140e-02
2.683999999999999986e+01,5.081748518827881173e-02
2.687999999999999901e+01,2.955604877197066244e-02
2.692000000000000171e+01,4.246107563363344523e-02
2.696000000000000085e+01,3.106759217036246870e-02
2.700000000000000000e+01,4.966450483783858838e-02
2.703999999999999915e+01,5.003719276575467612e-02
2.707999999999999829e+01,5.572350421199585846e-02
2.712000000000000099e+01,5.115808997305128919e-02
2.716000000000000014e+01,5.684165675640615034e-02
2.719999999999999929e+01,5.379207111434990835e-02
2.723999999999999844e+01,3.745362196357081286e-02
2.728000000000000114e+01,4.654986531395189503e-02
2.732000000000000028e+01,5.070938690378398728e-02
2.735999999999999943e+01,3.019076789775716058e-02
2.739999999999999858e+01,6.699683139894864470e-02
2.744000000000000128e+01,3.660477508326168139e-02
2.748000000000000043e+01,5.746312065856862966e-02
2.751999999999999957e+01,4.756904750636759688e-02
2.755999999999999872e+01,2.362683539614398448e-02
2.760000000000000142e+01,5.549074122937604214e-02
2.764000000000000057e+01,5.546330398056273370e-02
2.767999999999999972e+01,5.771236733398723423e-02
2.771999999999999886e+01,6.413614600093660301e-02
2.776000000000000156e+01,3.828894261890301853e-02
2.780000000000000071e+01,4.622858715136565072e-02
2.783999999999999986e+01,3.480510370861879255e-02
2.787999999999999901e+01,2.110241475394757441e-02
2.792000000000000171e+01,4.194586282823505735e-02
2.796000000000000085e+01,2.672190812697757337e-02
2.800000000000000000e+01,3.845123906325467050e-02
2.803999999999999915e+01,6.574457606535502596e-02
2.807999999999999829e+01,6.646158136377193493e-02
2.812000000000000099e+01,5.958439089079017176e-02
2.816000000000000014e+01,5.840050017169566565e-02
2.819999999999999929e+01,4.924277347197764804e-02
2.823999999999999844e+01,4.577834901072182217e-02
2.828000000000000114e+01,4.762758533641559683e-02
2.832000000000000028e+01,4.302156018354826028e-02
2.835999999999999943e+01,3.158063210060731846e-02
2.839999999999999858e+01,2.431444045007867191e-02
2.844000000000000128e+01,3.830690769524770084e-02
2.848000000000000043e+01,4.052912071780604558e-02
2.851999999999999957e+01,3.781464924844066960e-02
2.855999999999999872e+01,4.952527191323634337e-02
2.860000000000000142e+01,2.023315665968747346e-02
2.864000000000000057e+01,2.852434234667176882e-02
2.867999999999999972e+01,5.655562360787894094e-02
2.871999999999999886e+01,3.105596178220578624e-02
2.876000000000000156e+01,4.541746078672817544e-02
2.880000000000000071e+01,4.573085934413999992e-02
2.883999999999999986e+01,4.794115183632691873e-02
2.887999999999999901e+01,6.078012146297553930e-02
2.892000000000000171e+01,5.235778318717712598e-02
2.896000000000000085e+01,5.266591106141545187e-02
2.900000000000000000e+01,2.829594927358230344e-02
2.903999999999999915e+01,3.733323121735781375e-02
2.907999999999999829e+01,3.042420794103580309e-02
2.912000000000000099e+01,7.172849593909529087e-02
2.916000000000000014e+01,4.051971982543942780e-02
2.919999999999999929e+01,3.208819698614349264e-02
2.923999999999999844e+01,4.301714441929544580e-02
2.928000000000000114e+01,4.976871635158577195e-02
2.932000000000000028e+01,4.702791631210263140e-02
2.935999999999999943e+01,3.935045786873304224e-02
2.939999999999999858e+01,3.167169728316374805e-02
2.944000000000000128e+01,4.601091203807931157e-02
2.948000000000000043e+01,5.237633056557130379e-02
2.951999999999999957e+01,7.164830226692438242e-02
2.955999999999999872e+01,4.422292545783387124e-02
2.960000000000000142e+01,8.740979376477207852e-02
2.964000000000000057e+01,7.023217906904326291e-02
2.967999999999999972e+01,5.305327092712715936e-02
2.971999999999999886e+01,6.814269955430732328e-02
2.976000000000000156e+01,4.944263747167961659e-02
2.980000000000000071e+01,3.833413954572625210e-02
2.983999999999999986e+01,4.165077550713370408e-02
2.987999999999999901e+01,3.775291305159241689e-02
2.992000000000000171e+01,4.106697578578790558e-02
2.996000000000000085e+01,4.248154030080906335e-02
3.000000000000000000e+01,2.908875624974478422e-02
3.003999999999999915e+01,3.771396617347786556e-02
3.007999999999999829e+01,3.912468389169971444e-02
3.012000000000000099e+01,3.028376909629804103e-02
3.016000000000000014e+01,6.510048554915354169e-02
3.019999999999999929e+01,3.955273639136711039e-02
3.023999999999999844e+01,4.095834243921488149e-02
3.028000000000000114e+01,3.401053441158902180e-02
3.032000000000000028e+01,4.756215827957313569e-02
3.035999999999999943e+01,3.339859317286111157e-02
3.039999999999999858e+01,3.176196587653520170e-02
3.044000000000000128e+01,1.266050482268672901e-02
3.048000000000000043e+01,4.594846691279429185e-02
3.051999999999999957e+01,5.303981577255536400e-02
3.055999999999999872e+01,2.558241338065857240e-02
3.060000000000000142e+01,5.127372324718022789e-02
3.064000000000000057e+01,3.140664622642028864e-02
3.067999999999999972e+01,3.241865497565791371e-02
3.071999999999999886e+01,3.039226102778374780e-02
3.076000000000000156e+01,5.228209688488159174e-02
3.080000000000000071e+01,2.405783849824859322e-02
3.083999999999999986e+01,4.860265712995887749e-02
3.087999999999999901e+01,3.670052097931159052e-02
3.092000000000000171e+01,4.871461960278648806e-02
3.096000000000000085e+01,7.577487401280764631e-03
3.100000000000000000e+01,3.021907530746697698e-02
3.103999999999999915e+01,2.552513805164447272e-02
3.107999999999999829e+01,4.171029898869436925e-02
3.112000000000000099e+01,2.752279569791085331e-02
3.116000000000000014e+01,2.624189651477578517e-02
3.119999999999999929e+01,3.824724537537658314e-02
3.123999999999999844e+01,3.544528418080445525e-02
3.128000000000000114e+01,5.200385661534259740e-02
3.132000000000000028e+01,3.287477332028532900e-02
3.135999999999999943e+01,5.626443046071018944e-02
3.139999999999999858e+01,6.256892635231250943e-02
3.144000000000000128e+01,5.064933415597963617e-02
3.148000000000000043e+01,3.379314939699759601e-02
3.151999999999999957e+01,5.755749657364796906e-02
3.155999999999999872e+01,5.094919318762718835e-02
3.160000000000000142e+01,3.484858864022040426e-02
3.164000000000000057e+01,7.379494211970646922e-02
3.167999999999999972e+01,2.770010085619119614e-02
3.171999999999999886e+01,3.703186279794384861e-02
3.176000000000000156e+01,3.801025662886015066e-02
3.180000000000000071e+01,4.582099134322568240e-02
3.183999999999999986e+01,4.034300541193036604e-02
3.187999999999999901e+01,2.878951125946099462e-02
3.192000000000000171e+01,3.773549869410154634e-02
3.196000000000000085e+01,5.882882969454066024e-02
3.200000000000000000e+01,7.029542091876578129e-03
3.203999999999999915e+01,3.457435734217744611e-02
3.207999999999999829e+01,4.123760552454351636e-02
3.211999999999999744e+01,1.638929245486361874e-02
3.215999999999999659e+01,4.089331315481509188e-02
3.220000000000000284e+01,1.224614154069820701e-02
3.224000000000000199e+01,4.320165891338635655e-02
3.228000000000000114e+01,1.455206066198218469e-02
3.232000000000000028e+01,6.401956420562856555e-03
3.235999999999999943e+01,5.140061909821175279e-02
3.239999999999999858e+01,4.476666644842977605e-02
3.243999999999999773e+01,4.800221610909648912e-02
3.247999999999999687e+01,3.301370998130311735e-02
3.252000000000000313e+01,3.207077828033295247e-02
3.256000000000000227e+01,2.884878641507559668e-02
3.260000000000000142e+01,1.423631097661962400e-02
3.264000000000000057e+01,1.784548332364887385e-02
3.267999999999999972e+01,5.144522820624924248e-02
3.271999999999999886e+01,3.379201039351873576e-02
3.275999999999999801e+01,5.941686188393253271e-02
3.279999999999999716e+01,4.403910589618913185e-02
3.284000000000000341e+01,3.625300847896971435e-02
3.288000000000000256e+01,3.909571242496140409e-02
3.292000000000000171e+01,2.940901465465466449e-02
3.296000000000000085e+01,2.731397918173441436e-02
3.300000000000000000e+01,2.142132643448959456e-02
3.303999999999999915e+01,5.614925282980205018e-02
3.307999999999999829e+01,4.949493774916972899e-02
3.311999999999999744e+01,3.031122716367648171e-02
3.315999999999999659e+01,4.453488826540380474e-02
3.320000000000000284e+01,6.597057642444278946e-02
3.324000000000000199e+01,6.120973582868508012e-02
3.328000000000000114e+01,2.797451155761821601e-02
3.332000000000000028e+01,1.789631121032351016e-02
3.335999999999999943e+01,2.755835178488851012e-02
3.339999999999999858e+01,2.013529322500575564e-02
3.343999999999999773e+01,3.979276036561518910e-03
3.347999999999999687e+01,3.603670553183611208e-02
3.352000000000000313e+01,4.227725766212625524e-02
3.356000000000000227e+01,1.396915171232076223e-02
3.360000000000000142e+01,3.083735462269690183e-02
3.364000000000000057e+01,4.428760282914839114e-02
3.367999999999999972e+01,2.470776745756647283e-02
3.371999999999999886e+01,3.132210998303100458e-02
3.375999999999999801e+01,3.072207459343394981e-02
3.379999999999999716e+01,1.759266481786331618e-02
3.384000000000000341e+01,5.988992408879798002e-02
3.388000000000000256e+01,4.068390395814037996e-02
3.392000000000000171e+01,1.730065243197064992e-02
3.396000000000000085e+01,2.428765588837188474e-02
3.400000000000000000e+01,3.127350006563558993e-02
3.403999999999999915e+01,3.901747159364891276e-02
3.407999999999999829e+01,3.840814706350076380e-02
3.411999999999999744e+01,3.324195465547791217e-02
3.415999999999999659e+01,2.769496524366744927e-02
3.420000000000000284e+01,3.011931933395591357e-02
3.424000000000000199e+01,2.722752388563227238e-02
3.428000000000000114e+01,2.395493516038369602e-02
3.432000000000000028e+01,1.156977244309849266e-02
3.435999999999999943e+01,4.549987027085716090e-02
3.439999999999999858e+01,1.526920599016128900e-02
3.443999999999999773e+01,3.552987437088388906e-02
3.447999999999999687e+01,4.667797372871995004e-02
3.452000000000000313e+01,4.377815028655755725e-02
3.456000000000000227e+01,2.493219181768448894e-02
3.460000000000000142e+01,3.152115318858297877e-02
3.464000000000000057e+01,3.317362013754436567e-02
3.467999999999999972e+01,1.470388615485814822e-02
3.471999999999999886e+01,2.660443075820541001e-02
3.475999999999999801e+01,5.141169127507569381e-02
3.479999999999999716e+01,3.255890757156384291e-02
3.484000000000000341e+01,5.053033197554703676e-02
3.488000000000000256e+01,4.610170549652033850e-02
3.492000000000000171e+01,2.610659786517046527e-02
3.496000000000000085e+01,3.837998974257879337e-02
3.500000000000000000e+01,6.431939037483505595e-02
3.503999999999999915e+01,3.634840150783535256e-02
3.507999999999999829e+01,5.507233824085453616e-02
3.511999999999999744e+01,5.405373040118845174e-02
3.515999999999999659e+01,2.190329841712604364e-02
3.520000000000000284e+01,4.593886310494377928e-02
3.524000000000000199e+01,5.934331159813750756e-02
3.528000000000000114e+01,6.591307207699442783e-02
3.532000000000000028e+01,4.970315264420389206e-02
3.535999999999999943e+01,6.158567551124704414e-02
3.539999999999999858e+01,6.321672984661619310e-02
3.543999999999999773e+01,6.256881346239788477e-02
3.547999999999999687e+01,3.610408058528249281e-02
3.552000000000000313e+01,6.886249586874686190e-02
3.556000000000000227e+01,4.922910857789251915e-02
3.560000000000000142e+01,6.072531259099640810e-02
3.564000000000000057e+01,5.817362858815169208e-02
3.567999999999999972e+01,5.144476785044488354e-02
3.571999999999999886e+01,7.508621675595873735e-02
3.575999999999999801e+01,1.017637025933844502e-01
3.579999999999999716e+01,7.073439559701713564e-02
3.584000000000000341e+01,5.830647846293467162e-02
3.588000000000000256e+01,8.004530287922248522e-02
3.592000000000000171e+01,7.596732446777580694e-02
3.596000000000000085e+01,1.011207350718750647e-01
3.600000000000000000e+01,6.097450517761966726e-02
3.603999999999999915e+01,5.613394988428451610e-02
3.607999999999999829e+01,7.596907500775830491e-02
3.611999999999999744e+01,7.302454506533463674e-02
3.615999999999999659e+01,4.046679281090197894e-02
3.620000000000000284e+01,2.423258543654171690e-02
3.624000000000000199e+01,6.342512164593672175e-02
3.628000000000000114e+01,5.402230458018736359e-02
3.632000000000000028e+01,5.904482265237345762e-02
3.635999999999999943e+01,4.963983237598579290e-02
3.639999999999999858e+01,9.034659293930398516e-02
3.643999999999999773e+01,6.385551320043038326e-02
3.647999999999999687e+01,7.646654866563881714e-02
3.652000000000000313e+01,4.807509218542710405e-02
3.656000000000000227e+01,6.599896457607147549e-02
3.660000000000000142e+01,6.645819452146782547e-02
3.664000000000000057e+01,4.907314057010349340e-02
3.667999999999999972e+01,3.548343751086319164e-02
3.671999999999999886e+01,4.922693360163153675e-02
3.675999999999999801e+01,6.866399653809873715e-02
3.679999999999999716e+01,7.253463670975494881e-02
3.684000000000000341e+01,9.310848433188366469e-02
3.688000000000000256e+01,9.318055665437707802e-02
3.692000000000000171e+01,6.136157410552403602e-02
3.696000000000000085e+01,5.080151505960533304e-02
3.700000000000000000e+01,7.478787504190691215e-02
3.703999999999999915e+01,8.017067816272274716e-02
3.707999999999999829e+01,8.289491880393848322e-02
3.711999999999999744e+01,8.296059820784161543e-02
3.715999999999999659e+01,8.985878496171850749e-02
3.720000000000000284e+01,6.296771207126164449e-02
3.724000000000000199e+01,6.910449488755010528e-02
3.728000000000000114e+01,9.650021114507281728e-02
3.732000000000000028e+01,8.972702879132446463e-02
3.735999999999999943e+01,1.201577755029834410e-01
3.739999999999999858e+01,1.152806980065463616e-01
3.743999999999999773e+01,1.085043545986965202e-01
3.747999999999999687e+01,1.248851643125182403e-01
3.752000000000000313e+01,1.313942140297033323e-01
3.756000000000000227e+01,1.132254399343408657e-01
3.760000000000000142e+01,1.315013169705108176e-01
3.764000000000000057e+01,1.364886534927069461e-01
3.767999999999999972e+01,1.350210192316159130e-01
3.771999999999999886e+01,1.574698309335213209e-01
3.775999999999999801e+01,1.787786720499137949e-01
3.779999999999999716e+01,1.928732607222816697e-01
3.784000000000000341e+01,2.259489440651092085e-01
3.788000000000000256e+01,2.468750224290875706e-01
3.792000000000000171e+01,2.731150609713022814e-01
3.796000000000000085e+01,2.970762070580418301e-01
3.800000000000000000e+01,3.297681000517921901e-01
3.803999999999999915e+01,3.518289638110431161e-01
3.807999999999999829e+01,3.898337881440792629e-01
3.811999999999999744e+01,4.099943745449918242e-01
3.815999999999999659e+01,4.874799776284591823e-01
3.820000000000000284e+01,5.463620598767783276e-01
3.824000000000000199e+01,6.124563257106336867e-01
3.828000000000000114e+01,6.641231428257149405e-01
3.832000000000000028e+01,6.937696585883111888e-01
3.835999999999999943e+01,7.537865659851029632e-01
3.839999999999999858e+01,8.175988776923810430e-01
3.843999999999999773e+01,8.278805481886404305e-01
3.847999999999999687e+01,8.662547578831580886e-01
3.852000000000000313e+01,9.110818744716243645e-01
3.856000000000000227e+01,9.350276252427301982e-01
3.860000000000000142e+01,9.566945034349604304e-01
3.864000000000000057e+01,1.000000000000000000e+00
3.867999999999999972e+01,9.696538000363483789e-01
3.871999999999999886e+01,9.768912140696788260e-01
3.875999999999999801e+01,9.188290733224919737e-01
3.879999999999999716e+01,9.108787579522605871e-01
3.884000000000000341e+01,8.437031733868859407e-01
3.888000000000000256e+01,7.879158619154467136e-01
3.892000000000000171e+01,7.814810941602259309e-01
3.896000000000000085e+01,7.385996225647213365e-01
3.900000000000000000e+01,6.642068033906202151e-01
3.903999999999999915e+01,6.376479608843996782e-01
3.907999999999999829e+01,5.913466967919563944e-01
3.911999999999999744e+01,5.507390728401736490e-01
3.915999999999999659e+01,5.591043573645343434e-01
3.920000000000000284e+01,4.801508245331429503e-01
3.924000000000000199e+01,5.207837437092605049e-01
3.928000000000000114e+01,4.999135511925978936e-01
3.932000000000000028e+01,4.965059285358325303e-01
3.935999999999999943e+01,4.688001806632567381e-01
3.939999999999999858e+01,4.335005873443563695e-01
3.943999999999999773e+01,4.566649785426102892e-01
3.947999999999999687e+01,4.612258886589161166e-01
3.952000000000000313e+01,4.631283120751586990e-01
3.956000000000000227e+01,4.464272568940281793e-01
3.960000000000000142e+01,4.574391330014058732e-01
3.964000000000000057e+01,4.111239782283901967e-01
3.967999999999999972e+01,4.430142355038511615e-01
3.971999999999999886e+01,4.604770887828883996e-01
3.975999999999999801e+01,4.255482699277940428e-01
3.979999999999999716e+01,4.152952470222458503e-01
3.984000000000000341e+01,3.974483923355351389e-01
3.988000000000000256e+01,3.754244913541494588e-01
3.992000000000000171e+01,3.773171046615725333e-01
3.996000000000000085e+01,3.488373282866986669e-01
4.000000000000000000e+01,3.332644305650098171e-01
4.003999999999999915e+01,3.135144915177958680e-01
4.007999999999999829e+01,3.241349975231396785e-01
4.011999999999999744e+01,3.142538288541354419e-01
4.015999999999999659e+01,2.645092093692729129e-01
4.020000000000000284e+01,2.834789507376259121e-01
4.024000000000000199e+01,2.986512996856911517e-01
4.028000000000000114e+01,2.648487768935617326e-01
4.032000000000000028e+01,2.561017088945158338e-01
4.035999999999999943e+01,2.450758229772445618e-01
4.039999999999999858e+01,2.249375518956360509e-01
4.043999999999999773e+01,1.975851103609776727e-01
4.047999999999999687e+01,2.100941936467509707e-01
4.052000000000000313e+01,1.766655541964542997e-01
4.056000000000000227e+01,1.713295185433657275e-01
4.060000000000000142e+01,1.713075263017756755e-01
4.064000000000000057e+01,1.948224280163692590e-01
4.067999999999999972e+01,1.792331804524419647e-01
4.071999999999999886e+01,1.902179708796730984e-01
4.075999999999999801e+01,2.031000254433530383e-01
4.079999999999999716e+01,2.102864915097704956e-01
4.084000000000000341e+01,1.984898760382144411e-01
4.088000000000000256e+01,2.375644359301635478e-01
4.092000000000000171e+01,2.417109236291162810e-01
4.096000000000000085e+01,2.363654008619568148e-01
4.100000000000000000e+01,2.568346393943682915e-01
4.103999999999999915e+01,2.522465194994445992e-01
4.107999999999999829e+01,2.632228106560680070e-01
4.111999999999999744e+01,2.517992447265309797e-01
4.115999999999999659e+01,2.741629416355136906e-01
4.120000000000000284e+01,2.593207188847127531e-01
4.124000000000000199e+01,2.672561233368080935e-01
4.128000000000000114e+01,2.307723994314957172e-01
4.132000000000000028e+01,2.295945141090529606e-01
4.135999999999999943e+01,2.360085519643707608e-01
4.139999999999999858e+01,2.245784537551399340e-01
4.143999999999999773e+01,1.918874364794485865e-01
4.147999999999999687e+01,1.903261931239772498e-01
4.152000000000000313e+01,1.443458288648231669e-01
4.156000000000000227e+01,1.461995195376619983e-01
4.160000000000000142e+01,1.260330107255903664e-01
4.164000000000000057e+01,1.123195057058919283e-01
4.167999999999999972e+01,8.759544180605643993e-02
4.171999999999999886e+01,1.000754423809652738e-01
4.175999999999999801e+01,8.939632035871368509e-02
4.179999999999999716e+01,8.630913517938518242e-02
4.184000000000000341e+01,1.018235262054658918e-01
4.188000000000000256e+01,6.760380979525194844e-02
4.192000000000000171e+01,7.096780676501976415e-02
4.196000000000000085e+01,8.040517477166084226e-02
4.200000000000000000e+01,7.465592420466544976e-02
4.203999999999999915e+01,5.637755516292063118e-02
4.207999999999999829e+01,5.556184169891022900e-02
4.211999999999999744e+01,5.208772228352399197e-02
4.215999999999999659e+01,4.215877122105031460e-02
4.220000000000000284e+01,5.766497603297233293e-02
4.224000000000000199e+01,4.773421699238415000e-02
4.228000000000000114e+01,7.083147018676570761e-02
4.232000000000000028e+01,3.546284765261626531e-02
4.235999999999999943e+01,5.893794301640831179e-02
4.239999999999999858e+01,7.140250186123825449e-02
4.243999999999999773e+01,6.108760192159518737e-02
4.247999999999999687e+01,2.305788942036704481e-02
4.252000000000000313e+01,5.336296713122923308e-02
4.256000000000000227e+01,4.304538317588305074e-02
4.260000000000000142e+01,3.006940817661129042e-02
4.264000000000000057e+01,6.075145201929527117e-02
4.267999999999999972e+01,6.068154796143230417e-02
4.271999999999999886e+01,5.225861617950677829e-02
4.275999999999999801e+01,5.066836566780435341e-02
4.279999999999999716e+01,5.970722460661204850e-02
4.284000000000000341e+01,4.103128216442224890e-02
4.288000000000000256e+01,4.627194594031585478e-02
4.292000000000000171e+01,4.391887359118439027e-02
4.296000000000000085e+01,5.447277182451267658e-02
4.300000000000000000e+01,4.756222637859222613e-02
4.303999999999999915e+01,5.925329440670568104e-02
4.307999999999999829e+01,6.638777282934377189e-02
4.311999999999999744e+01,4.314995971039708306e-02
4.315999999999999659e+01,7.344089162194264442e-02
4.320000000000000284e+01,6.842417945707901517e-02
4.324000000000000199e+01,5.885088265588993978e-02
4.328000000000000114e+01,8.572241339105755864e-02
4.332000000000000028e+01,8.298094418367790714e-02
4.335999999999999943e+01,7.758110753583501162e-02
4.339999999999999858e+01,7.977325742241506146e-02
4.343999999999999773e+01,8.234418390350631278e-02
4.347999999999999687e+01,6.555246814379904474e-02
4.352000000000000313e+01,8.444630198657358811e-02
4.356000000000000227e+01,7.144928717772612570e-02
4.360000000000000142e+01,1.051474625761341236e-01
4.364000000000000057e+01,8.113908862909829933e-02
4.367999999999999972e+01,8.332520190869545373e-02
4.371999999999999886e+01,1.029740216998143859e-01
4.375999999999999801e+01,1.123716325973457830e-01
4.379999999999999716e+01,1.054437527427783683e-01
4.384000000000000341e+01,1.057282303939962309e-01
4.388000000000000256e+01,1.079100690800877255e-01
4.392000000000000171e+01,1.469163978729359221e-01
4.396000000000000085e+01,1.612451016192360809e-01
4.400000000000000000e+01,1.562111792744750594e-01
4.403999999999999915e+01,1.485189106081382382e-01
4.407999999999999829e+01,1.472797215137118254e-01
4.411999999999999744e+01,1.566696828652830165e-01
4.415999999999999659e+01,1.858002205563379916e-01
4.420000000000000284e+01,1.948088529801692559e-01
4.424000000000000199e+01,1.931866487240632146e-01
4.428000000000000114e+01,2.416764400382996614e-01
4.432000000000000028e+01,2.298022042693800837e-01
4.435999999999999943e+01,2.965131685903742986e-01
4.439999999999999858e+01,2.592011985257930973e-01
4.443999999999999773e+01,2.822515817333028920e-01
4.447999999999999687e+01,2.996064907339998640e-01
4.452000000000000313e+01,3.013952167313723729e-01
4.456000000000000227e+01,3.286191718981031351e-01
4.460000000000000142e+01,3.307858792010857640e-01
4.464000000000000057e+01,3.397853261618039022e-01
4.467999999999999972e+01,3.552378713287448475e-01
4.471999999999999886e+01,3.562631677851990641e-01
4.475999999999999801e+01,3.542504975874521955e-01
4.479999999999999716e+01,3.336345115319941379e-01
4.484000000000000341e+01,3.255459117527082502e-01
4.488000000000000256e+01,3.375775533678809781e-01
4.492000000000000171e+01,3.169591031816065829e-01
4.496000000000000085e+01,3.092476856921668737e-01
4.500000000000000000e+01,2.943222393704517659e-01
4.503999999999999915e+01,3.128045336953436117e-01
4.507999999999999829e+01,3.054703096763375925e-01
4.511999999999999744e+01,3.307845434009135110e-01
4.515999999999999659e+01,3.025683446187700798e-01
4.520000000000000284e+01,2.815645455801868424e-01
4.524000000000000199e+01,2.776438575662502628e-01
4.528000000000000114e+01,2.281652373422556335e-01
4.532000000000000028e+01,2.417064965772766638e-01
4.535999999999999943e+01,2.123473249434143229e-01
4.539999999999999858e+01,2.217109028499459067e-01
4.543999999999999773e+01,2.223418948141646090e-01
4.547999999999999687e+01,1.842485292681620146e-01
4.552000000000000313e+01,1.799425619700164014e-01
4.556000000000000227e+01,2.052479245302154809e-01
4.560000000000000142e+01,1.925882186946556995e-01
4.564000000000000057e+01,2.068823463454161626e-01
4.567999999999999972e+01,1.649885587825949684e-01
4.571999999999999886e+01,1.751050249814657955e-01
4.575999999999999801e+01,1.404228592653284369e-01
4.579999999999999716e+01,1.547138082450585650e-01
4.584000000000000341e+01,1.485032601975524169e-01
4.588000000000000256e+01,1.487458476248941230e-01
4.592000000000000171e+01,1.535433583003714686e-01
4.596000000000000085e+01,1.340429487374754369e-01
4.600000000000000000e+01,1.513670938802858246e-01
4.603999999999999915e+01,1.330040404552995104e-01
4.607999999999999829e+01,1.203348433289985336e-01
4.611999999999999744e+01,1.144984318250703570e-01
4.615999999999999659e+01,1.420697957517989829e-01
4.620000000000000284e+01,1.362318222426805170e-01
4.624000000000000199e+01,1.095127214354007922e-01
4.628000000000000114e+01,1.086085459096414324e-01
4.632000000000000028e+01,1.263060857254907632e-01
4.635999999999999943e+01,1.007235830358442497e-01
4.639999999999999858e+01,1.256327844515774395e-01
4.643999999999999773e+01,1.065026604587896997e-01
4.647999999999999687e+01,8.091783898596395519e-02
4.652000000000000313e+01,1.153157926903791569e-01
4.656000000000000227e+01,9.997978430613672918e-02
4.660000000000000142e+01,8.616157873851772175e-02
4.664000000000000057e+01,9.474152538880696584e-02
4.667999999999999972e+01,8.395892918129724269e-02
4.671999999999999886e+01,8.380556416847219359e-02
4.675999999999999801e+01,9.845750122441875030e-02
4.679999999999999716e+01,7.514440715323129905e-02
4.684000000000000341e+01,7.309054342998962117e-02
4.688000000000000256e+01,6.192449579298522216e-02
4.692000000000000171e+01,7.467517984510134432e-02
4.696000000000000085e+01,8.059153863082928193e-02
4.700000000000000000e+01,7.321964759785748456e-02
4.703999999999999915e+01,5.939307647687254443e-02
4.707999999999999829e+01,6.416824430095879883e-02
4.711999999999999744e+01,9.058229386280333695e-02
4.715999999999999659e+01,8.662417735410016251e-02
4.720000000000000284e+01,5.381246679233672031e-02
4.724000000000000199e+01,6.731641679219094176e-02
4.728000000000000114e+01,5.462427408015943509e-02
4.732000000000000028e+01,5.863566429792436280e-02
4.735999999999999943e+01,6.872059326137444635e-02
4.739999999999999858e+01,5.185014785220149608e-02
4.743999999999999773e+01,4.029395828568891474e-02
4.747999999999999687e+01,7.353486595931903180e-02
4.752000000000000313e+01,5.514362789019175426e-02
4.756000000000000227e+01,3.827022245258775851e-02
4.760000000000000142e+01,4.873035406719127688e-02
4.764000000000000057e+01,6.602331851109237426e-02
4.767999999999999972e+01,6.509269923578168970e-02
4.771999999999999886e+01,6.074456254174500497e-02
4.775999999999999801e+01,5.525676583406930603e-02
4.779999999999999716e+01,7.064858659543953034e-02
4.784000000000000341e+01,6.553897244394832344e-02
4.788000000000000256e+01,6.042863008708045797e-02
4.792000000000000171e+01,4.203006648412530022e-02
4.796000000000000085e+01,4.716862417596555390e-02
4.800000000000000000e+01,5.686216971489117811e-02
4.803999999999999915e+01,6.275856507959071129e-02
4.807999999999999829e+01,6.409852612475172573e-02
4.811999999999999744e+01,8.479954380205877162e-02
4.815999999999999659e+01,6.829485797760632970e-02
4.820000000000000284e+01,4.419660001007837125e-02
4.824000000000000199e+01,6.071939325435622703e-02
4.828000000000000114e+01,5.787969333233484309e-02
4.832000000000000028e+01,5.010392385069997734e-02
4.835999999999999943e+01,3.435494450133953076e-02
4.839999999999999858e+01,4.897666860033614289e-02
4.843999999999999773e+01,4.955090221538297618e-02
4.847999999999999687e+01,4.367050046476644853e-02
4.852000000000000313e+01,5.297509813737140416e-02
4.856000000000000227e+01,5.126935060328866034e-02
4.860000000000000142e+01,3.551611755440597235e-02
4.864000000000000057e+01,2.507717761680859983e-02
4.867999999999999972e+01,4.007538893185852262e-03
4.871999999999999886e+01,2.242003820741894290e-02
4.875999999999999801e+01,4.159112203420039372e-02
4.879999999999999716e+01,2.545473570482212691e-02
4.884000000000000341e+01,2.374407334936536398e-02
4.888000000000000256e+01,2.241235653951942700e-02
4.892000000000000171e+01,3.170993925017047410e-02
4.896000000000000085e+01,1.253362526221098866e-02
4.900000000000000000e+01,2.600588951972062843e-02
4.903999999999999915e+01,2.277318307099333167e-02
4.907999999999999829e+01,3.814227768171184890e-02
4.911999999999999744e+01,5.275139721036638252e-02
4.915999999999999659e+01,1.800627809285052644e-02
4.920000000000000284e+01,3.299366465323901043e-02
4.924000000000000199e+01,2.937787324982834777e-02
4.928000000000000114e+01,9.436761287705496687e-03
4.932000000000000028e+01,3.732994526134982005e-02
4.935999999999999943e+01,3.940674381585827779e-02
4.939999999999999858e+01,3.768643443391547082e-02
4.943999999999999773e+01,3.596544529580845972e-02
4.947999999999999687e+01,3.424377764382474654e-02
4.952000000000000313e+01,2.910464847605231248e-02
4.956000000000000227e+01,4.408590605037550347e-02
4.960000000000000142e+01,3.135257219028803749e-02
4.964000000000000057e+01,2.545213327387301286e-02
4.967999999999999972e+01,2.258816360541827592e-02
4.971999999999999886e+01,2.617744867141102993e-02
4.975999999999999801e+01,3.887748857073839576e-02
4.979999999999999716e+01,3.373365328589122969e-02
4.984000000000000341e+01,4.415450111355282564e-02
4.988000000000000256e+01,3.787040432301478493e-02
4.992000000000000171e+01,2.665028766436322583e-02
4.996000000000000085e+01,2.492057474428360092e-02
5.000000000000000000e+01,1.749555905306538275e-02
5.003999999999999915e+01,3.208915848039273211e-02
5.007999999999999829e+01,5.921030692355405689e-02
5.011999999999999744e+01,4.115331616724443586e-02
5.015999999999999659e+01,3.410530613614415341e-02
5.020000000000000284e+01,2.022307146394287936e-02
5.024000000000000199e+01,3.898945354812321379e-02
5.028000000000000114e+01,1.561484295238205200e-02
5.032000000000000028e+01,4.083384473719548630e-02
5.035999999999999943e+01,4.213470562906017347e-02
5.039999999999999858e+01,2.179528303306315154e-02
5.043999999999999773e+01,2.878948569168600022e-02
5.047999999999999687e+01,5.134839133941744571e-02
5.052000000000000313e+01,2.341417249735354422e-02
5.056000000000000227e+01,2.774893765617121935e-02
5.060000000000000142e+01,2.980520292236229010e-02
5.064000000000000057e+01,2.730511337541471559e-02
5.067999999999999972e+01,4.834222959881219472e-02
5.071999999999999886e+01,4.660014419124833274e-02
5.075999999999999801e+01,4.257956386020791267e-02
5.079999999999999716e+01,3.210442021617888192e-02
5.084000000000000341e+01,3.301792111004660940e-02
5.088000000000000256e+01,3.658828582669961665e-02
5.092000000000000171e+01,2.649087977502746077e-02
5.096000000000000085e+01,1.829105464311577001e-02
5.100000000000000000e+01,3.059130366944956894e-02
5.103999999999999915e+01,2.390878794112137953e-02
5.107999999999999829e+01,3.317063653001433438e-02
5.111999999999999744e+01,3.711685982561858943e-02
5.115999999999999659e+01,4.789602527182013764e-02
5.120000000000000284e+01,2.374743779291155210e-02
5.124000000000000199e+01,3.452535429037176251e-02
5.128000000000000114e+01,3.922836507609336193e-02
5.132000000000000028e+01,4.203254102416324051e-02
5.135999999999999943e+01,4.179895529546916871e-02
5.139999999999999858e+01,5.295403149669670323e-02
5.143999999999999773e+01,3.259814647073875499e-02
5.147999999999999687e+01,2.780699549107705157e-02
5.152000000000000313e+01,2.567272821080047659e-02
5.156000000000000227e+01,0.000000000000000000e+00
5.160000000000000142e+01,4.607912824475100810e-02
5.164000000000000057e+01,4.090588139615653623e-02
5.167999999999999972e+01,3.914880860369717580e-02
5.171999999999999886e+01,3.890969764066080222e-02
5.175999999999999801e+01,2.652141277253637977e-02
5.179999999999999716e+01,2.476251686960875137e-02
5.184000000000000341e+01,3.211444039896552138e-02
5.188000000000000256e+01,3.301183415709611768e-02
5.192000000000000171e+01,3.428826787468712556e-02
5.196000000000000085e+01,1.582268002262877254e-02
5.200000000000000000e+01,2.924647820000189635e-02
5.203999999999999915e+01,3.925289312569842787e-02
5.207999999999999829e+01,2.799871943340815142e-02
5.211999999999999744e+01,2.813323003221458035e-02
5.215999999999999659e+01,2.523000380000677695e-02
5.220000000000000284e+01,3.067832279307097787e-02
5.224000000000000199e+01,4.068176131569516130e-02
5.228000000000000114e+01,2.562819049377044328e-02
5.232000000000000028e+01,2.803759327517899025e-02
5.235999999999999943e+01,2.589069466181113596e-02
5.239999999999999858e+01,3.968820136115182307e-02
5.243999999999999773e+01,3.184548792929314115e-02
5.247999999999999687e+01,1.792790605432070458e-02
5.252000000000000313e+01,3.589972635851730598e-02
5.256000000000000227e+01,1.856419328157875998e-02
5.260000000000000142e+01,2.628449637998494376e-02
5.264000000000000057e+01,2.375386637262811781e-02
5.267999999999999972e+01,3.147300996699272518e-02
5.271999999999999886e+01,2.818193755256924796e-02
5.275999999999999801e+01,2.792743004224332998e-02
5.279999999999999716e+01,2.615377635270321743e-02
5.284000000000000341e+01,4.488025396663324756e-02
5.288000000000000256e+01,3.589224201372726020e-02
5.292000000000000171e+01,4.095043805426749201e-02
5.296000000000000085e+01,3.651699631494431664e-02
5.300000000000000000e+01,2.562905958844491350e-02
5.303999999999999915e+01,4.587125580325202012e-02
5.307999999999999829e+01,3.042647209286149929e-02
5.311999999999999744e+01,4.876932266495207641e-02
5.315999999999999659e+01,4.357376199801866329e-02
5.320000000000000284e+01,3.192371255534642849e-02
5.324000000000000199e+01,2.065274406762197118e-02
5.328000000000000114e+01,3.747477442452942092e-02
5.332000000000000028e+01,2.848054234876312013e-02
5.335999999999999943e+01,2.973610499360581499e-02
5.339999999999999858e+01,2.377789968654728942e-02
5.343999999999999773e+01,2.844913427847291926e-02
5.347999999999999687e+01,2.476767532167234789e-02
5.352000000000000313e+01,4.310493956242932717e-02
5.356000000000000227e+01,1.664381413424004946e-02
5.360000000000000142e+01,2.359069520218175925e-02
5.364000000000000057e+01,3.357416850454596202e-02
5.367999999999999972e+01,4.203852295802068539e-02
5.371999999999999886e+01,3.493698013429537980e-02
5.375999999999999801e+01,3.466846020985450694e-02
5.379999999999999716e+01,3.705689479518604890e-02
5.384000000000000341e+01,1.818479542318069200e-02
5.388000000000000256e+01,2.740571353011958880e-02
5.392000000000000171e+01,4.118180334269324477e-02
5.396000000000000085e+01,3.901236063799184278e-02
5.400000000000000000e+01,3.608309441030070619e-02
5.403999999999999915e+01,4.682042826630568311e-02
5.407999999999999829e+01,5.527937030869629204e-02
5.411999999999999744e+01,3.602386129516332858e-02
5.415999999999999659e+01,5.814887273958527225e-02
5.420000000000000284e+01,5.749479063205797241e-02
5.424000000000000199e+01,4.317304086606787994e-02
5.428000000000000114e+01,4.441611210649844960e-02
5.432000000000000028e+01,3.085259009164111055e-02
5.435999999999999943e+01,2.677960846698054787e-02
5.439999999999999858e+01,5.231823124620134380e-02
5.443999999999999773e+01,3.761420401240006539e-02
5.447999999999999687e+01,4.530857248485622296e-02
5.452000000000000313e+01,4.882634933986076259e-02
5.456000000000000227e+01,5.348253353290034068e-02
5.460000000000000142e+01,4.523034663566435909e-02
5.464000000000000057e+01,3.394049992923907355e-02
5.467999999999999972e+01,5.529940787310726191e-02
5.471999999999999886e+01,5.084209686436415299e-02
5.475999999999999801e+01,4.258784438569420544e-02
5.479999999999999716e+01,3.926843363678382548e-02
5.484000000000000341e+01,2.455923002652265694e-02
5.488000000000000256e+01,3.376700532059378340e-02
5.492000000000000171e+01,3.727963064488819256e-02
5.496000000000000085e+01,5.635709809449090946e-02
5.500000000000000000e+01,4.392371488049538059e-02
5.503999999999999915e+01,4.174017856318383568e-02
5.507999999999999829e+01,4.752863422204389038e-02
5.511999999999999744e+01,3.547337992096648296e-02
5.515999999999999659e+01,4.012190203803465971e-02
5.520000000000000284e+01,5.957598834653611564e-02
5.524000000000000199e+01,3.802816410016553184e-02
5.528000000000000114e+01,5.368482546400044769e-02
5.532000000000000028e+01,3.896957418393685174e-02
5.535999999999999943e+01,2.349454161865851404e-02
5.539999999999999858e+01,5.357613765404707629e-02
5.543999999999999773e+01,3.354440469480225728e-02
5.547999999999999687e+01,4.881895008820058557e-02
5.552000000000000313e+01,5.004622488253581553e-02
5.556000000000000227e+01,4.330051342089488026e-02
5.560000000000000142e+01,4.718430894176259272e-02
5.564000000000000057e+01,5.030833187342814705e-02
5.567999999999999972e+01,5.950615194657814244e-02
5.571999999999999886e+01,3.529493024830493431e-02
5.575999999999999801e+01,4.145464057928801432e-02
5.579999999999999716e+01,2.863173398782115422e-02
5.584000000000000341e+01,5.073547423578505383e-02
5.588000000000000256e+01,4.702303155747483004e-02
5.592000000000000171e+01,4.217118229217479974e-02
5.596000000000000085e+01,5.136563543417078936e-02
5.600000000000000000e+01,3.132712513255547088e-02
5.603999999999999915e+01,4.431705441280856667e-02
5.607999999999999829e+01,5.388972591242235238e-02
5.611999999999999744e+01,4.485943312168602648e-02
5.615999999999999659e+01,4.911616356208311357e-02
5.620000000000000284e+01,3.325136142150541402e-02
5.624000000000000199e+01,5.383178931843312504e-02
5.628000000000000114e+01,5.922604213836037829e-02
5.632000000000000028e+01,5.171197728637431240e-02
5.635999999999999943e+01,5.330887224515977463e-02
5.639999999999999858e+01,5.224780474920558138e-02
5.643999999999999773e+01,4.131556485860018307e-02
5.647999999999999687e+01,5.278178278862718370e-02
5.652000000000000313e+01,3.767255228137995904e-02
5.656000000000000227e+01,4.837856632353957492e-02
5.660000000000000142e+01,5.187091179679774455e-02
5.664000000000000057e+01,4.625137647444198946e-02
5.667999999999999972e+01,4.860388281975786678e-02
5.671999999999999886e+01,4.867807934243405243e-02
5.675999999999999801e+01,5.406682116075720718e-02
5.679999999999999716e+01,4.388976135801721939e-02
5.684000000000000341e+01,6.370402443249603697e-02
5.688000000000000256e+01,3.302536054089134226e-02
5.692000000000000171e+01,4.334766013127886591e-02
5.696000000000000085e+01,3.810416306975344947e-02
5.700000000000000000e+01,4.728664340879878275e-02
5.703999999999999915e+01,6.330224851470318825e-02
5.707999999999999829e+01,5.843706298235774865e-02
5.711999999999999744e+01,4.521929694944838707e-02
5.715999999999999659e+01,5.326108177465895682e-02
5.720000000000000284e+01,4.611672009548133805e-02
5.724000000000000199e+01,4.732406016980014729e-02
5.728000000000000114e+01,6.181845825930234323e-02
5.732000000000000028e+01,4.783921928828054060e-02
5.735999999999999943e+01,4.524882734801728701e-02
5.739999999999999858e+01,3.582443437840250600e-02
5.743999999999999773e+01,5.866923908311851010e-02
5.747999999999999687e+01,5.569791055306022587e-02
5.752000000000000313e+01,4.551294202671292422e-02
5.756000000000000227e+01,6.607860412635910285e-02
5.760000000000000142e+01,4.336457280329573255e-02
5.764000000000000057e+01,5.216045997840088044e-02
5.767999999999999972e+01,6.665056371556529746e-02
5.771999999999999886e+01,5.000954395848097173e-02
5.775999999999999801e+01,6.753594528302736544e-02
5.779999999999999716e+01,5.772765253589966228e-02
5.784000000000000341e+01,4.829858360678178364e-02
5.788000000000000256e+01,5.747158904035896965e-02
5.792000000000000171e+01,6.284775114472167246e-02
5.796000000000000085e+01,5.759350267375804022e-02
5.800000000000000000e+01,5.879276609075356069e-02
5.803999999999999915e+01,4.480590909139836597e-02
5.807999999999999829e+01,7.182005160037303881e-02
5.811999999999999744e+01,7.453665152637306557e-02
5.815999999999999659e+01,7.345641557688348255e-02
5.820000000000000284e+01,6.478291805619237897e-02
5.824000000000000199e+01,6.901686567178438869e-02
5.828000000000000114e+01,5.692577224335087366e-02
5.832000000000000028e+01,5.508462757917607228e-02
5.835999999999999943e+01,4.868736786334910277e-02
5.839999999999999858e+01,6.468862559795422740e-02
5.843999999999999773e+01,4.728092603668590521e-02
5.847999999999999687e+01,5.113281832902482477e-02
5.852000000000000313e+01,5.764181172106074696e-02
5.856000000000000227e+01,5.883541088528217861e-02
5.860000000000000142e+01,5.015790473837737629e-02
5.864000000000000057e+01,6.729570773982902765e-02
5.867999999999999972e+01,5.368205975573189792e-02
5.871999999999999886e+01,6.474479532316658459e-02
5.875999999999999801e+01,6.062143283542545391e-02
5.879999999999999716e+01,6.484982055039310855e-02
5.884000000000000341e+01,7.287424738475760388e-02
5.888000000000000256e+01,5.736044062721003256e-02
5.892000000000000171e+01,5.323552934963320105e-02
5.896000000000000085e+01,5.632344516251531347e-02
5.900000000000000000e+01,6.472597583914418973e-02
5.903999999999999915e+01,5.946098793180946973e-02
5.907999999999999829e+01,5.191776349679738667e-02
5.911999999999999744e+01,5.234665650899424094e-02
5.915999999999999659e+01,6.036802551688723317e-02
5.920000000000000284e+01,6.459259094876555751e-02
5.924000000000000199e+01,6.046464172131733872e-02
5.928000000000000114e+01,5.140096332102942617e-02
5.932000000000000028e+01,6.853225788178547717e-02
5.935999999999999943e+01,6.326426183947912729e-02
5.939999999999999858e+01,5.951446614579498917e-02
5.943999999999999773e+01,5.082894624842116543e-02
5.947999999999999687e+01,5.770840885484265076e-02
5.952000000000000313e+01,7.256000133134790642e-02
5.956000000000000227e+01,7.640159023022682905e-02
5.960000000000000142e+01,5.898282406116817089e-02
5.964000000000000057e+01,5.636975997745500427e-02
5.967999999999999972e+01,5.527490493837625835e-02
5.971999999999999886e+01,6.329111406221855918e-02
5.975999999999999801e+01,6.485303814547145607e-02
5.979999999999999716e+01,6.755353230642156814e-02
5.984000000000000341e+01,7.936509435715510818e-02
5.988000000000000256e+01,7.257380889256344336e-02
5.992000000000000171e+01,7.527323649613019974e-02
5.996000000000000085e+01,6.430517408834583726e-02
