2.003999999999999915e+01,5.363514456763022187e-01
2.007999999999999829e+01,4.507508970847275975e-01
2.012000000000000099e+01,4.352091968615002804e-01
2.016000000000000014e+01,3.183234659580093107e-01
2.019999999999999929e+01,3.323168318095845453e-01
2.023999999999999844e+01,5.085209391723850558e-01
2.028000000000000114e+01,4.967579198248270322e-01
2.032000000000000028e+01,4.315697215508729756e-01
2.035999999999999943e+01,3.129562899732505343e-01
2.039999999999999858e+01,4.100015750371555079e-01
2.044000000000000128e+01,2.619452409912231827e-01
2.048000000000000043e+01,4.825199282484692320e-01
2.051999999999999957e+01,2.054962534483344427e-01
2.055999999999999872e+01,2.473413808084291843e-01
2.060000000000000142e+01,3.518725395074889795e-01
2.064000000000000057e+01,3.513729327480727971e-01
2.067999999999999972e+01,1.831791078860310895e-01
2.071999999999999886e+01,2.232714001453452723e-01
2.076000000000000156e+01,5.711739759255501925e-01
2.080000000000000071e+01,2.703484367167603986e-01
2.083999999999999986e+01,3.934446631805859629e-01
2.087999999999999901e+01,4.999757719461209171e-01
2.092000000000000171e+01,3.319159510666045421e-01
2.096000000000000085e+01,4.827243885745905461e-01
2.100000000000000000e+01,3.921165279419139837e-01
2.103999999999999915e+01,3.641941004982015007e-01
2.107999999999999829e+01,3.326075713483086504e-01
2.112000000000000099e+01,3.157872973699288877e-01
2.116000000000000014e+01,1.920925099030299510e-01
2.119999999999999929e+01,3.153870506656362149e-01
2.123999999999999844e+01,3.520804215656381797e-01
2.128000000000000114e+01,3.427194729866806511e-01
2.132000000000000028e+01,2.356989990375933375e-01
2.135999999999999943e+01,3.093181552910534982e-01
2.139999999999999858e+01,4.474652964635172370e-01
2.144000000000000128e+01,2.502004439450022377e-01
2.148000000000000043e+01,3.441575260269969516e-01
2.151999999999999957e+01,2.943787827150896597e-01
2.155999999999999872e+01,3.183430124405762229e-01
2.160000000000000142e+01,4.031488729477097910e-01
2.164000000000000057e+01,3.939808553175231931e-01
2.167999999999999972e+01,3.940492082005402352e-01
2.171999999999999886e+01,3.886095482155162983e-01
2.176000000000000156e+01,2.302185309454696238e-01
2.180000000000000071e+01,3.593629310067585902e-01
2.183999999999999986e+01,3.281837005264949259e-01
2.187999999999999901e+01,3.541596379359746583e-01
2.192000000000000171e+01,2.327131239278304731e-01
2.196000000000000085e+01,4.227613443733821419e-01
2.200000000000000000e+01,1.502269721868855767e-01
2.203999999999999915e+01,1.928733079505327852e-01
2.207999999999999829e+01,5.488572561615537859e-01
2.212000000000000099e+01,3.114025286984673513e-01
2.216000000000000014e+01,2.250976858845299411e-01
2.219999999999999929e+01,3.415478248563657004e-01
2.223999999999999844e+01,3.032029128904085713e-01
2.228000000000000114e+01,4.086355579397967230e-01
2.232000000000000028e+01,3.500578376693634919e-01
2.235999999999999943e+01,9.429495744290504466e-02
2.239999999999999858e+01,2.716669278028983059e-01
2.244000000000000128e+01,2.149928069423923116e-01
2.248000000000000043e+01,4.591325476687409257e-02
2.251999999999999957e+01,2.860088554145368001e-01
2.255999999999999872e+01,3.565646411022538320e-01
2.260000000000000142e+01,1.930741180603795237e-01
2.264000000000000057e+01,2.046923617718326149e-01
2.267999999999999972e+01,3.895762767338430965e-01
2.271999999999999886e+01,1.210918259003771202e-01
2.276000000000000156e+01,4.110685327916610565e-01
2.280000000000000071e+01,3.011249577723174031e-01
2.283999999999999986e+01,3.847202888748999516e-01
2.287999999999999901e+01,3.337931513837843478e-01
2.292000000000000171e+01,1.409713264197113569e-01
2.296000000000000085e+01,2.651719998540032486e-01
2.300000000000000000e+01,3.211995220806460050e-01
2.303999999999999915e+01,3.827754837422224221e-01
2.307999999999999829e+01,3.135147871747295256e-01
2.312000000000000099e+01,2.977214905505299325e-01
2.316000000000000014e+01,3.611981152492992897e-01
2.319999999999999929e+01,1.758832865554132430e-01
2.323999999999999844e+01,3.297070691249362473e-01
2.328000000000000114e+01,2.531697008022226192e-01
2.332000000000000028e+01,2.909198176778183820e-01
2.335999999999999943e+01,2.181063480638943952e-01
2.339999999999999858e+01,1.582129929914314059e-01
2.344000000000000128e+01,1.831183019775186327e-01
2.348000000000000043e+01,2.209436167505239856e-01
2.351999999999999957e+01,2.882762530626398756e-01
2.355999999999999872e+01,2.137133318654337866e-01
2.360000000000000142e+01,1.575993766998160239e-01
2.364000000000000057e+01,3.171397336166248970e-01
2.367999999999999972e+01,2.113006144840348099e-01
2.371999999999999886e+01,3.266448220558145210e-01
2.376000000000000156e+01,2.448019664670175732e-01
2.380000000000000071e+01,2.422281621648225136e-01
2.383999999999999986e+01,1.899104759872141668e-01
2.387999999999999901e+01,2.463503903496066239e-01
2.392000000000000171e+01,2.254006971995916597e-01
2.396000000000000085e+01,3.574414828469448802e-01
2.400000000000000000e+01,1.614389591598423546e-01
2.403999999999999915e+01,4.335868379754360125e-01
2.407999999999999829e+01,2.265619264113294395e-01
2.412000000000000099e+01,1.430386181275546398e-01
2.416000000000000014e+01,6.321918558957720369e-02
2.419999999999999929e+01,2.506584553661034831e-01
2.423999999999999844e+01,3.164746956001278644e-01
2.428000000000000114e+01,3.765987572932064792e-02
2.432000000000000028e+01,3.891826967639811508e-01
2.435999999999999943e+01,1.970259073856557019e-01
2.439999999999999858e+01,3.421631112043307943e-01
2.444000000000000128e+01,3.435605200881857169e-01
2.448000000000000043e+01,2.859979714327787748e-01
2.451999999999999957e+01,2.708426727631359499e-01
2.455999999999999872e+01,1.911981844231974703e-01
2.460000000000000142e+01,3.253636619856389300e-01
2.464000000000000057e+01,1.388571246792455471e-01
2.467999999999999972e+01,2.841150765524521060e-01
2.471999999999999886e+01,1.695212619436589629e-01
2.476000000000000156e+01,1.212939056884449890e-01
2.480000000000000071e+01,3.476966005906269586e-01
2.483999999999999986e+01,2.681713377415814170e-01
2.487999999999999901e+01,2.278918830175682281e-02
2.492000000000000171e+01,8.152558489544917131e-02
2.496000000000000085e+01,1.163191528070382230e-01
2.500000000000000000e+01,0.000000000000000000e+00
2.503999999999999915e+01,2.338752582320724194e-01
2.507999999999999829e+01,2.908351112340220590e-01
2.512000000000000099e+01,7.872744835376084549e-02
2.516000000000000014e+01,2.831635138986584033e-01
2.519999999999999929e+01,4.157373552349095114e-01
2.523999999999999844e+01,3.621803682044657524e-01
2.528000000000000114e+01,2.570345005912887948e-01
2.532000000000000028e+01,2.643303581872804009e-01
2.535999999999999943e+01,1.702751160575925460e-01
2.539999999999999858e+01,1.075676808606882279e-01
2.544000000000000128e+01,2.015347947530476136e-01
2.548000000000000043e+01,1.904645635369144607e-01
2.551999999999999957e+01,2.291723873767121666e-01
2.555999999999999872e+01,1.573136339769819758e-01
2.560000000000000142e+01,3.324382273067462701e-01
2.564000000000000057e+01,2.624541324812026399e-01
2.567999999999999972e+01,2.846378210889141669e-01
2.571999999999999886e+01,2.091560028264819737e-01
2.576000000000000156e+01,1.373758852189320423e-01
2.580000000000000071e+01,8.219870176746853219e-02
2.583999999999999986e+01,2.187133050169684789e-01
2.587999999999999901e+01,1.838405388673814977e-01
2.592000000000000171e+01,2.227048186324466494e-01
2.596000000000000085e+01,2.855439795464914665e-01
2.600000000000000000e+01,3.576136382282704140e-01
2.603999999999999915e+01,3.780933831591316574e-01
2.607999999999999829e+01,2.105981166750729439e-01
2.612000000000000099e+01,1.610726112312161895e-01
2.616000000000000014e+01,3.714309791135069205e-01
2.619999999999999929e+01,2.813886637937800805e-01
2.623999999999999844e+01,3.535489333943494517e-01
2.628000000000000114e+01,2.930251534585248674e-01
2.632000000000000028e+01,2.325162306447700888e-01
2.635999999999999943e+01,9.461438330496715898e-02
2.639999999999999858e+01,5.520295678680109397e-01
2.644000000000000128e+01,2.077365568303913279e-01
2.648000000000000043e+01,2.394385750070088525e-01
2.651999999999999957e+01,1.624157520150473211e-01
2.655999999999999872e+01,1.185822001404522874e-01
2.660000000000000142e+01,3.770218693284225764e-01
2.664000000000000057e+01,2.945133524034524442e-01
2.667999999999999972e+01,1.419836404362360971e-01
2.671999999999999886e+01,1.885166833719682800e-01
2.676000000000000156e+01,2.756108900406904483e-01
2.680000000000000071e+01,2.226481757664844352e-01
2.683999999999999986e+01,2.507934212316426104e-01
2.687999999999999901e+01,2.291906521486494763e-01
2.692000000000000171e+01,4.121794894587290092e-01
2.696000000000000085e+01,3.113539805280751138e-01
2.700000000000000000e+01,1.718385406704293628e-01
2.703999999999999915e+01,2.682462432074766423e-01
2.707999999999999829e+01,4.089007567103227214e-01
2.712000000000000099e+01,1.735886501885249289e-01
2.716000000000000014e+01,1.944729753100620240e-01
2.719999999999999929e+01,2.706621950185581493e-01
2.723999999999999844e+01,3.487080622973444122e-01
2.728000000000000114e+01,3.862205768827330910e-01
2.732000000000000028e+01,2.375994354832393629e-01
2.735999999999999943e+01,3.083136313307873189e-01
2.739999999999999858e+01,2.647726663332658492e-01
2.744000000000000128e+01,2.470476116511234332e-01
2.748000000000000043e+01,2.809409886640372722e-01
2.751999999999999957e+01,4.751921693990188156e-01
2.755999999999999872e+01,3.119065432143195427e-01
2.760000000000000142e+01,2.463152137302661304e-01
2.764000000000000057e+01,2.323420984321767913e-01
2.767999999999999972e+01,2.810453896957570974e-01
2.771999999999999886e+01,1.767892214606602841e-01
2.776000000000000156e+01,3.231995458333167259e-01
2.780000000000000071e+01,2.816325205683190558e-01
2.783999999999999986e+01,2.382352449635276870e-01
2.787999999999999901e+01,3.386079135558813236e-01
2.792000000000000171e+01,3.800159481635079217e-01
2.796000000000000085e+01,2.039577576164472439e-01
2.800000000000000000e+01,4.057355710727509335e-01
2.803999999999999915e+01,3.974192151218075564e-01
2.807999999999999829e+01,2.361429102767321209e-01
2.812000000000000099e+01,1.651880307257701241e-01
2.816000000000000014e+01,3.135674008763938980e-01
2.819999999999999929e+01,2.868701654951094082e-01
2.823999999999999844e+01,4.057854260410111991e-01
2.828000000000000114e+01,1.653198597508236667e-01
2.832000000000000028e+01,2.400264641789428277e-01
2.835999999999999943e+01,3.276464403666897174e-01
2.839999999999999858e+01,5.774660651019984936e-01
2.844000000000000128e+01,5.139806736295370326e-01
2.848000000000000043e+01,5.002693132948120569e-01
2.851999999999999957e+01,5.750357933559772095e-01
2.855999999999999872e+01,3.125375594460997331e-01
2.860000000000000142e+01,1.956513320679511281e-01
2.864000000000000057e+01,1.395971650714279144e-01
2.867999999999999972e+01,4.189881317782141457e-01
2.871999999999999886e+01,3.205672622439461605e-01
2.876000000000000156e+01,2.203148916926086776e-01
2.880000000000000071e+01,2.048538986452568822e-01
2.883999999999999986e+01,4.234705598898232948e-01
2.887999999999999901e+01,1.647509466074420781e-01
2.892000000000000171e+01,2.949243334041262155e-01
2.896000000000000085e+01,1.431236962219301079e-01
2.900000000000000000e+01,3.415120867288316542e-01
2.903999999999999915e+01,3.906253055380446426e-01
2.907999999999999829e+01,3.439114909116909868e-01
2.912000000000000099e+01,2.824643979943365912e-01
2.916000000000000014e+01,3.684715914523896130e-01
2.919999999999999929e+01,2.812438610722102217e-01
2.923999999999999844e+01,2.659056221675399900e-01
2.928000000000000114e+01,1.823856948233851250e-01
2.932000000000000028e+01,4.085074553892241722e-01
2.935999999999999943e+01,2.494443451756581109e-01
2.939999999999999858e+01,3.926506496155560688e-01
2.944000000000000128e+01,3.792090740830512674e-01
2.948000000000000043e+01,3.086437849776751952e-01
2.951999999999999957e+01,3.873753339777452065e-01
2.955999999999999872e+01,3.905526493954347700e-01
2.960000000000000142e+01,4.306011855087475970e-01
2.964000000000000057e+01,4.596018186775073788e-01
2.967999999999999972e+01,4.038328495045834243e-01
2.971999999999999886e+01,4.402261716603572683e-01
2.976000000000000156e+01,3.310294255785225515e-01
2.980000000000000071e+01,2.642327516824384270e-01
2.983999999999999986e+01,4.130819613914858413e-01
2.987999999999999901e+01,4.181839808566042427e-01
2.992000000000000171e+01,1.689562881707398212e-01
2.996000000000000085e+01,4.136735259081397165e-01
3.000000000000000000e+01,2.805771873317537968e-01
3.003999999999999915e+01,3.649695015996344272e-01
3.007999999999999829e+01,3.166726004901993519e-01
3.012000000000000099e+01,4.084565161996356886e-01
3.016000000000000014e+01,3.620219844007234178e-01
3.019999999999999929e+01,3.690452277678091253e-01
3.023999999999999844e+01,3.631767114057508072e-01
3.028000000000000114e+01,3.978645735766704328e-01
3.032000000000000028e+01,2.519438248437328998e-01
3.035999999999999943e+01,3.308834584388630207e-01
3.039999999999999858e+01,4.724958009411083237e-01
3.044000000000000128e+01,3.210738607524004640e-01
3.048000000000000043e+01,2.267953973397731915e-01
3.051999999999999957e+01,4.605874017739174930e-01
3.055999999999999872e+01,4.179323305147581991e-01
3.060000000000000142e+01,4.084610382684070728e-01
3.064000000000000057e+01,3.197479620023159774e-01
3.067999999999999972e+01,2.826489672494526539e-01
3.071999999999999886e+01,4.114325494133169725e-01
3.076000000000000156e+01,3.485486757703445959e-01
3.080000000000000071e+01,3.630812962657302134e-01
3.083999999999999986e+01,4.863620556556387808e-01
3.087999999999999901e+01,3.903295792244474982e-01
3.092000000000000171e+01,2.427005550150497237e-01
3.096000000000000085e+01,4.047109892474592963e-01
3.100000000000000000e+01,3.529371479034376646e-01
3.103999999999999915e+01,2.256070610179419511e-01
3.107999999999999829e+01,2.457286503987534121e-01
3.112000000000000099e+01,3.211498053937847375e-01
3.116000000000000014e+01,4.997895408886662283e-01
3.119999999999999929e+01,4.240978241598341580e-01
3.123999999999999844e+01,3.871181397839350558e-01
3.128000000000000114e+01,5.326076411724113280e-01
3.132000000000000028e+01,2.449905380322085213e-01
3.135999999999999943e+01,3.794378582163619451e-01
3.139999999999999858e+01,4.954627183539704882e-01
3.144000000000000128e+01,3.460975532512487463e-01
3.148000000000000043e+01,3.386543972656193557e-01
3.151999999999999957e+01,5.081509774042403116e-01
3.155999999999999872e+01,3.366926830253613168e-01
3.160000000000000142e+01,5.191059640638361339e-01
3.164000000000000057e+01,4.416580713521072732e-01
3.167999999999999972e+01,3.494734202039144755e-01
3.171999999999999886e+01,2.867849432538998600e-01
3.176000000000000156e+01,4.784436034353439227e-01
3.180000000000000071e+01,3.881243788515357784e-01
3.183999999999999986e+01,4.434127562403574196e-01
3.187999999999999901e+01,4.028702937845118348e-01
3.192000000000000171e+01,3.217881708716172073e-01
3.196000000000000085e+01,4.416047205644244023e-01
3.200000000000000000e+01,4.784915551592208161e-01
3.203999999999999915e+01,4.619372782866750793e-01
3.207999999999999829e+01,5.651877013661723570e-01
3.211999999999999744e+01,4.859840254390375702e-01
3.215999999999999659e+01,3.109491290263259877e-01
3.220000000000000284e+01,4.566102521129418723e-01
3.224000000000000199e+01,4.493057710690483431e-01
3.228000000000000114e+01,4.991423198239575698e-01
3.232000000000000028e+01,3.794257855643451416e-01
3.235999999999999943e+01,2.707741442115790265e-01
3.239999999999999858e+01,4.017244409499370339e-01
3.243999999999999773e+01,4.829191646992173625e-01
3.247999999999999687e+01,3.153098195285418681e-01
3.252000000000000313e+01,4.610238943370240094e-01
3.256000000000000227e+01,5.072201226362083037e-01
3.260000000000000142e+01,4.797010258057718968e-01
3.264000000000000057e+01,4.503451533627982339e-01
3.267999999999999972e+01,3.730764227926072762e-01
3.271999999999999886e+01,4.580014680245094172e-01
3.275999999999999801e+01,4.249779836057853144e-01
3.279999999999999716e+01,5.191303848501781504e-01
3.284000000000000341e+01,5.727418749602476433e-01
3.288000000000000256e+01,4.291539038915290205e-01
3.292000000000000171e+01,4.403872722365537173e-01
3.296000000000000085e+01,6.580470771319484324e-01
3.300000000000000000e+01,5.974134481948968345e-01
3.303999999999999915e+01,7.616365583086316393e-01
3.307999999999999829e+01,8.503006496399746483e-01
3.311999999999999744e+01,9.279121072040256157e-01
3.315999999999999659e+01,1.000000000000000000e+00
3.320000000000000284e+01,5.339253883821784008e-01
3.324000000000000199e+01,5.820647006317065664e-01
3.328000000000000114e+01,4.588065836866681013e-01
3.332000000000000028e+01,6.138530177909004015e-01
3.335999999999999943e+01,5.237802689261655820e-01
3.339999999999999858e+01,3.673632718883387271e-01
3.343999999999999773e+01,4.376455112540655890e-01
3.347999999999999687e+01,6.774926577556864560e-01
3.352000000000000313e+01,3.238856310604392164e-01
3.356000000000000227e+01,4.384160650769503009e-01
3.360000000000000142e+01,5.308349660459151798e-01
3.364000000000000057e+01,5.827118683351009132e-01
3.367999999999999972e+01,5.479706894298215225e-01
3.371999999999999886e+01,4.800595675922015304e-01
3.375999999999999801e+01,6.664928640223972689e-01
3.379999999999999716e+01,6.667836953495099861e-01
3.384000000000000341e+01,4.532863903138186212e-01
3.388000000000000256e+01,4.425281889002282698e-01
3.392000000000000171e+01,4.925948700682465931e-01
3.396000000000000085e+01,4.302405136439415578e-01
3.400000000000000000e+01,6.941088531181746069e-01
3.403999999999999915e+01,5.119656025307001146e-01
3.407999999999999829e+01,5.694220061888887185e-01
3.411999999999999744e+01,6.729586915383505286e-01
3.415999999999999659e+01,4.521243379770458759e-01
3.420000000000000284e+01,5.040642157885190100e-01
3.424000000000000199e+01,4.675422099982142199e-01
3.428000000000000114e+01,4.734141861390974149e-01
3.432000000000000028e+01,6.156751872342117737e-01
3.435999999999999943e+01,4.390940009086827800e-01
3.439999999999999858e+01,6.808870229837814536e-01
3.443999999999999773e+01,5.909364610052175726e-01
3.447999999999999687e+01,5.636530614519376092e-01
3.452000000000000313e+01,5.492746595582689295e-01
3.456000000000000227e+01,6.252089282177836216e-01
3.460000000000000142e+01,5.297439732327270390e-01
3.464000000000000057e+01,6.462322943290698118e-01
3.467999999999999972e+01,6.023795297792736703e-01
3.471999999999999886e+01,5.382567507437885368e-01
3.475999999999999801e+01,5.755046171281016365e-01
3.479999999999999716e+01,5.316620031308012528e-01
3.484000000000000341e+01,4.822935405199644254e-01
3.488000000000000256e+01,6.282906575974215313e-01
3.492000000000000171e+01,5.955159515101393630e-01
3.496000000000000085e+01,7.175598115956856038e-01
3.500000000000000000e+01,7.234951380288229261e-01
3.503999999999999915e+01,7.036308915815991938e-01
3.507999999999999829e+01,6.634961412532323077e-01
3.511999999999999744e+01,6.288934084233962496e-01
3.515999999999999659e+01,5.869213508363460008e-01
3.520000000000000284e+01,7.163549032879542589e-01
3.524000000000000199e+01,7.941860352158877090e-01
3.528000000000000114e+01,5.937206338068243827e-01
3.532000000000000028e+01,7.231622160972859259e-01
3.535999999999999943e+01,6.498718424415546036e-01
3.539999999999999858e+01,6.816373264202493232e-01
3.543999999999999773e+01,6.949748582478401104e-01
3.547999999999999687e+01,7.101578359275144692e-01
3.552000000000000313e+01,8.856877418746865738e-01
3.556000000000000227e+01,8.842879957462499441e-01
3.560000000000000142e+01,7.409763245493626860e-01
3.564000000000000057e+01,6.879758557192923174e-01
3.567999999999999972e+01,6.681522599883802371e-01
3.571999999999999886e+01,6.151560024614829425e-01
3.575999999999999801e+01,6.285112495381326436e-01
3.579999999999999716e+01,7.800965507354119532e-01
3.584000000000000341e+01,6.884023386983050274e-01
3.588000000000000256e+01,7.902293057921744301e-01
3.592000000000000171e+01,6.358753630186355643e-01
3.596000000000000085e+01,7.635084646453532686e-01
3.600000000000000000e+01,7.768747143133364341e-01
3.603999999999999915e+01,8.344755944379993462e-01
3.607999999999999829e+01,5.382141675348562915e-01
3.611999999999999744e+01,6.289929116761695527e-01
3.615999999999999659e+01,6.589527789890530229e-01
3.620000000000000284e+01,7.073444834925742830e-01
3.624000000000000199e+01,7.225628192955657614e-01
3.628000000000000114e+01,6.603747450088391924e-01
3.632000000000000028e+01,6.848108664242996690e-01
3.635999999999999943e+01,7.129342785173373720e-01
3.639999999999999858e+01,6.931397753967806219e-01
3.643999999999999773e+01,6.088399325558908615e-01
3.647999999999999687e+01,7.346478233163513671e-01
3.652000000000000313e+01,7.369729495860500856e-01
3.656000000000000227e+01,6.268735037406902855e-01
3.660000000000000142e+01,7.582133274983010596e-01
3.664000000000000057e+01,6.407434270995774339e-01
3.667999999999999972e+01,4.974717243523079646e-01
3.671999999999999886e+01,5.882669635742037162e-01
3.675999999999999801e+01,4.486827267629104887e-01
3.679999999999999716e+01,5.044614595308151150e-01
3.684000000000000341e+01,6.726662568533074982e-01
3.688000000000000256e+01,5.846888392538435175e-01
3.692000000000000171e+01,6.091373774544219799e-01
3.696000000000000085e+01,6.280571850460034966e-01
3.700000000000000000e+01,4.884757942351162230e-01
3.703999999999999915e+01,6.032343627556733257e-01
3.707999999999999829e+01,7.124640375354137634e-01
3.711999999999999744e+01,6.171163226434592808e-01
3.715999999999999659e+01,4.775357416207201000e-01
3.720000000000000284e+01,5.222593396514703112e-01
3.724000000000000199e+01,6.407045948286570480e-01
3.728000000000000114e+01,6.043343532134584084e-01
3.732000000000000028e+01,6.472147833666399563e-01
3.735999999999999943e+01,6.311177464987006713e-01
3.739999999999999858e+01,5.394558181029014410e-01
3.743999999999999773e+01,5.196722338416772669e-01
3.747999999999999687e+01,4.759288008119454960e-01
3.752000000000000313e+01,6.496638520764552727e-01
3.756000000000000227e+01,7.441477120530209932e-01
3.760000000000000142e+01,5.842914194422152985e-01
3.764000000000000057e+01,6.566577769978038104e-01
3.767999999999999972e+01,6.755753558905781553e-01
3.771999999999999886e+01,4.843856060760758364e-01
3.775999999999999801e+01,6.820768389633394824e-01
3.779999999999999716e+01,6.567593465103054307e-01
3.784000000000000341e+01,8.046869163214179776e-01
3.788000000000000256e+01,8.272868316889941953e-01
3.792000000000000171e+01,8.148680533850836127e-01
3.796000000000000085e+01,5.646960032278131036e-01
3.800000000000000000e+01,7.992427480344812540e-01
3.803999999999999915e+01,8.199956468646975027e-01
3.807999999999999829e+01,6.675015501021084319e-01
3.811999999999999744e+01,8.375384661279600129e-01
3.815999999999999659e+01,7.550775094101171980e-01
3.820000000000000284e+01,8.016281385490526823e-01
3.824000000000000199e+01,7.928861866178577023e-01
3.828000000000000114e+01,6.440717074664276121e-01
3.832000000000000028e+01,5.468609237691102187e-01
3.835999999999999943e+01,7.426921685886549440e-01
3.839999999999999858e+01,6.215187750084960605e-01
3.843999999999999773e+01,4.985007211112363890e-01
3.847999999999999687e+01,4.768482555473994577e-01
3.852000000000000313e+01,5.344448304337572342e-01
3.856000000000000227e+01,5.385914303572979511e-01
3.860000000000000142e+01,4.782297541877705283e-01
3.864000000000000057e+01,4.786865440816554518e-01
3.867999999999999972e+01,4.865135530222847171e-01
3.871999999999999886e+01,3.597965599691658745e-01
3.875999999999999801e+01,4.487133243893347556e-01
3.879999999999999716e+01,4.897089109595380574e-01
3.884000000000000341e+01,5.823074860793069352e-01
3.888000000000000256e+01,4.334654564174488800e-01
3.892000000000000171e+01,3.343832654251137626e-01
3.896000000000000085e+01,3.385090513644238852e-01
3.900000000000000000e+01,4.808605412425368542e-01
3.903999999999999915e+01,3.264799750650399512e-01
3.907999999999999829e+01,5.351760213823558709e-01
3.911999999999999744e+01,3.273422297322528540e-01
3.915999999999999659e+01,3.480429396611830484e-01
3.920000000000000284e+01,3.466245037243683158e-01
3.924000000000000199e+01,3.562616078034713807e-01
3.928000000000000114e+01,3.548377040152628226e-01
3.932000000000000028e+01,4.068591773748419516e-01
3.935999999999999943e+01,2.192824345510150097e-01
3.939999999999999858e+01,2.878854839250294395e-01
3.943999999999999773e+01,2.385309226438522279e-01
3.947999999999999687e+01,1.910163694874728868e-01
3.952000000000000313e+01,1.711443458355682568e-01
3.956000000000000227e+01,1.955021674403326915e-01
3.960000000000000142e+01,2.346011219165510531e-01
3.964000000000000057e+01,1.704865228551846190e-01
3.967999999999999972e+01,1.118977422832448249e-01
3.971999999999999886e+01,1.436146175962915161e-01
3.975999999999999801e+01,1.347811745068100142e-01
3.979999999999999716e+01,2.402128131792222177e-01
3.984000000000000341e+01,2.000406805412683620e-01
3.988000000000000256e+01,1.561788888788951946e-01
3.992000000000000171e+01,2.284250569720935597e-01
3.996000000000000085e+01,1.808698663800561712e-01
4.000000000000000000e+01,1.498983060122413002e-01
4.003999999999999915e+01,2.350345422681788254e-01
4.007999999999999829e+01,1.745666809501133232e-01
4.011999999999999744e+01,3.002420702701161237e-01
4.015999999999999659e+01,2.766271710105774884e-01
4.020000000000000284e+01,2.290487253279771263e-01
4.024000000000000199e+01,3.842007372810938293e-01
4.028000000000000114e+01,3.126545702520037162e-01
4.032000000000000028e+01,1.673825832796313196e-01
4.035999999999999943e+01,2.008813561797047620e-01
4.039999999999999858e+01,2.012011051428705399e-01
4.043999999999999773e+01,2.770812021961396310e-01
4.047999999999999687e+01,2.405313981616126195e-01
4.052000000000000313e+01,2.408379698272203606e-01
4.056000000000000227e+01,1.010689147680394750e-01
4.060000000000000142e+01,2.469666785964566014e-01
4.064000000000000057e+01,1.514214450432403991e-01
4.067999999999999972e+01,2.641351943522287082e-01
4.071999999999999886e+01,3.455125258316227299e-01
4.075999999999999801e+01,4.490015777435432676e-01
4.079999999999999716e+01,3.276347848942065544e-01
4.084000000000000341e+01,3.960963461430194177e-01
4.088000000000000256e+01,3.207957633978690271e-01
4.092000000000000171e+01,1.699255039248470656e-01
4.096000000000000085e+01,1.185744202688346349e-01
4.100000000000000000e+01,3.957262039331103931e-02
4.103999999999999915e+01,2.112192598709526636e-01
4.107999999999999829e+01,2.483186890957478632e-01
4.111999999999999744e+01,1.250682779334749972e-01
4.115999999999999659e+01,3.169725823849218194e-01
4.120000000000000284e+01,1.328911260116807935e-01
4.124000000000000199e+01,2.178882483602045950e-01
4.128000000000000114e+01,1.167327370556200117e-01
4.132000000000000028e+01,1.593288991845018265e-01
4.135999999999999943e+01,1.318839098120002939e-01
4.139999999999999858e+01,7.125853707076956756e-02
4.143999999999999773e+01,6.941384591478305666e-03
4.147999999999999687e+01,1.951151144408470040e-01
4.152000000000000313e+01,1.750193908675140020e-01
4.156000000000000227e+01,1.770343001812511863e-01
4.160000000000000142e+01,1.237520607339384626e-01
4.164000000000000057e+01,8.152209866617168843e-02
4.167999999999999972e+01,9.642038773808739305e-02
4.171999999999999886e+01,2.274241895882955777e-01
4.175999999999999801e+01,1.022391424892597211e-01
4.179999999999999716e+01,7.472908815900748680e-02
4.184000000000000341e+01,5.642799819644108567e-02
4.188000000000000256e+01,1.671334913815497036e-01
4.192000000000000171e+01,6.956898737122865772e-02
4.196000000000000085e+01,1.784186850248843936e-01
4.200000000000000000e+01,2.061681143878128786e-01
4.203999999999999915e+01,1.233285630747993356e-01
4.207999999999999829e+01,9.208759575225021476e-02
4.211999999999999744e+01,2.082832965687039239e-01
4.215999999999999659e+01,1.346390851810541078e-01
4.220000000000000284e+01,7.020334876563315285e-02
4.224000000000000199e+01,2.972036194914052729e-02
4.228000000000000114e+01,1.090282088801134003e-01
4.232000000000000028e+01,6.300236549026290434e-02
4.235999999999999943e+01,1.293950825913480207e-01
4.239999999999999858e+01,1.220591521309613292e-01
4.243999999999999773e+01,2.087112621520005873e-01
4.247999999999999687e+01,1.386977652096876845e-01
4.252000000000000313e+01,2.806268320260211224e-01
4.256000000000000227e+01,9.264431732779870865e-02
4.260000000000000142e+01,1.718954913985673016e-01
4.264000000000000057e+01,1.958481028991922446e-01
4.267999999999999972e+01,1.921477143348457317e-01
4.271999999999999886e+01,1.165612843163420648e-01
4.275999999999999801e+01,1.736663233965045627e-01
4.279999999999999716e+01,2.676246386722491710e-01
4.284000000000000341e+01,2.436207212246092046e-01
4.288000000000000256e+01,2.472547655905245056e-01
4.292000000000000171e+01,1.089669338470566767e-01
4.296000000000000085e+01,1.328589573238323496e-01
4.300000000000000000e+01,1.475279569724170237e-01
4.303999999999999915e+01,5.344965763873513881e-02
4.307999999999999829e+01,1.584118729034048045e-01
4.311999999999999744e+01,1.730570916862253783e-01
4.315999999999999659e+01,1.508334522493188501e-01
4.320000000000000284e+01,2.834171772670325828e-01
4.324000000000000199e+01,2.132582340158012957e-01
4.328000000000000114e+01,2.536735594527320115e-01
4.332000000000000028e+01,2.185159455254205296e-01
4.335999999999999943e+01,2.515425456453101449e-01
4.339999999999999858e+01,2.753455781642795697e-01
4.343999999999999773e+01,2.567502484461225976e-01
4.347999999999999687e+01,1.699539263566178793e-01
4.352000000000000313e+01,1.937315466916377515e-01
4.356000000000000227e+01,2.469892455520706076e-01
4.360000000000000142e+01,1.970280075249056795e-01
4.364000000000000057e+01,1.783897803941042193e-01
4.367999999999999972e+01,2.758544015552256701e-01
4.371999999999999886e+01,2.424543058144850438e-01
4.375999999999999801e+01,2.753948392227210107e-01
4.379999999999999716e+01,3.451872893947171006e-01
4.384000000000000341e+01,3.283478465449463091e-01
4.388000000000000256e+01,2.985981013159892949e-01
4.392000000000000171e+01,2.798975339620252134e-01
4.396000000000000085e+01,2.648739256037967449e-01
4.400000000000000000e+01,3.032893322524323754e-01
4.403999999999999915e+01,2.053104636045343101e-01
4.407999999999999829e+01,2.805681743662176708e-01
4.411999999999999744e+01,2.894670638456833256e-01
4.415999999999999659e+01,3.223160928149799709e-01
4.420000000000000284e+01,2.408871224846079184e-01
4.424000000000000199e+01,2.552867867838793381e-01
4.428000000000000114e+01,2.457173581782573224e-01
4.432000000000000028e+01,3.319764554477326879e-01
4.435999999999999943e+01,2.615673900220323866e-01
4.439999999999999858e+01,3.330627698542921178e-01
4.443999999999999773e+01,3.142393587546994382e-01
4.447999999999999687e+01,2.751326651148416347e-01
4.452000000000000313e+01,2.397021691888989448e-01
4.456000000000000227e+01,3.609202300157966503e-01
4.460000000000000142e+01,3.439002131388444461e-01
4.464000000000000057e+01,1.499382005453459565e-01
4.467999999999999972e+01,2.379513781066214806e-01
4.471999999999999886e+01,2.006276027107030957e-01
4.475999999999999801e+01,1.890961922710191201e-01
4.479999999999999716e+01,1.959849279083110407e-01
4.484000000000000341e+01,3.374053461515774122e-01
4.488000000000000256e+01,3.147847302931348623e-01
4.492000000000000171e+01,2.000016298500679746e-01
4.496000000000000085e+01,1.921044319987116888e-01
4.500000000000000000e+01,2.339588074714048227e-01
4.503999999999999915e+01,1.154580135842911554e-01
4.507999999999999829e+01,2.070532621848637511e-01
4.511999999999999744e+01,3.262834274717124061e-01
4.515999999999999659e+01,2.464543966315114465e-01
4.520000000000000284e+01,2.053184204760173381e-01
4.524000000000000199e+01,1.936602390004771579e-01
4.528000000000000114e+01,1.525024818117331205e-01
4.532000000000000028e+01,2.127010144427542715e-01
4.535999999999999943e+01,2.784176439904577083e-01
4.539999999999999858e+01,1.966799026613721690e-01
4.543999999999999773e+01,2.531591105301602140e-01
4.547999999999999687e+01,1.234799751321902089e-01
4.552000000000000313e+01,2.923622580957315198e-01
4.556000000000000227e+01,1.313288812492535984e-01
4.560000000000000142e+01,2.227807858723321599e-01
4.564000000000000057e+01,1.188589240920797652e-01
4.567999999999999972e+01,1.900145077559907136e-01
4.571999999999999886e+01,2.980193980745653448e-01
4.575999999999999801e+01,1.719464952225677745e-01
4.579999999999999716e+01,1.251127361571042484e-01
4.584000000000000341e+01,1.077559561125014803e-01
4.588000000000000256e+01,2.562611439982164785e-01
4.592000000000000171e+01,3.015442411145079493e-01
4.596000000000000085e+01,2.491343164605925586e-01
4.600000000000000000e+01,1.874972896830220392e-01
4.603999999999999915e+01,2.401168618127803578e-01
4.607999999999999829e+01,3.111548399467830017e-01
4.611999999999999744e+01,2.163070571581232338e-01
4.615999999999999659e+01,3.002221495373446625e-01
4.620000000000000284e+01,2.551121947492843711e-01
4.624000000000000199e+01,1.897165648209537259e-01
4.628000000000000114e+01,2.735949889207446861e-01
4.632000000000000028e+01,2.708381486078524358e-01
4.635999999999999943e+01,1.630155782500386785e-01
4.639999999999999858e+01,1.786643230315788089e-01
4.643999999999999773e+01,3.288425753281791208e-01
4.647999999999999687e+01,1.822786573964184642e-01
4.652000000000000313e+01,2.513379477470120693e-01
4.656000000000000227e+01,2.521920586762473881e-01
4.660000000000000142e+01,3.378133492230492307e-01
4.664000000000000057e+01,9.720359402445769015e-02
4.667999999999999972e+01,2.086018728858582971e-01
4.671999999999999886e+01,1.707009452949705686e-01
4.675999999999999801e+01,2.046656919340829328e-01
4.679999999999999716e+01,2.294022489040838664e-01
4.684000000000000341e+01,2.522827263296853473e-01
4.688000000000000256e+01,2.825222754610967058e-01
4.692000000000000171e+01,1.505610583753805853e-01
4.696000000000000085e+01,2.121059579160594344e-01
4.700000000000000000e+01,2.367767790188175236e-01
4.703999999999999915e+01,3.296268114596737075e-01
4.707999999999999829e+01,3.837596155825671596e-01
4.711999999999999744e+01,2.867496283549454406e-01
4.715999999999999659e+01,2.339591547021507290e-01
4.720000000000000284e+01,2.548767982548520994e-01
4.724000000000000199e+01,3.366012167573018132e-01
4.728000000000000114e+01,2.911421610315991781e-01
4.732000000000000028e+01,2.880593602461352098e-01
4.735999999999999943e+01,8.222829033262255005e-02
4.739999999999999858e+01,2.210321111862043331e-01
4.743999999999999773e+01,2.861004329419375991e-01
4.747999999999999687e+01,2.350432553361314347e-01
4.752000000000000313e+01,2.521646365411494006e-01
4.756000000000000227e+01,2.674289594108568702e-01
4.760000000000000142e+01,2.734640050659957744e-01
4.764000000000000057e+01,2.426241022468468289e-01
4.767999999999999972e+01,2.431017182195037707e-01
4.771999999999999886e+01,2.712107163556999323e-01
4.775999999999999801e+01,2.071533691209007100e-01
4.779999999999999716e+01,2.831528039503725114e-01
4.784000000000000341e+01,2.651427435288064571e-01
4.788000000000000256e+01,2.028852438673303671e-01
4.792000000000000171e+01,2.659400341343369223e-01
4.796000000000000085e+01,3.160789755403262680e-01
4.800000000000000000e+01,3.938489184689454303e-01
4.803999999999999915e+01,1.877758583340375098e-01
4.807999999999999829e+01,3.779419160664846955e-01
4.811999999999999744e+01,2.566192450984133289e-01
4.815999999999999659e+01,2.587654966696910641e-01
4.820000000000000284e+01,2.866994367517383124e-01
4.824000000000000199e+01,2.058790088060474532e-01
4.828000000000000114e+01,2.817020805268216077e-01
4.832000000000000028e+01,2.948467036027209165e-01
4.835999999999999943e+01,3.558952911862540702e-01
4.839999999999999858e+01,3.432070746173894182e-01
4.843999999999999773e+01,2.862706575267950360e-01
4.847999999999999687e+01,2.680228361845345963e-01
4.852000000000000313e+01,2.939926795898238909e-01
4.856000000000000227e+01,2.757141593415649572e-01
4.860000000000000142e+01,3.311418530942520366e-01
4.864000000000000057e+01,2.722855116699839928e-01
4.867999999999999972e+01,3.129378512490651465e-01
4.871999999999999886e+01,2.522073347751195849e-01
4.875999999999999801e+01,3.352183775618902684e-01
4.879999999999999716e+01,2.689273862781831337e-01
4.884000000000000341e+01,2.874005294847633563e-01
4.888000000000000256e+01,2.818983264000721745e-01
4.892000000000000171e+01,2.505776815213411890e-01
4.896000000000000085e+01,3.298235837580272278e-01
4.900000000000000000e+01,2.966280025477990301e-01
4.903999999999999915e+01,2.412998986627048481e-01
4.907999999999999829e+01,2.725786441297565199e-01
4.911999999999999744e+01,3.591324854382437759e-01
4.915999999999999659e+01,2.116039115079652033e-01
4.920000000000000284e+01,2.575784090768029611e-01
4.924000000000000199e+01,2.869492354608993989e-01
4.928000000000000114e+01,1.965060332551861189e-01
4.932000000000000028e+01,3.198391917972303600e-01
4.935999999999999943e+01,2.901834727359847710e-01
4.939999999999999858e+01,2.992150987457968259e-01
4.943999999999999773e+01,2.953288639354963441e-01
4.947999999999999687e+01,3.135424953122406544e-01
4.952000000000000313e+01,3.059368692358528374e-01
4.956000000000000227e+01,2.411802321956203754e-01
4.960000000000000142e+01,3.256931358698633150e-01
4.964000000000000057e+01,3.290953851942640118e-01
4.967999999999999972e+01,2.753464604230028145e-01
4.971999999999999886e+01,3.837682011128721871e-01
4.975999999999999801e+01,3.502587671797012248e-01
4.979999999999999716e+01,2.706562427720275443e-01
4.984000000000000341e+01,2.758164934228193310e-01
4.988000000000000256e+01,3.933850816372491122e-01
4.992000000000000171e+01,3.192601673311455390e-01
4.996000000000000085e+01,2.838218368142804149e-01
5.000000000000000000e+01,4.050246677411467044e-01
5.003999999999999915e+01,3.787668200275737806e-01
5.007999999999999829e+01,3.285319947045445832e-01
5.011999999999999744e+01,2.856518365282237348e-01
5.015999999999999659e+01,3.183188127647040289e-01
5.020000000000000284e+01,3.435960183893762010e-01
5.024000000000000199e+01,3.891290159074132782e-01
5.028000000000000114e+01,3.019453375253448035e-01
5.032000000000000028e+01,2.460755890350727615e-01
5.035999999999999943e+01,1.772867290474127444e-01
5.039999999999999858e+01,3.388601317506105270e-01
5.043999999999999773e+01,2.810937081462819287e-01
5.047999999999999687e+01,3.412639298229883100e-01
5.052000000000000313e+01,3.645552878617620562e-01
5.056000000000000227e+01,4.357476196581626104e-01
5.060000000000000142e+01,3.539493881558156141e-01
5.064000000000000057e+01,3.311102684095273418e-01
5.067999999999999972e+01,3.451137125360698166e-01
5.071999999999999886e+01,1.895390601025777610e-01
5.075999999999999801e+01,3.288326203568605055e-01
5.079999999999999716e+01,3.390948800574828947e-01
5.084000000000000341e+01,3.769842804943627779e-01
5.088000000000000256e+01,3.669360811448761917e-01
5.092000000000000171e+01,3.900440371535902062e-01
5.096000000000000085e+01,3.338825854879544641e-01
5.100000000000000000e+01,3.790697020693387098e-01
5.103999999999999915e+01,3.154986442138853486e-01
5.107999999999999829e+01,3.680203748548775966e-01
5.111999999999999744e+01,2.730799586690630387e-01
5.115999999999999659e+01,3.384652092370609711e-01
5.120000000000000284e+01,2.950920678591297808e-01
5.124000000000000199e+01,2.959328935741942779e-01
5.128000000000000114e+01,3.336154675029970318e-01
5.132000000000000028e+01,3.436332958758918643e-01
5.135999999999999943e+01,3.038698308096500211e-01
5.139999999999999858e+01,3.138492387038014364e-01
5.143999999999999773e+01,3.883157941850444717e-01
5.147999999999999687e+01,4.461756333542667985e-01
5.152000000000000313e+01,3.289271650415085957e-01
5.156000000000000227e+01,3.591025318313594838e-01
5.160000000000000142e+01,3.984735949343197192e-01
5.164000000000000057e+01,4.083364363376933981e-01
5.167999999999999972e+01,3.536732202797762681e-01
5.171999999999999886e+01,3.671828534190338389e-01
5.175999999999999801e+01,3.825158008603238291e-01
5.179999999999999716e+01,3.683403090929357471e-01
5.184000000000000341e+01,3.652032285005165080e-01
5.188000000000000256e+01,3.823197103332746094e-01
5.192000000000000171e+01,3.920440833314921547e-01
5.196000000000000085e+01,3.980623753688889988e-01
5.200000000000000000e+01,3.340250515503235262e-01
5.203999999999999915e+01,2.257346332554718560e-01
5.207999999999999829e+01,3.256877003000619997e-01
5.211999999999999744e+01,3.924458108667985834e-01
5.215999999999999659e+01,4.131076226999335077e-01
5.220000000000000284e+01,3.360679299082967031e-01
5.224000000000000199e+01,3.530029551662364207e-01
5.228000000000000114e+01,3.348997653117344875e-01
5.232000000000000028e+01,3.333634574814161033e-01
5.235999999999999943e+01,4.497612392003080828e-01
5.239999999999999858e+01,3.578747768782821748e-01
5.243999999999999773e+01,3.636488429704611836e-01
5.247999999999999687e+01,3.583439566952869026e-01
5.252000000000000313e+01,3.161574879185375941e-01
5.256000000000000227e+01,3.826896311771524894e-01
5.260000000000000142e+01,4.012818364266686477e-01
5.264000000000000057e+01,3.590327614113387744e-01
5.267999999999999972e+01,3.370361612757292735e-01
5.271999999999999886e+01,4.514035725488378392e-01
5.275999999999999801e+01,3.353697568796172312e-01
5.279999999999999716e+01,3.870315429980072386e-01
5.284000000000000341e+01,2.746414739373905234e-01
5.288000000000000256e+01,2.341087593840281422e-01
5.292000000000000171e+01,2.414738103291947102e-01
5.296000000000000085e+01,3.225391481525661241e-01
5.300000000000000000e+01,3.224892639351756851e-01
5.303999999999999915e+01,3.721800232099920502e-01
5.307999999999999829e+01,2.541325187911721017e-01
5.311999999999999744e+01,4.088335252950722754e-01
5.315999999999999659e+01,3.810518303468194423e-01
5.320000000000000284e+01,4.232840137621419752e-01
5.324000000000000199e+01,3.088359627277149633e-01
5.328000000000000114e+01,3.196929150672083719e-01
5.332000000000000028e+01,3.581736367520415576e-01
5.335999999999999943e+01,2.676195777377525231e-01
5.339999999999999858e+01,3.871502507383969838e-01
5.343999999999999773e+01,3.352560883989569307e-01
5.347999999999999687e+01,3.847071229156202588e-01
5.352000000000000313e+01,4.046473800008724697e-01
5.356000000000000227e+01,3.434716537635434386e-01
5.360000000000000142e+01,3.523092621170603178e-01
5.364000000000000057e+01,2.800307783934504191e-01
5.367999999999999972e+01,3.662314945299659508e-01
5.371999999999999886e+01,3.768451332112979224e-01
5.375999999999999801e+01,3.763780794525452000e-01
5.379999999999999716e+01,3.648302788764353211e-01
5.384000000000000341e+01,3.145560602232498892e-01
5.388000000000000256e+01,3.766847414064170008e-01
5.392000000000000171e+01,3.834995256284956522e-01
5.396000000000000085e+01,4.769145251754330350e-01
5.400000000000000000e+01,3.915317635984800759e-01
5.403999999999999915e+01,3.558882860819121419e-01
5.407999999999999829e+01,3.349662568640267013e-01
5.411999999999999744e+01,3.988011843364107634e-01
5.415999999999999659e+01,2.764659686738285549e-01
5.420000000000000284e+01,4.029182611161463146e-01
5.424000000000000199e+01,3.690028774259013211e-01
5.428000000000000114e+01,3.977277394108783004e-01
5.432000000000000028e+01,3.711381606620384188e-01
5.435999999999999943e+01,4.458925824692993589e-01
5.439999999999999858e+01,4.395298790312483495e-01
5.443999999999999773e+01,3.225613379626713351e-01
5.447999999999999687e+01,3.179948810713541518e-01
5.452000000000000313e+01,3.613240145876515652e-01
5.456000000000000227e+01,4.101587382478751875e-01
5.460000000000000142e+01,3.723469413999332955e-01
5.464000000000000057e+01,3.197671735609119437e-01
5.467999999999999972e+01,3.371992721263700199e-01
5.471999999999999886e+01,4.209571004680423001e-01
5.475999999999999801e+01,2.927413942587059892e-01
5.479999999999999716e+01,3.266894475968484812e-01
5.484000000000000341e+01,3.882592039439625720e-01
5.488000000000000256e+01,3.852985526479581480e-01
5.492000000000000171e+01,4.265468657358474913e-01
5.496000000000000085e+01,3.590316754141597011e-01
5.500000000000000000e+01,4.205052324946522702e-01
5.503999999999999915e+01,4.082329587954525718e-01
5.507999999999999829e+01,2.835109363038651464e-01
5.511999999999999744e+01,4.444359937498293389e-01
5.515999999999999659e+01,4.136604252525165060e-01
5.520000000000000284e+01,3.865465357372677158e-01
5.524000000000000199e+01,3.022739136854294961e-01
5.528000000000000114e+01,3.838504809047887933e-01
5.532000000000000028e+01,2.313362587853630414e-01
5.535999999999999943e+01,3.257649267044288033e-01
5.539999999999999858e+01,2.929990818089526772e-01
5.543999999999999773e+01,4.021226740441297687e-01
5.547999999999999687e+01,3.158591230668544858e-01
5.552000000000000313e+01,3.125075844498028665e-01
5.556000000000000227e+01,3.257185232978340728e-01
5.560000000000000142e+01,2.983576103432878379e-01
5.564000000000000057e+01,2.930881894757673689e-01
5.567999999999999972e+01,3.854748924633509821e-01
5.571999999999999886e+01,3.082767017317933900e-01
5.575999999999999801e+01,3.250484438498010276e-01
5.579999999999999716e+01,3.159923912828376258e-01
5.584000000000000341e+01,2.663641606496601200e-01
5.588000000000000256e+01,3.236069876127034561e-01
5.592000000000000171e+01,3.144749519980378216e-01
5.596000000000000085e+01,3.716669604641277269e-01
5.600000000000000000e+01,4.306765192413277710e-01
5.603999999999999915e+01,4.233110523090005128e-01
5.607999999999999829e+01,3.421983407878868566e-01
5.611999999999999744e+01,3.679563605993574904e-01
5.615999999999999659e+01,3.070657391890213583e-01
5.620000000000000284e+01,3.530457403567245911e-01
5.624000000000000199e+01,3.492378140580021384e-01
5.628000000000000114e+01,2.477228366526769143e-01
5.632000000000000028e+01,3.876203208548054668e-01
5.635999999999999943e+01,3.616181235524205118e-01
5.639999999999999858e+01,2.839847401490225298e-01
5.643999999999999773e+01,3.261229409385006384e-01
5.647999999999999687e+01,3.276880936253986909e-01
5.652000000000000313e+01,3.126396784638958426e-01
5.656000000000000227e+01,3.454840804690929579e-01
5.660000000000000142e+01,4.114769162597448071e-01
5.664000000000000057e+01,3.300001011599372758e-01
5.667999999999999972e+01,4.033123253737987413e-01
5.671999999999999886e+01,4.323650929704503931e-01
5.675999999999999801e+01,2.549707305289399262e-01
5.679999999999999716e+01,3.650642053050179303e-01
5.684000000000000341e+01,3.663916209396950729e-01
5.688000000000000256e+01,2.515807585537127022e-01
5.692000000000000171e+01,3.007738148452443472e-01
5.696000000000000085e+01,3.591552808953231146e-01
5.700000000000000000e+01,3.308869638008659630e-01
5.703999999999999915e+01,3.173360710868991519e-01
5.707999999999999829e+01,3.129734249996612983e-01
5.711999999999999744e+01,2.993685599069152992e-01
5.715999999999999659e+01,3.354987374472729322e-01
5.720000000000000284e+01,3.365840114706276642e-01
5.724000000000000199e+01,3.026243275997070881e-01
5.728000000000000114e+01,4.234528673833627965e-01
5.732000000000000028e+01,3.544208859765043407e-01
5.735999999999999943e+01,2.872046060534785283e-01
5.739999999999999858e+01,3.157990706373277057e-01
5.743999999999999773e+01,2.872318119345808607e-01
5.747999999999999687e+01,3.286726132272141387e-01
5.752000000000000313e+01,3.221667881061874850e-01
5.756000000000000227e+01,2.437547475627756810e-01
5.760000000000000142e+01,2.169201926279618886e-01
5.764000000000000057e+01,2.987973438148605054e-01
5.767999999999999972e+01,2.645351294356418914e-01
5.771999999999999886e+01,2.744780730312176842e-01
5.775999999999999801e+01,2.585905574554526742e-01
5.779999999999999716e+01,2.758498443469579176e-01
5.784000000000000341e+01,3.317850027049489836e-01
5.788000000000000256e+01,2.328766599750361210e-01
5.792000000000000171e+01,2.353074782239397977e-01
5.796000000000000085e+01,2.026923597876570948e-01
5.800000000000000000e+01,3.727835554779445615e-01
5.803999999999999915e+01,2.092560433980900358e-01
5.807999999999999829e+01,1.747130916704062731e-01
5.811999999999999744e+01,3.078585095530439464e-01
5.815999999999999659e+01,2.843170045813706581e-01
5.820000000000000284e+01,2.718052647982827641e-01
5.824000000000000199e+01,2.555789068225363114e-01
5.828000000000000114e+01,1.969340126414351744e-01
5.832000000000000028e+01,1.806504196505383519e-01
5.835999999999999943e+01,2.528041016099826233e-01
5.839999999999999858e+01,2.567365084753042148e-01
5.843999999999999773e+01,3.048730945245086699e-01
5.847999999999999687e+01,1.576184590657967455e-01
5.852000000000000313e+01,1.430338680602458723e-01
5.856000000000000227e+01,1.431646350988171612e-01
5.860000000000000142e+01,2.022436928161511771e-01
5.864000000000000057e+01,2.576075885680979005e-01
5.867999999999999972e+01,2.244763762045517974e-01
5.871999999999999886e+01,2.042172632505407370e-01
5.875999999999999801e+01,2.336910178387180681e-01
5.879999999999999716e+01,1.857277479325624425e-01
5.884000000000000341e+01,3.201961978497878669e-01
5.888000000000000256e+01,1.376321682036089622e-01
5.892000000000000171e+01,2.001631478931407970e-01
5.896000000000000085e+01,1.815708033282554257e-01
5.900000000000000000e+01,2.311414112968855905e-01
5.903999999999999915e+01,1.811581750015892611e-01
5.907999999999999829e+01,2.546290162501537724e-01
5.911999999999999744e+01,1.566673005858883472e-01
5.915999999999999659e+01,2.466659931033099717e-01
5.920000000000000284e+01,1.615459377023626963e-01
5.924000000000000199e+01,1.869784544577106078e-01
5.928000000000000114e+01,1.681480344503855362e-01
5.932000000000000028e+01,2.432827077153421336e-01
5.935999999999999943e+01,2.520378419571239759e-01
5.939999999999999858e+01,1.391221490335673716e-01
5.943999999999999773e+01,1.459739620074231303e-01
5.947999999999999687e+01,1.749120468501108028e-01
5.952000000000000313e+01,7.665001801915262425e-02
5.956000000000000227e+01,7.235275619683867454e-02
5.960000000000000142e+01,1.325315489979552175e-01
5.964000000000000057e+01,1.171152165075045604e-01
5.967999999999999972e+01,2.251521459018215876e-01
5.971999999999999886e+01,1.377961680927632937e-01
5.975999999999999801e+01,9.832865726857632771e-02
5.979999999999999716e+01,1.694129573188636051e-01
5.984000000000000341e+01,1.059245441753366712e-01
5.988000000000000256e+01,1.069118050143291476e-01
5.992000000000000171e+01,8.759479368573676317e-02
5.996000000000000085e+01,1.419685532126005179e-01
