2.003999999999999915e+01,1.100317702269253996e-02
2.007999999999999829e+01,1.145154102463980493e-02
2.012000000000000099e+01,1.362414608382477195e-02
2.016000000000000014e+01,2.360739767911822218e-02
2.019999999999999929e+01,2.557664122864620332e-02
2.023999999999999844e+01,1.689443422413003382e-02
2.028000000000000114e+01,2.160207858310225423e-02
2.032000000000000028e+01,2.843972390301069061e-02
2.035999999999999943e+01,1.387326854357254051e-02
2.039999999999999858e+01,4.175696465544111516e-03
2.044000000000000128e+01,9.288136676998688668e-03
2.048000000000000043e+01,1.754497840388891464e-02
2.051999999999999957e+01,1.494748873606996029e-02
2.055999999999999872e+01,2.087072531887906521e-02
2.060000000000000142e+01,2.050443449918085484e-02
2.064000000000000057e+01,1.658749869100848220e-02
2.067999999999999972e+01,1.926392708818295066e-02
2.071999999999999886e+01,1.260762501595701426e-02
2.076000000000000156e+01,6.965481853899269798e-03
2.080000000000000071e+01,2.069815431860895852e-02
2.083999999999999986e+01,1.667856832471336509e-02
2.087999999999999901e+01,1.326738058881177067e-02
2.092000000000000171e+01,7.827148602625500634e-03
2.096000000000000085e+01,1.679116731815172639e-02
2.100000000000000000e+01,9.220208315319562697e-03
2.103999999999999915e+01,2.467590772135410879e-02
2.107999999999999829e+01,2.065486652857078873e-02
2.112000000000000099e+01,1.845950414690907329e-02
2.116000000000000014e+01,1.737973983269303427e-02
2.119999999999999929e+01,1.680693293511989483e-02
2.123999999999999844e+01,2.130588753995134310e-02
2.128000000000000114e+01,1.200874627909978912e-02
2.132000000000000028e+01,1.579713367056431381e-02
2.135999999999999943e+01,1.573055411085957575e-02
2.139999999999999858e+01,1.667813196436851095e-02
2.144000000000000128e+01,2.219027038811489938e-02
2.148000000000000043e+01,1.481927331424419576e-02
2.151999999999999957e+01,2.022948414626989100e-02
2.155999999999999872e+01,6.670153721130868407e-03
2.160000000000000142e+01,1.035539510121649513e-02
2.164000000000000057e+01,8.968387760729513644e-03
2.167999999999999972e+01,1.965250730178366712e-02
2.171999999999999886e+01,1.461316818339630438e-02
2.176000000000000156e+01,1.850031288034277924e-02
2.180000000000000071e+01,2.309729377628517988e-02
2.183999999999999986e+01,1.278233647509750652e-02
2.187999999999999901e+01,1.616154707363362183e-02
2.192000000000000171e+01,2.075779405485562654e-02
2.196000000000000085e+01,1.805010952380426900e-02
2.200000000000000000e+01,1.686378146694086227e-02
2.203999999999999915e+01,2.135785359853195620e-02
2.207999999999999829e+01,2.077967598039444017e-02
2.212000000000000099e+01,2.030269325553268195e-02
2.216000000000000014e+01,1.171025780760872811e-02
2.219999999999999929e+01,1.782639043966948236e-02
2.223999999999999844e+01,1.745011164752961405e-02
2.228000000000000114e+01,2.871974279220279071e-03
2.232000000000000028e+01,1.071185176862593513e-02
2.235999999999999943e+01,1.003051569567587481e-02
2.239999999999999858e+01,1.685550064087204189e-02
2.244000000000000128e+01,1.799959443705979531e-02
2.248000000000000043e+01,1.224551587619385554e-02
2.251999999999999957e+01,1.927264288223307434e-02
2.255999999999999872e+01,1.777855585811832784e-02
2.260000000000000142e+01,2.379078938435151558e-02
2.264000000000000057e+01,1.438388237789270385e-02
2.267999999999999972e+01,1.654089944961467315e-02
2.271999999999999886e+01,1.464006620339160063e-02
2.276000000000000156e+01,2.501323749834672913e-02
2.280000000000000071e+01,1.905430705050695575e-02
2.283999999999999986e+01,1.522537166934545202e-02
2.287999999999999901e+01,1.352643126130248681e-02
2.292000000000000171e+01,1.416036591856614270e-02
2.296000000000000085e+01,2.006893824091706552e-02
2.300000000000000000e+01,1.928221717568638291e-02
2.303999999999999915e+01,1.372756439391692278e-02
2.307999999999999829e+01,8.071224074244027699e-03
2.312000000000000099e+01,1.773209023992665390e-02
2.316000000000000014e+01,1.785734004332252545e-02
2.319999999999999929e+01,1.057721534122206368e-02
2.323999999999999844e+01,1.719413554356479315e-02
2.328000000000000114e+01,2.178200597560355639e-02
2.332000000000000028e+01,2.200770440768114525e-02
2.335999999999999943e+01,2.629075845476387327e-02
2.339999999999999858e+01,1.312586833404502662e-02
2.344000000000000128e+01,1.203210097824272164e-02
2.348000000000000043e+01,1.519856914251417959e-02
2.351999999999999957e+01,7.510698895102599359e-03
2.355999999999999872e+01,1.209683131767618283e-02
2.360000000000000142e+01,1.191503071387583872e-02
2.364000000000000057e+01,1.781938692763910051e-02
2.367999999999999972e+01,1.357948500559741714e-02
2.371999999999999886e+01,1.461421897100965289e-02
2.376000000000000156e+01,8.953657771206971830e-03
2.380000000000000071e+01,2.094342360234334455e-02
2.383999999999999986e+01,1.325356219329828535e-02
2.387999999999999901e+01,1.540314047678986373e-02
2.392000000000000171e+01,2.120431269395615936e-02
2.396000000000000085e+01,1.564394500591430662e-02
2.400000000000000000e+01,8.764606513611336927e-03
2.403999999999999915e+01,7.362783346032750545e-03
2.407999999999999829e+01,1.701768051767818535e-02
2.412000000000000099e+01,1.328223555240068583e-02
2.416000000000000014e+01,2.313951306107303249e-02
2.419999999999999929e+01,1.575172471649849415e-02
2.423999999999999844e+01,2.347826005186167547e-02
2.428000000000000114e+01,1.842309343330613206e-02
2.432000000000000028e+01,1.884544148455739865e-02
2.435999999999999943e+01,2.352802299757006041e-02
2.439999999999999858e+01,1.674762348334459319e-02
2.444000000000000128e+01,1.696633975135403150e-02
2.448000000000000043e+01,1.333008177054142637e-02
2.451999999999999957e+01,1.628717901334926499e-02
2.455999999999999872e+01,1.751954377056574516e-02
2.460000000000000142e+01,2.331646170680716848e-02
2.464000000000000057e+01,4.463185980857656970e-03
2.467999999999999972e+01,1.137544265743940276e-02
2.471999999999999886e+01,1.727304712430779640e-02
2.476000000000000156e+01,1.231631027914397748e-02
2.480000000000000071e+01,1.385148790980923229e-02
2.483999999999999986e+01,1.447345314295600711e-02
2.487999999999999901e+01,9.414521519955702106e-03
2.492000000000000171e+01,2.017999263649574923e-02
2.496000000000000085e+01,2.364152522378852594e-02
2.500000000000000000e+01,2.111784039563391682e-02
2.503999999999999915e+01,1.473918000882224778e-02
2.507999999999999829e+01,1.495387353579582732e-02
2.512000000000000099e+01,1.263231252435249516e-02
2.516000000000000014e+01,1.173066050301103252e-02
2.519999999999999929e+01,1.011867542786182468e-02
2.523999999999999844e+01,1.388276277777371510e-02
2.528000000000000114e+01,6.082426949261227067e-03
2.532000000000000028e+01,1.349785236744968642e-02
2.535999999999999943e+01,1.300069776355161112e-02
2.539999999999999858e+01,8.242806387464350626e-03
2.544000000000000128e+01,1.494739254106819404e-02
2.548000000000000043e+01,2.408628786503482291e-02
2.551999999999999957e+01,1.100954969746955822e-02
2.555999999999999872e+01,2.501706308148274674e-02
2.560000000000000142e+01,1.356285981488286260e-02
2.564000000000000057e+01,1.144089165982595246e-02
2.567999999999999972e+01,1.023163081422651631e-02
2.571999999999999886e+01,1.632580303557450846e-02
2.576000000000000156e+01,1.582611550659899016e-02
2.580000000000000071e+01,1.745641612088756622e-02
2.583999999999999986e+01,1.695622088418074352e-02
2.587999999999999901e+01,1.757161267488060313e-02
2.592000000000000171e+01,9.158582112046984719e-03
2.596000000000000085e+01,1.646851176332895031e-02
2.600000000000000000e+01,7.750652465665382358e-03
2.603999999999999915e+01,1.769751588833853861e-02
2.607999999999999829e+01,1.313819156805394982e-02
2.612000000000000099e+01,1.040453436393480591e-02
2.616000000000000014e+01,1.578582994059758715e-02
2.619999999999999929e+01,1.903662882422807109e-02
2.623999999999999844e+01,1.052012209825498729e-02
2.628000000000000114e+01,1.164016926549196751e-02
2.632000000000000028e+01,1.975932781766024868e-02
2.635999999999999943e+01,6.677251842282177531e-03
2.639999999999999858e+01,1.337573876681563342e-02
2.644000000000000128e+01,6.480997942218911893e-03
2.648000000000000043e+01,1.693225760144312364e-02
2.651999999999999957e+01,1.094996672395124986e-02
2.655999999999999872e+01,7.503422583585344155e-03
2.660000000000000142e+01,5.578224158047632823e-03
2.664000000000000057e+01,8.217574139992829887e-03
2.667999999999999972e+01,1.268258992826837121e-02
2.671999999999999886e+01,1.379982669275051609e-02
2.676000000000000156e+01,1.085920368976297026e-02
2.680000000000000071e+01,1.471481076324340082e-02
2.683999999999999986e+01,1.552695881087289877e-02
2.687999999999999901e+01,1.502012931794652513e-02
2.692000000000000171e+01,1.775912637022596455e-02
2.696000000000000085e+01,2.009210653069445560e-02
2.700000000000000000e+01,1.461394292600453476e-02
2.703999999999999915e+01,8.526882056636790261e-03
2.707999999999999829e+01,1.795989859596682989e-02
2.712000000000000099e+01,3.023298084120911930e-02
2.716000000000000014e+01,1.014641647159323680e-02
2.719999999999999929e+01,1.278217582403644303e-02
2.723999999999999844e+01,7.809671035710896714e-03
2.728000000000000114e+01,1.653132151655638954e-02
2.732000000000000028e+01,1.389142423318297410e-02
2.735999999999999943e+01,1.946791701667569680e-02
2.739999999999999858e+01,1.084253924836369072e-02
2.744000000000000128e+01,1.996892008993637890e-02
2.748000000000000043e+01,1.458910991396357958e-02
2.751999999999999957e+01,1.235368478692801079e-02
2.755999999999999872e+01,1.072664229342483282e-02
2.760000000000000142e+01,1.528718744795373036e-02
2.764000000000000057e+01,1.173226706174840261e-02
2.767999999999999972e+01,1.507501478657252529e-02
2.771999999999999886e+01,9.997976504921729859e-03
2.776000000000000156e+01,1.151428586855958447e-02
2.780000000000000071e+01,9.378493403672137282e-03
2.783999999999999986e+01,1.221300691097319639e-02
2.787999999999999901e+01,1.494582165321279958e-02
2.792000000000000171e+01,1.067901122141250679e-02
2.796000000000000085e+01,9.860905088014645589e-03
2.800000000000000000e+01,8.636779630254973888e-03
2.803999999999999915e+01,1.441176153436173925e-02
2.807999999999999829e+01,1.937496355549216467e-02
2.812000000000000099e+01,1.652701919179396656e-02
2.816000000000000014e+01,1.347593531524296853e-02
2.819999999999999929e+01,1.691675796195072842e-02
2.823999999999999844e+01,1.609683719373410093e-02
2.828000000000000114e+01,1.740689876808328151e-02
2.832000000000000028e+01,2.084694259143863443e-02
2.835999999999999943e+01,1.860608141895738268e-02
2.839999999999999858e+01,3.786388841661039381e-03
2.844000000000000128e+01,1.047173597158891287e-02
2.848000000000000043e+01,1.715682302593437777e-02
2.851999999999999957e+01,9.132836444435930845e-03
2.855999999999999872e+01,1.784620492441379297e-02
2.860000000000000142e+01,1.621242357500210160e-02
2.864000000000000057e+01,1.407118131140035547e-02
2.867999999999999972e+01,1.669736286948684742e-02
2.871999999999999886e+01,8.367753760262006471e-03
2.876000000000000156e+01,1.474669738723914138e-02
2.880000000000000071e+01,1.240153220300931579e-02
2.883999999999999986e+01,9.143145265295977986e-03
2.887999999999999901e+01,9.434900566987000289e-03
2.892000000000000171e+01,1.459551922188218921e-02
2.896000000000000085e+01,1.914723612123633151e-02
2.900000000000000000e+01,1.193164095537109504e-02
2.903999999999999915e+01,6.744586261564496955e-03
2.907999999999999829e+01,5.310553525111578327e-03
2.912000000000000099e+01,1.432458878212392733e-02
2.916000000000000014e+01,7.818028163347433973e-03
2.919999999999999929e+01,9.730733493440772708e-03
2.923999999999999844e+01,1.488925994228020716e-02
2.928000000000000114e+01,1.761296221537290638e-02
2.932000000000000028e+01,1.962632179801388627e-02
2.935999999999999943e+01,1.007524865914626380e-02
2.939999999999999858e+01,1.249384425193339823e-02
2.944000000000000128e+01,2.170866374625159481e-02
2.948000000000000043e+01,1.235968383008953855e-02
2.951999999999999957e+01,2.055957747296275478e-02
2.955999999999999872e+01,1.841231904101473318e-02
2.960000000000000142e+01,1.291727484897851191e-02
2.964000000000000057e+01,1.117525130446086513e-02
2.967999999999999972e+01,1.085312617780463500e-02
2.971999999999999886e+01,1.793586485500471214e-02
2.976000000000000156e+01,1.223688876061398631e-02
2.980000000000000071e+01,1.008805275375563790e-02
2.983999999999999986e+01,1.808296277766741414e-02
2.987999999999999901e+01,1.441199877092130821e-02
2.992000000000000171e+01,1.703005707862141963e-02
2.996000000000000085e+01,1.853201082742019987e-02
3.000000000000000000e+01,1.445449583731052076e-02
3.003999999999999915e+01,1.210119870164681061e-02
3.007999999999999829e+01,1.421100183446217038e-02
3.012000000000000099e+01,1.104565622631153640e-02
3.016000000000000014e+01,1.041604893491835694e-02
3.019999999999999929e+01,1.323514070258728290e-02
3.023999999999999844e+01,1.169204428447547135e-02
3.028000000000000114e+01,1.593076887440402281e-02
3.032000000000000028e+01,4.446014689566250323e-03
3.035999999999999943e+01,1.193029339924433878e-02
3.039999999999999858e+01,2.042870847121490765e-02
3.044000000000000128e+01,9.146040772787921574e-03
3.048000000000000043e+01,1.196328123025516312e-02
3.051999999999999957e+01,6.867929596440920138e-03
3.055999999999999872e+01,9.887520451847004593e-03
3.060000000000000142e+01,8.342042093687973212e-03
3.064000000000000057e+01,2.535814707025504065e-03
3.067999999999999972e+01,1.133669547282805702e-02
3.071999999999999886e+01,1.323938460828894340e-02
3.076000000000000156e+01,1.118564471318892264e-02
3.080000000000000071e+01,4.262514858104105367e-03
3.083999999999999986e+01,1.316377389573131565e-02
3.087999999999999901e+01,1.121067730669982922e-02
3.092000000000000171e+01,1.270627809265671704e-02
3.096000000000000085e+01,0.000000000000000000e+00
3.100000000000000000e+01,1.153763813434267697e-02
3.103999999999999915e+01,1.009067831743808152e-02
3.107999999999999829e+01,1.391833717301179003e-02
3.112000000000000099e+01,1.723852931369715749e-02
3.116000000000000014e+01,1.173316703028238345e-02
3.119999999999999929e+01,1.556002685361923196e-02
3.123999999999999844e+01,1.472037587356266920e-02
3.128000000000000114e+01,6.779651767581813468e-03
3.132000000000000028e+01,1.506907580309238721e-02
3.135999999999999943e+01,1.017102095313092598e-02
3.139999999999999858e+01,1.521382829936563340e-02
3.144000000000000128e+01,1.741604604613724433e-02
3.148000000000000043e+01,2.170300726058001055e-03
3.151999999999999957e+01,1.167567088107171122e-02
3.155999999999999872e+01,1.255836586213639715e-02
3.160000000000000142e+01,8.368788826275681825e-03
3.164000000000000057e+01,1.746759649008880477e-02
3.167999999999999972e+01,9.929961362243298895e-03
3.171999999999999886e+01,2.696378859105115315e-03
3.176000000000000156e+01,1.260590430416656110e-02
3.180000000000000071e+01,1.105243141345449084e-02
3.183999999999999986e+01,1.730957773943248013e-02
3.187999999999999901e+01,4.597158669856008829e-03
3.192000000000000171e+01,1.267969051769757272e-02
3.196000000000000085e+01,1.142946560587693866e-02
3.200000000000000000e+01,5.614168205903427231e-03
3.203999999999999915e+01,1.440597577736675225e-02
3.207999999999999829e+01,1.214054472963430054e-02
3.211999999999999744e+01,6.223001748934232046e-03
3.215999999999999659e+01,5.072874450232832573e-03
3.220000000000000284e+01,1.295064664067038275e-02
3.224000000000000199e+01,1.575614531722807632e-02
3.228000000000000114e+01,1.004040722863685543e-02
3.232000000000000028e+01,6.961842497455794643e-03
3.235999999999999943e+01,8.042052423232292149e-03
3.239999999999999858e+01,9.223433197454540197e-03
3.243999999999999773e+01,1.862119215646732689e-02
3.247999999999999687e+01,1.259978756711410686e-02
3.252000000000000313e+01,9.316995960246571284e-03
3.256000000000000227e+01,8.367056870809875049e-03
3.260000000000000142e+01,1.411189419881806774e-02
3.264000000000000057e+01,1.681325893482601974e-02
3.267999999999999972e+01,1.170346662020521449e-02
3.271999999999999886e+01,1.349133062809792366e-02
3.275999999999999801e+01,9.801159534340133164e-03
3.279999999999999716e+01,1.493600634057888968e-02
3.284000000000000341e+01,1.601297915828108973e-02
3.288000000000000256e+01,1.272775761526568142e-02
3.292000000000000171e+01,1.958627489892739507e-02
3.296000000000000085e+01,1.934371512715938810e-02
3.300000000000000000e+01,1.475240422858074829e-01
3.303999999999999915e+01,2.396928657328717960e-01
3.307999999999999829e+01,7.450790272414695159e-02
3.311999999999999744e+01,1.553044602579565711e-02
3.315999999999999659e+01,4.762785197410661126e-04
3.320000000000000284e+01,9.057381537662275578e-03
3.324000000000000199e+01,1.165324786684814214e-02
3.328000000000000114e+01,7.655236856496140663e-03
3.332000000000000028e+01,1.227936234411760794e-02
3.335999999999999943e+01,1.599025550601509277e-02
3.339999999999999858e+01,1.046982863297683808e-02
3.343999999999999773e+01,1.042689509814507393e-02
3.347999999999999687e+01,6.731846449317660866e-03
3.352000000000000313e+01,9.427251787441680644e-03
3.356000000000000227e+01,1.293390591089818922e-02
3.360000000000000142e+01,7.310679624494485253e-03
3.364000000000000057e+01,1.183119048069416687e-02
3.367999999999999972e+01,1.472838761257599244e-02
3.371999999999999886e+01,1.194466721162812904e-02
3.375999999999999801e+01,8.856354106602577769e-03
3.379999999999999716e+01,1.094121321912529601e-02
3.384000000000000341e+01,1.414164074068435979e-02
3.388000000000000256e+01,1.348707202690360013e-02
3.392000000000000171e+01,3.296861783290206890e-03
3.396000000000000085e+01,8.626712856114718969e-03
3.400000000000000000e+01,1.497069187086317449e-02
3.403999999999999915e+01,1.035886777486673925e-02
3.407999999999999829e+01,7.674132269539214908e-03
3.411999999999999744e+01,1.300289083374932611e-02
3.415999999999999659e+01,5.651364427680881895e-03
3.420000000000000284e+01,9.153654504497376818e-03
3.424000000000000199e+01,4.844783881858745825e-03
3.428000000000000114e+01,1.991069735638542962e-02
3.432000000000000028e+01,1.093503508452866452e-02
3.435999999999999943e+01,1.889959449374662218e-02
3.439999999999999858e+01,7.285942055909268647e-03
3.443999999999999773e+01,1.443843278375585119e-02
3.447999999999999687e+01,6.780395842496780498e-03
3.452000000000000313e+01,1.626546039382139458e-02
3.456000000000000227e+01,1.763504321859225843e-02
3.460000000000000142e+01,8.353141901404558325e-03
3.464000000000000057e+01,1.388121966002408246e-02
3.467999999999999972e+01,1.565573940498458244e-02
3.471999999999999886e+01,1.327094067123119232e-02
3.475999999999999801e+01,1.859531423143959833e-02
3.479999999999999716e+01,1.387684373913401249e-02
3.484000000000000341e+01,1.301282182446631894e-02
3.488000000000000256e+01,1.346724607203167792e-02
3.492000000000000171e+01,1.077675230182291964e-02
3.496000000000000085e+01,8.998944135232731303e-03
3.500000000000000000e+01,1.848071095182964724e-02
3.503999999999999915e+01,1.000730591039779120e-02
3.507999999999999829e+01,1.238771529353851174e-02
3.511999999999999744e+01,7.667042569028489039e-03
3.515999999999999659e+01,1.735058733255497726e-02
3.520000000000000284e+01,1.526680552911629553e-02
3.524000000000000199e+01,1.440002895299999537e-02
3.528000000000000114e+01,1.363441648903455233e-02
3.532000000000000028e+01,5.564841263872482950e-03
3.535999999999999943e+01,1.311676417343435493e-02
3.539999999999999858e+01,1.965400989285627856e-02
3.543999999999999773e+01,1.158360588348853783e-02
3.547999999999999687e+01,1.456989554884451261e-02
3.552000000000000313e+01,1.694726811487677620e-02
3.556000000000000227e+01,1.293363819421881541e-02
3.560000000000000142e+01,1.064421312321535765e-02
3.564000000000000057e+01,1.444091680188051841e-02
3.567999999999999972e+01,2.057046570032380547e-02
3.571999999999999886e+01,1.259956467942890262e-02
3.575999999999999801e+01,1.659831751420440607e-02
3.579999999999999716e+01,1.572766869403884049e-02
3.584000000000000341e+01,1.242218035434387510e-02
3.588000000000000256e+01,1.733306215330950029e-02
3.592000000000000171e+01,1.686734155228606508e-02
3.596000000000000085e+01,2.096614755934695165e-02
3.600000000000000000e+01,2.019555144366847257e-02
3.603999999999999915e+01,1.830883654802182084e-02
3.607999999999999829e+01,1.763912491494491405e-02
3.611999999999999744e+01,2.406994183755884961e-02
3.615999999999999659e+01,1.954495069076646677e-02
3.620000000000000284e+01,1.968592568357428740e-02
3.624000000000000199e+01,2.094246347183940579e-02
3.628000000000000114e+01,2.392320451924508790e-02
3.632000000000000028e+01,2.020862102370567931e-02
3.635999999999999943e+01,2.197152403651831190e-02
3.639999999999999858e+01,2.028518529122837893e-02
3.643999999999999773e+01,2.397489277429741550e-02
3.647999999999999687e+01,2.543263942663025884e-02
3.652000000000000313e+01,2.760018784800766928e-02
3.656000000000000227e+01,1.617448484966324887e-02
3.660000000000000142e+01,2.351491996478163177e-02
3.664000000000000057e+01,2.487011043859438039e-02
3.667999999999999972e+01,3.058694565067012275e-02
3.671999999999999886e+01,2.484077101913538185e-02
3.675999999999999801e+01,2.051447824540394635e-02
3.679999999999999716e+01,3.018663875226812801e-02
3.684000000000000341e+01,3.083035136381425539e-02
3.688000000000000256e+01,2.883634183753246497e-02
3.692000000000000171e+01,3.485581983161278874e-02
3.696000000000000085e+01,3.245549020693896253e-02
3.700000000000000000e+01,3.512688522216751708e-02
3.703999999999999915e+01,3.739223976855329812e-02
3.707999999999999829e+01,3.184642697274878836e-02
3.711999999999999744e+01,3.685010355135330540e-02
3.715999999999999659e+01,4.023045826595043895e-02
3.720000000000000284e+01,4.371197260183522226e-02
3.724000000000000199e+01,3.887511875692205299e-02
3.728000000000000114e+01,4.215319168320798282e-02
3.732000000000000028e+01,4.908282720068581767e-02
3.735999999999999943e+01,5.256321871462948242e-02
3.739999999999999858e+01,5.107276473837223107e-02
3.743999999999999773e+01,6.104476022391107370e-02
3.747999999999999687e+01,6.097390538843937280e-02
3.752000000000000313e+01,6.303301128325423941e-02
3.756000000000000227e+01,7.706176682355525553e-02
3.760000000000000142e+01,8.449663491987624564e-02
3.764000000000000057e+01,9.639458560190236613e-02
3.767999999999999972e+01,1.002784873525958548e-01
3.771999999999999886e+01,1.166392388389059509e-01
3.775999999999999801e+01,1.361443514228827534e-01
3.779999999999999716e+01,1.596053457539571563e-01
3.784000000000000341e+01,1.895582240604145319e-01
3.788000000000000256e+01,2.103812119461291874e-01
3.792000000000000171e+01,2.765476391907754627e-01
3.796000000000000085e+01,3.464670676225330426e-01
3.800000000000000000e+01,4.304863866209706624e-01
3.803999999999999915e+01,5.458504118810755257e-01
3.807999999999999829e+01,6.696336823198079102e-01
3.811999999999999744e+01,8.226314168827384421e-01
3.815999999999999659e+01,9.550365298752685472e-01
3.820000000000000284e+01,1.000000000000000000e+00
3.824000000000000199e+01,9.817660093602131877e-01
3.828000000000000114e+01,8.698010899073322921e-01
3.832000000000000028e+01,7.612848505209046657e-01
3.835999999999999943e+01,6.119894106143907164e-01
3.839999999999999858e+01,4.888652313909432334e-01
3.843999999999999773e+01,3.983030386080522178e-01
3.847999999999999687e+01,3.268112998199418917e-01
3.852000000000000313e+01,2.595797613734769360e-01
3.856000000000000227e+01,2.129402781277802970e-01
3.860000000000000142e+01,1.884144513823995670e-01
3.864000000000000057e+01,1.502953683521952299e-01
3.867999999999999972e+01,1.419993886935967953e-01
3.871999999999999886e+01,1.227475949777744324e-01
3.875999999999999801e+01,1.049156784417728111e-01
3.879999999999999716e+01,9.753180725780109805e-02
3.884000000000000341e+01,8.720588907295716286e-02
3.888000000000000256e+01,7.931424871599317139e-02
3.892000000000000171e+01,7.365400590760178001e-02
3.896000000000000085e+01,6.079123191695937761e-02
3.900000000000000000e+01,6.304274708274371086e-02
3.903999999999999915e+01,5.474420781432211974e-02
3.907999999999999829e+01,5.374907036392487236e-02
3.911999999999999744e+01,3.956643587748345792e-02
3.915999999999999659e+01,5.023633908911557394e-02
3.920000000000000284e+01,4.082081876216536037e-02
3.924000000000000199e+01,4.185334275808889892e-02
3.928000000000000114e+01,4.805902615388861487e-02
3.932000000000000028e+01,3.823688944537928514e-02
3.935999999999999943e+01,3.693543501446242688e-02
3.939999999999999858e+01,3.593801524480010751e-02
3.943999999999999773e+01,3.504174985708498336e-02
3.947999999999999687e+01,2.866743364969813121e-02
3.952000000000000313e+01,3.781316575395776008e-02
3.956000000000000227e+01,3.569876155761939757e-02
3.960000000000000142e+01,3.388839155473725995e-02
3.964000000000000057e+01,2.629565007932336065e-02
3.967999999999999972e+01,2.539766846129621822e-02
3.971999999999999886e+01,2.105043731971552659e-02
3.975999999999999801e+01,2.877429077071405258e-02
3.979999999999999716e+01,2.199192438779484088e-02
3.984000000000000341e+01,2.403455943837371281e-02
3.988000000000000256e+01,2.039626254793670476e-02
3.992000000000000171e+01,2.020664198156676278e-02
3.996000000000000085e+01,2.224841653121852059e-02
4.000000000000000000e+01,1.972509988078731402e-02
4.003999999999999915e+01,1.801301685902528121e-02
4.007999999999999829e+01,2.380721350204392101e-02
4.011999999999999744e+01,1.509518956266761233e-02
4.015999999999999659e+01,1.662832760854552824e-02
4.020000000000000284e+01,2.120438095207768936e-02
4.024000000000000199e+01,1.908510058381906668e-02
4.028000000000000114e+01,1.909577449023116061e-02
4.032000000000000028e+01,1.403415598371402992e-02
4.035999999999999943e+01,1.708745704430292625e-02
4.039999999999999858e+01,1.314110374024100684e-02
4.043999999999999773e+01,1.832407074490383092e-02
4.047999999999999687e+01,1.275409976146572519e-02
4.052000000000000313e+01,1.651632908538065367e-02
4.056000000000000227e+01,8.815539583958687669e-03
4.060000000000000142e+01,1.460599401059659887e-02
4.064000000000000057e+01,1.613567601881852123e-02
4.067999999999999972e+01,1.360746570081247490e-02
4.071999999999999886e+01,1.807833308626369609e-02
4.075999999999999801e+01,2.224459139469849370e-02
4.079999999999999716e+01,1.799103310265266417e-02
4.084000000000000341e+01,1.657750842555910306e-02
4.088000000000000256e+01,1.627953569100344319e-02
4.092000000000000171e+01,1.709711480542602455e-02
4.096000000000000085e+01,1.304528019571260869e-02
4.100000000000000000e+01,1.852852495638408412e-02
4.103999999999999915e+01,1.366459079061470468e-02
4.107999999999999829e+01,1.133636939981827289e-02
4.111999999999999744e+01,1.712306579849451685e-02
4.115999999999999659e+01,1.550434568339132020e-02
4.120000000000000284e+01,1.966742103454393459e-02
4.124000000000000199e+01,1.388907736295267106e-02
4.128000000000000114e+01,1.328388841325507837e-02
4.132000000000000028e+01,1.491009139855111257e-02
4.135999999999999943e+01,1.379712167446455612e-02
4.139999999999999858e+01,1.572706444124279818e-02
4.143999999999999773e+01,1.603367533313102694e-02
4.147999999999999687e+01,1.644143583542437628e-02
4.152000000000000313e+01,1.918202789778687342e-02
4.156000000000000227e+01,1.816904585423051444e-02
4.160000000000000142e+01,1.948889518362400056e-02
4.164000000000000057e+01,1.553356882687224189e-02
4.167999999999999972e+01,1.746147690653424012e-02
4.171999999999999886e+01,1.198396716258176217e-02
4.175999999999999801e+01,1.370841287528328303e-02
4.179999999999999716e+01,2.009881162923396122e-02
4.184000000000000341e+01,1.137434522048188026e-02
4.188000000000000256e+01,1.309791695966665975e-02
4.192000000000000171e+01,1.370535616561467142e-02
4.196000000000000085e+01,1.451538395212574953e-02
4.200000000000000000e+01,1.633952096863072745e-02
4.203999999999999915e+01,1.359856201351057441e-02
4.207999999999999829e+01,1.420483423736255447e-02
4.211999999999999744e+01,5.985526401770245239e-03
4.215999999999999659e+01,1.156177912403285116e-02
4.220000000000000284e+01,1.693485949400536095e-02
4.224000000000000199e+01,1.520684110270936404e-02
4.228000000000000114e+01,1.500013175085871189e-02
4.232000000000000028e+01,1.996657468835084590e-02
4.235999999999999943e+01,1.641175728366216571e-02
4.239999999999999858e+01,1.600129012372081272e-02
4.243999999999999773e+01,1.508332977151009315e-02
4.247999999999999687e+01,1.913564114865591581e-02
4.252000000000000313e+01,1.182636920891575773e-02
4.256000000000000227e+01,1.628385503395788497e-02
4.260000000000000142e+01,1.921944636375394824e-02
4.264000000000000057e+01,1.708273985416113722e-02
4.267999999999999972e+01,2.366958804245742481e-02
4.271999999999999886e+01,2.072077411779802564e-02
4.275999999999999801e+01,1.929326810986819324e-02
4.279999999999999716e+01,1.685106760326309308e-02
4.284000000000000341e+01,1.978489835547290326e-02
4.288000000000000256e+01,1.835651135705253928e-02
4.292000000000000171e+01,2.007247338710406448e-02
4.296000000000000085e+01,2.158526128723216655e-02
4.300000000000000000e+01,2.157615375651774844e-02
4.303999999999999915e+01,2.349411385911055403e-02
4.307999999999999829e+01,2.226713685776061241e-02
4.311999999999999744e+01,2.377874804558906263e-02
4.315999999999999659e+01,2.863758788627908045e-02
4.320000000000000284e+01,2.659820690601657697e-02
4.324000000000000199e+01,1.999372714733945247e-02
4.328000000000000114e+01,3.296689062065394360e-02
4.332000000000000028e+01,2.889782370495637062e-02
4.335999999999999943e+01,2.482846190948646142e-02
4.339999999999999858e+01,3.049705405657005333e-02
4.343999999999999773e+01,3.312214835054781703e-02
4.347999999999999687e+01,3.026918246888884653e-02
4.352000000000000313e+01,3.512536839162823388e-02
4.356000000000000227e+01,3.135885107252356363e-02
4.360000000000000142e+01,3.398276416333849415e-02
4.364000000000000057e+01,4.177982645602769385e-02
4.367999999999999972e+01,4.450458847677710855e-02
4.371999999999999886e+01,4.854777598307683656e-02
4.375999999999999801e+01,5.177914693101730303e-02
4.379999999999999716e+01,4.831517584035811830e-02
4.384000000000000341e+01,5.519779822033911432e-02
4.388000000000000256e+01,6.116716366840809632e-02
4.392000000000000171e+01,7.159959701331719550e-02
4.396000000000000085e+01,7.706116952424268973e-02
4.400000000000000000e+01,8.282676593706292389e-02
4.403999999999999915e+01,9.792455442398696752e-02
4.407999999999999829e+01,1.108918043967151157e-01
4.411999999999999744e+01,1.085413036880928800e-01
4.415999999999999659e+01,1.259713243388975168e-01
4.420000000000000284e+01,1.528349767824413175e-01
4.424000000000000199e+01,1.565699911126725574e-01
4.428000000000000114e+01,1.761293628995733995e-01
4.432000000000000028e+01,1.970071587686298142e-01
4.435999999999999943e+01,2.147400145398347115e-01
4.439999999999999858e+01,2.165464784175287483e-01
4.443999999999999773e+01,2.160195227532424045e-01
4.447999999999999687e+01,2.006820160299378764e-01
4.452000000000000313e+01,1.992415044373426480e-01
4.456000000000000227e+01,1.809616397411336897e-01
4.460000000000000142e+01,1.599425947572105933e-01
4.464000000000000057e+01,1.428794155216847606e-01
4.467999999999999972e+01,1.258159383189182412e-01
4.471999999999999886e+01,1.114910455629441050e-01
4.475999999999999801e+01,9.199240991604576423e-02
4.479999999999999716e+01,8.618788855919158609e-02
4.484000000000000341e+01,8.393347211144129572e-02
4.488000000000000256e+01,7.518659128472840458e-02
4.492000000000000171e+01,7.019269536574769541e-02
4.496000000000000085e+01,5.718473348757795865e-02
4.500000000000000000e+01,4.792975633002111158e-02
4.503999999999999915e+01,4.912280992918873629e-02
4.507999999999999829e+01,4.686660146780967373e-02
4.511999999999999744e+01,3.720496723024584868e-02
4.515999999999999659e+01,4.042592569769887928e-02
4.520000000000000284e+01,2.964785216505042009e-02
4.524000000000000199e+01,3.814309700134935893e-02
4.528000000000000114e+01,3.040762760720372090e-02
4.532000000000000028e+01,2.794674357830087552e-02
4.535999999999999943e+01,3.177484574981923743e-02
4.539999999999999858e+01,2.819752149023525487e-02
4.543999999999999773e+01,2.543141822876763061e-02
4.547999999999999687e+01,2.631685847232329012e-02
4.552000000000000313e+01,2.304295497605947721e-02
4.556000000000000227e+01,2.189899340459252816e-02
4.560000000000000142e+01,2.095761189976051361e-02
4.564000000000000057e+01,1.656696702454666520e-02
4.567999999999999972e+01,1.430626379345081856e-02
4.571999999999999886e+01,1.823310582786546660e-02
4.575999999999999801e+01,1.292859891741241288e-02
4.579999999999999716e+01,1.644907950006958830e-02
4.584000000000000341e+01,1.337565336545872528e-02
4.588000000000000256e+01,1.496817072901270897e-02
4.592000000000000171e+01,1.534310611049109763e-02
4.596000000000000085e+01,1.876094331703410251e-02
4.600000000000000000e+01,1.812087575391567104e-02
4.603999999999999915e+01,1.788626741402359402e-02
4.607999999999999829e+01,1.055055133113657999e-02
4.611999999999999744e+01,1.254702245725156790e-02
4.615999999999999659e+01,1.667343410476868765e-02
4.620000000000000284e+01,1.207569624263099897e-02
4.624000000000000199e+01,1.863606698054489502e-02
4.628000000000000114e+01,1.241468430673244375e-02
4.632000000000000028e+01,1.653988930286182102e-02
4.635999999999999943e+01,8.999181721757395364e-03
4.639999999999999858e+01,9.167619208756559029e-03
4.643999999999999773e+01,7.509832940161824399e-03
4.647999999999999687e+01,1.163382978794906368e-02
4.652000000000000313e+01,8.149517399216151675e-03
4.656000000000000227e+01,1.704059397654330080e-02
4.660000000000000142e+01,1.071535416469553831e-02
4.664000000000000057e+01,1.433094090281716512e-02
4.667999999999999972e+01,1.064253830880150867e-02
4.671999999999999886e+01,1.415607957004317262e-02
4.675999999999999801e+01,1.046707140490200048e-02
4.679999999999999716e+01,1.387856681502509446e-02
4.684000000000000341e+01,1.110191354038411217e-02
4.688000000000000256e+01,8.426397245595421137e-03
4.692000000000000171e+01,8.083699880323119702e-03
4.696000000000000085e+01,1.058102181537658171e-02
4.700000000000000000e+01,1.297660026385577363e-02
4.703999999999999915e+01,1.192291206736541959e-02
4.707999999999999829e+01,1.208620140454099053e-02
4.711999999999999744e+01,1.275638753170616445e-02
4.715999999999999659e+01,1.119458784770853595e-02
4.720000000000000284e+01,1.024112485945503741e-02
4.724000000000000199e+01,1.060607912350264997e-02
4.728000000000000114e+01,1.208657036054409765e-02
4.732000000000000028e+01,1.153795559793177258e-02
4.735999999999999943e+01,1.180055734257255858e-02
4.739999999999999858e+01,9.121092064576008518e-03
4.743999999999999773e+01,1.587525100098684250e-02
4.747999999999999687e+01,3.051167496336746904e-03
4.752000000000000313e+01,1.122487860658867402e-02
4.756000000000000227e+01,1.026867665466244840e-02
4.760000000000000142e+01,9.616490184262424870e-03
4.764000000000000057e+01,7.036637058605208460e-03
4.767999999999999972e+01,5.673760063219158989e-03
4.771999999999999886e+01,1.648338913491569427e-02
4.775999999999999801e+01,1.298965994007169819e-02
4.779999999999999716e+01,1.193018770930560392e-02
4.784000000000000341e+01,1.360929262767915544e-02
4.788000000000000256e+01,8.897366242990114443e-03
4.792000000000000171e+01,1.818386712931397559e-02
4.796000000000000085e+01,9.515165937841985402e-03
4.800000000000000000e+01,1.342473053003028979e-02
4.803999999999999915e+01,1.063894316629599573e-02
4.807999999999999829e+01,1.282341443356719429e-02
4.811999999999999744e+01,1.551478015183675382e-02
4.815999999999999659e+01,1.303239502661184684e-02
4.820000000000000284e+01,1.085402397951838738e-02
4.824000000000000199e+01,1.080558858872526090e-02
4.828000000000000114e+01,1.146692746043947997e-02
4.832000000000000028e+01,9.794837714887252508e-03
4.835999999999999943e+01,7.615240930237399813e-03
4.839999999999999858e+01,1.091310249248487671e-02
4.843999999999999773e+01,1.066025404230124159e-02
4.847999999999999687e+01,9.291257715098207026e-03
4.852000000000000313e+01,8.124834624675641992e-03
4.856000000000000227e+01,1.192866904254273261e-02
4.860000000000000142e+01,9.848670937642575035e-03
4.864000000000000057e+01,1.040580801781527606e-02
4.867999999999999972e+01,9.643916567422696276e-03
4.871999999999999886e+01,9.997558721876572546e-03
4.875999999999999801e+01,1.461137726670525515e-02
4.879999999999999716e+01,1.435576374970648494e-02
4.884000000000000341e+01,1.795456606446798123e-02
4.888000000000000256e+01,1.374217343694233810e-02
4.892000000000000171e+01,1.003667338922207934e-02
4.896000000000000085e+01,8.765427592349838565e-03
4.900000000000000000e+01,1.520332078220389127e-02
4.903999999999999915e+01,1.098969605506564147e-02
4.907999999999999829e+01,1.367368938454395326e-02
4.911999999999999744e+01,6.720565538648722373e-03
4.915999999999999659e+01,1.265002504180533401e-02
4.920000000000000284e+01,1.005820820408097165e-02
4.924000000000000199e+01,8.480483662053808075e-03
4.928000000000000114e+01,8.829812158028414390e-03
4.932000000000000028e+01,1.232347471293082988e-02
4.935999999999999943e+01,1.135346426766596813e-02
4.939999999999999858e+01,1.170186602248107256e-02
4.943999999999999773e+01,1.245571904795227634e-02
4.947999999999999687e+01,1.138334120729618537e-02
4.952000000000000313e+01,1.457113797938153557e-02
4.956000000000000227e+01,1.664278434833694337e-02
4.960000000000000142e+01,1.597523873462182095e-02
4.964000000000000057e+01,7.090736029491015793e-03
4.967999999999999972e+01,1.098737536426277160e-02
4.971999999999999886e+01,1.630386624351114200e-02
4.975999999999999801e+01,9.650116314334020867e-03
4.979999999999999716e+01,8.778141736087867464e-03
4.984000000000000341e+01,9.021698143017963661e-03
4.988000000000000256e+01,1.098942599880747134e-02
4.992000000000000171e+01,5.856037129875596957e-03
4.996000000000000085e+01,1.188074815994787092e-02
5.000000000000000000e+01,1.252882385703412392e-02
5.003999999999999915e+01,8.916105149186654907e-03
5.007999999999999829e+01,1.108516113735258900e-02
5.011999999999999744e+01,8.181901790475022349e-03
5.015999999999999659e+01,1.308921880996772973e-02
5.020000000000000284e+01,1.414150142178327574e-02
5.024000000000000199e+01,1.590355371168336238e-02
5.028000000000000114e+01,8.028486112980031189e-03
5.032000000000000028e+01,1.100719729262255447e-02
5.035999999999999943e+01,1.013087369034934224e-02
5.039999999999999858e+01,1.118160050640771598e-02
5.043999999999999773e+01,1.284065643987852660e-02
5.047999999999999687e+01,1.044179712500705598e-02
5.052000000000000313e+01,1.240455017675957256e-02
5.056000000000000227e+01,1.385979104363372141e-02
5.060000000000000142e+01,1.318447814608892342e-02
5.064000000000000057e+01,1.068293166918698155e-02
5.067999999999999972e+01,1.325307783478706265e-02
5.071999999999999886e+01,7.910584661482315122e-03
5.075999999999999801e+01,1.474059044472675675e-02
5.079999999999999716e+01,1.162915484447090211e-02
5.084000000000000341e+01,1.145916956212855893e-02
5.088000000000000256e+01,1.169463218229489267e-02
5.092000000000000171e+01,1.050962093968173423e-02
5.096000000000000085e+01,8.005575833603268895e-03
5.100000000000000000e+01,9.355941507063935542e-03
5.103999999999999915e+01,1.537223860949457795e-02
5.107999999999999829e+01,1.317157525236210477e-02
5.111999999999999744e+01,9.550437564651868827e-03
5.115999999999999659e+01,9.783710282242209788e-03
5.120000000000000284e+01,1.529155461180672568e-02
5.124000000000000199e+01,1.288675838619095064e-02
5.128000000000000114e+01,1.210469024197304184e-02
5.132000000000000028e+01,8.887746370641068372e-03
5.135999999999999943e+01,8.916571879568575831e-03
5.139999999999999858e+01,1.219116667519587818e-02
5.143999999999999773e+01,1.861009057108952910e-02
5.147999999999999687e+01,1.021844703502615415e-02
5.152000000000000313e+01,1.186905872752866756e-02
5.156000000000000227e+01,7.940151252471222207e-03
5.160000000000000142e+01,8.271413525053424379e-03
5.164000000000000057e+01,8.805241736763325805e-03
5.167999999999999972e+01,1.075891690852696231e-02
5.171999999999999886e+01,1.261083755367761045e-02
5.175999999999999801e+01,1.415812339290797861e-02
5.179999999999999716e+01,1.347341256805611835e-02
5.184000000000000341e+01,1.562870962925271001e-02
5.188000000000000256e+01,1.423328863188823810e-02
5.192000000000000171e+01,9.084269296655470005e-03
5.196000000000000085e+01,1.631062629693001351e-02
5.200000000000000000e+01,9.943695763457759476e-03
5.203999999999999915e+01,1.564782109975204616e-02
5.207999999999999829e+01,8.468739365296868576e-03
5.211999999999999744e+01,1.589671563533413476e-02
5.215999999999999659e+01,1.247028650497872954e-02
5.220000000000000284e+01,1.695586906232524754e-02
5.224000000000000199e+01,1.028272575353840999e-02
5.228000000000000114e+01,1.223167459545081853e-02
5.232000000000000028e+01,1.184718546413171363e-02
5.235999999999999943e+01,1.491134355982841678e-02
5.239999999999999858e+01,1.209166024459112053e-02
5.243999999999999773e+01,1.403934517660981179e-02
5.247999999999999687e+01,1.040750878919658590e-02
5.252000000000000313e+01,1.032575934743441143e-02
5.256000000000000227e+01,1.176529490028745129e-02
5.260000000000000142e+01,8.538269688893908305e-03
5.264000000000000057e+01,8.962771235346245549e-03
5.267999999999999972e+01,6.749513687908796286e-03
5.271999999999999886e+01,1.194106614752874114e-02
5.275999999999999801e+01,1.246605746866350818e-02
5.279999999999999716e+01,1.613537470903654916e-02
5.284000000000000341e+01,1.199348774471706118e-02
5.288000000000000256e+01,1.150312697688554188e-02
5.292000000000000171e+01,1.233117017588482300e-02
5.296000000000000085e+01,1.113009418331961480e-02
5.300000000000000000e+01,1.479782522104907544e-02
5.303999999999999915e+01,1.613211660147337648e-02
5.307999999999999829e+01,7.119200894002090246e-03
5.311999999999999744e+01,1.646662428836280501e-02
5.315999999999999659e+01,1.293083808586351774e-02
5.320000000000000284e+01,1.284369714562737068e-02
5.324000000000000199e+01,1.427783960949242058e-02
5.328000000000000114e+01,1.388574231906339156e-02
5.332000000000000028e+01,1.765237066033524885e-02
5.335999999999999943e+01,1.056459079442492732e-02
5.339999999999999858e+01,1.260610092391266542e-02
5.343999999999999773e+01,1.018392851014880175e-02
5.347999999999999687e+01,1.019599977499244942e-02
5.352000000000000313e+01,1.183079388189353827e-02
5.356000000000000227e+01,1.123358720808780194e-02
5.360000000000000142e+01,1.266486356071541870e-02
5.364000000000000057e+01,1.602318275334292663e-02
5.367999999999999972e+01,1.430917828411806293e-02
5.371999999999999886e+01,9.450211824083508058e-03
5.375999999999999801e+01,1.321333405304114285e-02
5.379999999999999716e+01,1.109261159647696206e-02
5.384000000000000341e+01,1.110181169786208545e-02
5.388000000000000256e+01,1.384957482087964195e-02
5.392000000000000171e+01,1.507541697127014191e-02
5.396000000000000085e+01,1.417069749823111555e-02
5.400000000000000000e+01,9.208054543600543290e-03
5.403999999999999915e+01,1.124445813706371512e-02
5.407999999999999829e+01,1.764246577034199112e-02
5.411999999999999744e+01,1.328750351167858751e-02
5.415999999999999659e+01,1.278694464134196192e-02
5.420000000000000284e+01,1.005438349334405838e-02
5.424000000000000199e+01,9.451743967698961191e-03
5.428000000000000114e+01,1.655823107890631168e-02
5.432000000000000028e+01,1.605639070946171532e-02
5.435999999999999943e+01,8.960623694543611018e-03
5.439999999999999858e+01,1.322582637925603238e-02
5.443999999999999773e+01,1.779502854679444745e-02
5.447999999999999687e+01,1.323430146633523645e-02
5.452000000000000313e+01,1.364381795377784048e-02
5.456000000000000227e+01,1.506741429348410800e-02
5.460000000000000142e+01,1.507052816292307404e-02
5.464000000000000057e+01,1.192867788968040264e-02
5.467999999999999972e+01,1.355419062435329024e-02
5.471999999999999886e+01,1.355634042233231154e-02
5.475999999999999801e+01,1.609417099788388802e-02
5.479999999999999716e+01,1.639999789237943373e-02
5.484000000000000341e+01,1.680694314835686626e-02
5.488000000000000256e+01,1.792364722949940301e-02
5.492000000000000171e+01,1.264930354108089773e-02
5.496000000000000085e+01,1.011352034818428086e-02
5.500000000000000000e+01,1.711278377979495030e-02
5.503999999999999915e+01,1.437347609633005639e-02
5.507999999999999829e+01,1.761881159966989518e-02
5.511999999999999744e+01,1.183565645093150563e-02
5.515999999999999659e+01,1.710914894556891247e-02
5.520000000000000284e+01,1.091958837203739832e-02
5.524000000000000199e+01,1.335211302579102088e-02
5.528000000000000114e+01,1.355263287577283121e-02
5.532000000000000028e+01,1.405715015026831952e-02
5.535999999999999943e+01,1.283686289824173543e-02
5.539999999999999858e+01,8.471609725900124468e-03
5.543999999999999773e+01,1.374284224178346989e-02
5.547999999999999687e+01,1.343454642126112875e-02
5.552000000000000313e+01,1.353168765032802291e-02
5.556000000000000227e+01,1.322274509243410480e-02
5.560000000000000142e+01,1.271059883976726618e-02
5.564000000000000057e+01,1.311108982037976350e-02
5.567999999999999972e+01,1.584437924094527980e-02
5.571999999999999886e+01,1.654854301433039340e-02
5.575999999999999801e+01,1.613654188283976387e-02
5.579999999999999716e+01,1.146373287382574345e-02
5.584000000000000341e+01,1.338420583122599573e-02
5.588000000000000256e+01,1.053667025961448414e-02
5.592000000000000171e+01,1.357233581718127538e-02
5.596000000000000085e+01,1.173855256574324671e-02
5.600000000000000000e+01,1.517932969912136505e-02
5.603999999999999915e+01,1.679386062258952581e-02
5.607999999999999829e+01,1.617638487109290119e-02
5.611999999999999744e+01,1.342834244394558452e-02
5.615999999999999659e+01,1.930238309221145657e-02
5.620000000000000284e+01,1.706089139815279709e-02
5.624000000000000199e+01,1.634067609122151488e-02
5.628000000000000114e+01,1.785181772797467606e-02
5.632000000000000028e+01,1.074022627735529006e-02
5.635999999999999943e+01,1.225071743435084300e-02
5.639999999999999858e+01,1.244216200376861356e-02
5.643999999999999773e+01,1.283616128515607802e-02
5.647999999999999687e+01,1.576583732105113836e-02
5.652000000000000313e+01,1.331886277373719660e-02
5.656000000000000227e+01,1.036436200759735179e-02
5.660000000000000142e+01,1.755354468082165678e-02
5.664000000000000057e+01,1.733727463268186150e-02
5.667999999999999972e+01,1.681635827078484247e-02
5.671999999999999886e+01,1.568647522294948013e-02
5.675999999999999801e+01,1.810666920344223760e-02
5.679999999999999716e+01,1.525165203868227189e-02
5.684000000000000341e+01,1.290350892891689062e-02
5.688000000000000256e+01,1.451120293829589840e-02
5.692000000000000171e+01,1.956753350889056664e-02
5.696000000000000085e+01,1.569680921653689165e-02
5.700000000000000000e+01,1.486896092678439973e-02
5.703999999999999915e+01,1.525806687434488190e-02
5.707999999999999829e+01,1.706700715140631666e-02
5.711999999999999744e+01,1.441225627772829004e-02
5.715999999999999659e+01,1.916230502598651950e-02
5.720000000000000284e+01,1.894146197201691806e-02
5.724000000000000199e+01,1.648860952985263875e-02
5.728000000000000114e+01,1.352822918478877381e-02
5.732000000000000028e+01,1.959568957340342144e-02
5.735999999999999943e+01,1.277993054139476420e-02
5.739999999999999858e+01,1.570209270606200136e-02
5.743999999999999773e+01,1.416056297151255250e-02
5.747999999999999687e+01,1.515470765247944190e-02
5.752000000000000313e+01,1.290244136159605058e-02
5.756000000000000227e+01,1.602617189957623520e-02
5.760000000000000142e+01,1.367180923536307630e-02
5.764000000000000057e+01,1.141855838345631931e-02
5.767999999999999972e+01,1.626578565858892433e-02
5.771999999999999886e+01,1.401187796486832136e-02
5.775999999999999801e+01,1.500372468186312799e-02
5.779999999999999716e+01,2.228452850222793769e-02
5.784000000000000341e+01,1.374034908591320603e-02
5.788000000000000256e+01,1.777441234402514156e-02
5.792000000000000171e+01,1.846062360181651568e-02
5.796000000000000085e+01,1.356730072250384236e-02
5.800000000000000000e+01,1.790469717210329062e-02
5.803999999999999915e+01,1.858992106208175177e-02
5.807999999999999829e+01,1.765177415635574287e-02
5.811999999999999744e+01,1.691617803309409737e-02
5.815999999999999659e+01,1.364425009114438384e-02
5.820000000000000284e+01,1.655983822409435799e-02
5.824000000000000199e+01,8.925327014206233672e-03
5.828000000000000114e+01,1.894106218683859477e-02
5.832000000000000028e+01,1.658077615778509595e-02
5.835999999999999943e+01,1.513312099995469187e-02
5.839999999999999858e+01,1.368513578392349488e-02
5.843999999999999773e+01,1.416418218073417848e-02
5.847999999999999687e+01,1.383137758923433380e-02
5.852000000000000313e+01,1.715008600231175337e-02
5.856000000000000227e+01,1.407773813189998335e-02
5.860000000000000142e+01,1.414970261457721042e-02
5.864000000000000057e+01,1.675733879954085029e-02
5.867999999999999972e+01,1.195951749159829096e-02
5.871999999999999886e+01,1.192904974204665215e-02
5.875999999999999801e+01,1.260833174237396652e-02
5.879999999999999716e+01,1.389592330614685192e-02
5.884000000000000341e+01,1.619758471130086294e-02
5.888000000000000256e+01,1.362979047759557867e-02
5.892000000000000171e+01,1.197462580527828419e-02
5.896000000000000085e+01,1.427529338700353652e-02
5.900000000000000000e+01,1.657562950713328473e-02
5.903999999999999915e+01,1.441226998566031391e-02
5.907999999999999829e+01,1.610330234467713742e-02
5.911999999999999744e+01,1.637384166118620657e-02
5.915999999999999659e+01,1.684692932760872494e-02
5.920000000000000284e+01,1.660960441452078926e-02
5.924000000000000199e+01,1.474890599249852052e-02
5.928000000000000114e+01,1.877140084064390577e-02
5.932000000000000028e+01,1.548987679180247046e-02
5.935999999999999943e+01,1.180226006783343870e-02
5.939999999999999858e+01,1.927272116279106842e-02
5.943999999999999773e+01,1.436715843639257972e-02
5.947999999999999687e+01,1.595342906960636048e-02
5.952000000000000313e+01,1.875664813943485332e-02
5.956000000000000227e+01,1.587888923689949328e-02
5.960000000000000142e+01,1.949296341329746773e-02
5.964000000000000057e+01,1.204973450790059776e-02
5.967999999999999972e+01,1.353290072328907148e-02
5.971999999999999886e+01,1.582725453599872351e-02
5.975999999999999801e+01,1.223774972279873148e-02
5.979999999999999716e+01,1.929912132855985882e-02
5.984000000000000341e+01,1.631759031346594752e-02
5.988000000000000256e+01,1.394436633570704000e-02
5.992000000000000171e+01,1.299097004471391412e-02
5.996000000000000085e+01,1.437036218279114617e-02
