2.003999999999999915e+01,8.082591059078362075e-03
2.007999999999999829e+01,5.361233952268785498e-03
2.012000000000000099e+01,8.193638558811238218e-03
2.016000000000000014e+01,2.379291066595055383e-03
2.019999999999999929e+01,6.473529598059705494e-03
2.023999999999999844e+01,1.113557174564103365e-02
2.028000000000000114e+01,6.267274363403905688e-03
2.032000000000000028e+01,5.942924538425382007e-03
2.035999999999999943e+01,8.395347246852926174e-03
2.039999999999999858e+01,1.400322289021879545e-02
2.044000000000000128e+01,6.925089389939892599e-03
2.048000000000000043e+01,4.327790181442266355e-03
2.051999999999999957e+01,5.327737768972952946e-03
2.055999999999999872e+01,8.997167192891601922e-04
2.060000000000000142e+01,8.273683862681246309e-03
2.064000000000000057e+01,1.059836280273788837e-02
2.067999999999999972e+01,6.548372279656255839e-03
2.071999999999999886e+01,4.896474211915541157e-03
2.076000000000000156e+01,6.589369554826438567e-03
2.080000000000000071e+01,6.199306382409015825e-03
2.083999999999999986e+01,7.891768788051407510e-03
2.087999999999999901e+01,5.860324476588150977e-03
2.092000000000000171e+01,6.921220125706272278e-03
2.096000000000000085e+01,6.845858311846969059e-03
2.100000000000000000e+01,7.022733754370695872e-03
2.103999999999999915e+01,7.893640249673936418e-03
2.107999999999999829e+01,5.419320558790766303e-03
2.112000000000000099e+01,5.027526672394316484e-03
2.116000000000000014e+01,1.277714452980063461e-02
2.119999999999999929e+01,8.156320832471083276e-03
2.123999999999999844e+01,8.331899015831714661e-03
2.128000000000000114e+01,1.210472460980828793e-02
2.132000000000000028e+01,1.101760273493644637e-02
2.135999999999999943e+01,9.046677300011365941e-03
2.139999999999999858e+01,4.803453650365926975e-03
2.144000000000000128e+01,8.133621417171863627e-03
2.148000000000000043e+01,8.623470480172621550e-03
2.151999999999999957e+01,9.049990245742385586e-03
2.155999999999999872e+01,7.014871741385953277e-03
2.160000000000000142e+01,1.154333046503956857e-02
2.164000000000000057e+01,9.949574081333180733e-03
2.167999999999999972e+01,1.050145734983182894e-02
2.171999999999999886e+01,5.625372919170927750e-03
2.176000000000000156e+01,1.349797854260452630e-02
2.180000000000000071e+01,4.960885825190252882e-03
2.183999999999999986e+01,5.953700088486656508e-03
2.187999999999999901e+01,9.470834534907334595e-03
2.192000000000000171e+01,9.453403289829775610e-03
2.196000000000000085e+01,1.385369413849776681e-02
2.200000000000000000e+01,1.453007917576823113e-02
2.203999999999999915e+01,1.678408360258587181e-02
2.207999999999999829e+01,1.777560468240558730e-02
2.212000000000000099e+01,2.406843551345744237e-02
2.216000000000000014e+01,1.584497014070974583e-02
2.219999999999999929e+01,2.037019517787052106e-02
2.223999999999999844e+01,2.401161736660583149e-02
2.228000000000000114e+01,1.906940256582243670e-02
2.232000000000000028e+01,2.113255933933978065e-02
2.235999999999999943e+01,2.054473830527249120e-02
2.239999999999999858e+01,2.551068082832134293e-02
2.244000000000000128e+01,1.690702829696160911e-02
2.248000000000000043e+01,2.692161212431380332e-02
2.251999999999999957e+01,2.349282775167936890e-02
2.255999999999999872e+01,2.372440521962009691e-02
2.260000000000000142e+01,2.427133463267678801e-02
2.264000000000000057e+01,2.399757491563951281e-02
2.267999999999999972e+01,3.104475403834472055e-02
2.271999999999999886e+01,2.401743117415428008e-02
2.276000000000000156e+01,2.462661418872110625e-02
2.280000000000000071e+01,2.492001536149490715e-02
2.283999999999999986e+01,2.862132502181381072e-02
2.287999999999999901e+01,3.137571895639049840e-02
2.292000000000000171e+01,3.406678472567133825e-02
2.296000000000000085e+01,3.170856416772633440e-02
2.300000000000000000e+01,2.909767532458610792e-02
2.303999999999999915e+01,2.920044778721774328e-02
2.307999999999999829e+01,2.324411970183548962e-02
2.312000000000000099e+01,3.186677122139981028e-02
2.316000000000000014e+01,2.957059085309543880e-02
2.319999999999999929e+01,2.923071118157868561e-02
2.323999999999999844e+01,2.245305072224929727e-02
2.328000000000000114e+01,2.949700925888223274e-02
2.332000000000000028e+01,2.619015659081173550e-02
2.335999999999999943e+01,2.181016179543107322e-02
2.339999999999999858e+01,2.632894129364042948e-02
2.344000000000000128e+01,2.624022861683437957e-02
2.348000000000000043e+01,2.501526051489402769e-02
2.351999999999999957e+01,2.928094348091368759e-02
2.355999999999999872e+01,2.704573252303020189e-02
2.360000000000000142e+01,2.626191542648739080e-02
2.364000000000000057e+01,2.762373956713881640e-02
2.367999999999999972e+01,2.639770036251149268e-02
2.371999999999999886e+01,2.056416920929583433e-02
2.376000000000000156e+01,1.908524821056372181e-02
2.380000000000000071e+01,2.360188566513270539e-02
2.383999999999999986e+01,1.858818646874105598e-02
2.387999999999999901e+01,2.367241645652094426e-02
2.392000000000000171e+01,2.162461886287557131e-02
2.396000000000000085e+01,2.090198863196274584e-02
2.400000000000000000e+01,1.702347476076658539e-02
2.403999999999999915e+01,1.718400429615973488e-02
2.407999999999999829e+01,1.955328881942523453e-02
2.412000000000000099e+01,2.103877201456104754e-02
2.416000000000000014e+01,1.715940287855114918e-02
2.419999999999999929e+01,1.511010845826827632e-02
2.423999999999999844e+01,1.501711557578762866e-02
2.428000000000000114e+01,1.025351780270831147e-02
2.432000000000000028e+01,1.072811816506634083e-02
2.435999999999999943e+01,8.930422706361131405e-03
2.439999999999999858e+01,1.306517279129358264e-02
2.444000000000000128e+01,1.107771003313619620e-02
2.448000000000000043e+01,1.148834277091119807e-02
2.451999999999999957e+01,9.879133396466939152e-03
2.455999999999999872e+01,1.047867939805564343e-02
2.460000000000000142e+01,1.398122815153095277e-02
2.464000000000000057e+01,1.256071872607106808e-02
2.467999999999999972e+01,1.505302643501940651e-02
2.471999999999999886e+01,9.719059865969974926e-03
2.476000000000000156e+01,9.938858762492968138e-03
2.480000000000000071e+01,1.224118643940075996e-02
2.483999999999999986e+01,7.095920304536458036e-03
2.487999999999999901e+01,1.066008947549788519e-02
2.492000000000000171e+01,8.165159586394452051e-03
2.496000000000000085e+01,1.330673735511774675e-02
2.500000000000000000e+01,6.645897195821667477e-03
2.503999999999999915e+01,5.033915569611043146e-03
2.507999999999999829e+01,9.669947011253534480e-03
2.512000000000000099e+01,9.824714426171226797e-03
2.516000000000000014e+01,6.129351795353541604e-03
2.519999999999999929e+01,7.609074616736635245e-03
2.523999999999999844e+01,1.167623373323251404e-02
2.528000000000000114e+01,9.999861055105276758e-03
2.532000000000000028e+01,9.333089865177664896e-03
2.535999999999999943e+01,8.350538903646903197e-03
2.539999999999999858e+01,1.298486732010041729e-02
2.544000000000000128e+01,4.365170082470432207e-03
2.548000000000000043e+01,1.177606244012136330e-02
2.551999999999999957e+01,8.015671238902923740e-03
2.555999999999999872e+01,1.075574707315528865e-02
2.560000000000000142e+01,7.373611002372659762e-03
2.564000000000000057e+01,9.671467898518826614e-03
2.567999999999999972e+01,7.235607641337206235e-03
2.571999999999999886e+01,1.136332794387754502e-02
2.576000000000000156e+01,6.654960491606447086e-03
2.580000000000000071e+01,7.689699530515324739e-03
2.583999999999999986e+01,8.345545791117381026e-03
2.587999999999999901e+01,3.194747347432793424e-03
2.592000000000000171e+01,9.404147634887668333e-03
2.596000000000000085e+01,7.534821067635876640e-03
2.600000000000000000e+01,5.223488456599879523e-03
2.603999999999999915e+01,5.120912418425431489e-03
2.607999999999999829e+01,8.300020698151737777e-03
2.612000000000000099e+01,4.599556754979241754e-03
2.616000000000000014e+01,5.001251327636267903e-03
2.619999999999999929e+01,1.070425895089058971e-02
2.623999999999999844e+01,1.217845703258528534e-02
2.628000000000000114e+01,9.865639369116921756e-03
2.632000000000000028e+01,5.596094443895798833e-03
2.635999999999999943e+01,8.899944913772283445e-03
2.639999999999999858e+01,4.566862648805834236e-03
2.644000000000000128e+01,9.889917874151036084e-03
2.648000000000000043e+01,9.658782459867431766e-03
2.651999999999999957e+01,1.159580459138455670e-03
2.655999999999999872e+01,4.146804496824878575e-03
2.660000000000000142e+01,6.628909581063596214e-03
2.664000000000000057e+01,6.523153713680713769e-03
2.667999999999999972e+01,5.028691429443889367e-03
2.671999999999999886e+01,9.845356934139837951e-03
2.676000000000000156e+01,8.098017707805797369e-03
2.680000000000000071e+01,1.051595090971307357e-02
2.683999999999999986e+01,6.748559814469341257e-03
2.687999999999999901e+01,8.598049294038416848e-03
2.692000000000000171e+01,8.617038786783971782e-03
2.696000000000000085e+01,8.067796222338059764e-03
2.700000000000000000e+01,2.784837572006051976e-03
2.703999999999999915e+01,7.852264240693374378e-03
2.707999999999999829e+01,6.481913226852932010e-03
2.712000000000000099e+01,6.499845526000033215e-03
2.716000000000000014e+01,7.842947775617035294e-03
2.719999999999999929e+01,7.923570818615999212e-03
2.723999999999999844e+01,8.319549558950116094e-03
2.728000000000000114e+01,7.011255393309800618e-03
2.732000000000000028e+01,8.353512599675814651e-03
2.735999999999999943e+01,1.177830065661647323e-02
2.739999999999999858e+01,5.672754941454372264e-03
2.744000000000000128e+01,7.077492099886855195e-03
2.748000000000000043e+01,4.442760904100801628e-03
2.751999999999999957e+01,8.939632277417276091e-03
2.755999999999999872e+01,6.872499566638087809e-03
2.760000000000000142e+01,8.150165797799136663e-03
2.764000000000000057e+01,5.325250409264210318e-03
2.767999999999999972e+01,7.801649268155081383e-03
2.771999999999999886e+01,3.966497751794237359e-03
2.776000000000000156e+01,7.641629367801773022e-03
2.780000000000000071e+01,5.510117832165140755e-03
2.783999999999999986e+01,5.019343771213948500e-03
2.787999999999999901e+01,8.567616222136904477e-03
2.792000000000000171e+01,7.823967095198133478e-03
2.796000000000000085e+01,2.599056238151511728e-03
2.800000000000000000e+01,8.797459189137895111e-03
2.803999999999999915e+01,9.883466526067211100e-03
2.807999999999999829e+01,5.162830937779403807e-03
2.812000000000000099e+01,1.678835405397716835e-02
2.816000000000000014e+01,8.722287439513490281e-03
2.819999999999999929e+01,3.496113093276710052e-03
2.823999999999999844e+01,6.726923190532891651e-03
2.828000000000000114e+01,1.008374964154613342e-02
2.832000000000000028e+01,7.507706571694004911e-03
2.835999999999999943e+01,7.519102319998566437e-03
2.839999999999999858e+01,9.928596734213777919e-03
2.844000000000000128e+01,2.870871612205075363e-03
2.848000000000000043e+01,8.624955373403719525e-03
2.851999999999999957e+01,1.065513859571971984e-02
2.855999999999999872e+01,6.184431937472288816e-03
2.860000000000000142e+01,1.099118414707365987e-02
2.864000000000000057e+01,6.078263402727663266e-03
2.867999999999999972e+01,8.675626534724544675e-03
2.871999999999999886e+01,8.432676817672037778e-03
2.876000000000000156e+01,5.475641073645461099e-03
2.880000000000000071e+01,4.916704318996667662e-03
2.883999999999999986e+01,2.401042340438331972e-03
2.887999999999999901e+01,9.225952851020098947e-03
2.892000000000000171e+01,5.700056685438889895e-03
2.896000000000000085e+01,8.043496356156769680e-03
2.900000000000000000e+01,8.240870747759169654e-03
2.903999999999999915e+01,7.617561184742373433e-03
2.907999999999999829e+01,3.207238140832710787e-03
2.912000000000000099e+01,6.812106487993912704e-03
2.916000000000000014e+01,4.736559573027843487e-03
2.919999999999999929e+01,6.763173632241865560e-03
2.923999999999999844e+01,9.862505744498113042e-03
2.928000000000000114e+01,9.111711142730807844e-03
2.932000000000000028e+01,5.015697018200799759e-03
2.935999999999999943e+01,6.599678868844305844e-03
2.939999999999999858e+01,7.678544030310300098e-03
2.944000000000000128e+01,1.057365520419659621e-03
2.948000000000000043e+01,4.218553748919722131e-03
2.951999999999999957e+01,7.884439703110658268e-03
2.955999999999999872e+01,4.481416031627714555e-03
2.960000000000000142e+01,9.787831482883167789e-03
2.964000000000000057e+01,8.467131137208004643e-03
2.967999999999999972e+01,9.039623333624329654e-03
2.971999999999999886e+01,6.203782935880873366e-03
2.976000000000000156e+01,5.955382488429232339e-03
2.980000000000000071e+01,1.062961763359385713e-02
2.983999999999999986e+01,1.044391219976080823e-02
2.987999999999999901e+01,6.092513562783658139e-03
2.992000000000000171e+01,6.474410430870126791e-03
2.996000000000000085e+01,9.191293831524942337e-03
3.000000000000000000e+01,8.058051100397192398e-03
3.003999999999999915e+01,4.210723377390211512e-03
3.007999999999999829e+01,7.873680662861289384e-03
3.012000000000000099e+01,6.992264570082985797e-03
3.016000000000000014e+01,1.172773170454829289e-02
3.019999999999999929e+01,7.564001279823573919e-03
3.023999999999999844e+01,5.672144219229990555e-03
3.028000000000000114e+01,9.207830298327369933e-03
3.032000000000000028e+01,2.897617992310942518e-03
3.035999999999999943e+01,1.211309206896085677e-02
3.039999999999999858e+01,8.326998081977336763e-03
3.044000000000000128e+01,7.317684779772591630e-03
3.048000000000000043e+01,1.028430669711436450e-02
3.051999999999999957e+01,8.390988585352655502e-03
3.055999999999999872e+01,1.041049236296662933e-02
3.060000000000000142e+01,1.022081876046955842e-02
3.064000000000000057e+01,1.148254471233538417e-02
3.067999999999999972e+01,8.515464713127208693e-03
3.071999999999999886e+01,8.388279019989118221e-03
3.076000000000000156e+01,5.105215153162943019e-03
3.080000000000000071e+01,7.123468056806513474e-03
3.083999999999999986e+01,1.286520289165998983e-02
3.087999999999999901e+01,1.084378182477439834e-02
3.092000000000000171e+01,9.895080169493144021e-03
3.096000000000000085e+01,9.387964009520287714e-03
3.100000000000000000e+01,1.329857725365111293e-02
3.103999999999999915e+01,1.026650885866513090e-02
3.107999999999999829e+01,1.158905653761199694e-02
3.112000000000000099e+01,7.925437882927613420e-03
3.116000000000000014e+01,9.878703264154733640e-03
3.119999999999999929e+01,1.019081230424994863e-02
3.123999999999999844e+01,1.220677496336585247e-02
3.128000000000000114e+01,1.018327234120131909e-02
3.132000000000000028e+01,1.851015849915484124e-02
3.135999999999999943e+01,1.705426050787347061e-02
3.139999999999999858e+01,1.307361880909411501e-02
3.144000000000000128e+01,1.508854174183886857e-02
3.148000000000000043e+01,1.527296837528592695e-02
3.151999999999999957e+01,1.836040335660173856e-02
3.155999999999999872e+01,1.242241508878733948e-02
3.160000000000000142e+01,1.538320774564003006e-02
3.164000000000000057e+01,2.118389545253730744e-02
3.167999999999999972e+01,2.111482975055770789e-02
3.171999999999999886e+01,1.908904115363218093e-02
3.176000000000000156e+01,1.510652969410746470e-02
3.180000000000000071e+01,2.059081987476175588e-02
3.183999999999999986e+01,2.272989257049653350e-02
3.187999999999999901e+01,1.950411917800213418e-02
3.192000000000000171e+01,2.101164290790719091e-02
3.196000000000000085e+01,2.712623700282990741e-02
3.200000000000000000e+01,2.655060381441408379e-02
3.203999999999999915e+01,3.197053574272315513e-02
3.207999999999999829e+01,2.640852960161724564e-02
3.211999999999999744e+01,2.892483067245031625e-02
3.215999999999999659e+01,2.323618311258940708e-02
3.220000000000000284e+01,2.840283220338846865e-02
3.224000000000000199e+01,2.037857453391024587e-02
3.228000000000000114e+01,2.276781981573554325e-02
3.232000000000000028e+01,2.256920873917311193e-02
3.235999999999999943e+01,2.154991639276894813e-02
3.239999999999999858e+01,2.419099384423242793e-02
3.243999999999999773e+01,2.626384367000466485e-02
3.247999999999999687e+01,2.038419870331371897e-02
3.252000000000000313e+01,1.936407813395157190e-02
3.256000000000000227e+01,2.017403904078028318e-02
3.260000000000000142e+01,1.953218492320499267e-02
3.264000000000000057e+01,1.838521673653631394e-02
3.267999999999999972e+01,1.767983543608491609e-02
3.271999999999999886e+01,1.495461865449127827e-02
3.275999999999999801e+01,1.506929782865030869e-02
3.279999999999999716e+01,1.297480140176778506e-02
3.284000000000000341e+01,1.384642778505987618e-02
3.288000000000000256e+01,8.343394570962494802e-03
3.292000000000000171e+01,1.091866921573845725e-02
3.296000000000000085e+01,1.324128362965182153e-02
3.300000000000000000e+01,4.897527692446034149e-03
3.303999999999999915e+01,1.113275938217273692e-02
3.307999999999999829e+01,1.042531108246520788e-02
3.311999999999999744e+01,1.350445995259474084e-02
3.315999999999999659e+01,1.191301111309690623e-02
3.320000000000000284e+01,8.301727180617462024e-03
3.324000000000000199e+01,1.125402988904277909e-02
3.328000000000000114e+01,1.199715738458709963e-02
3.332000000000000028e+01,9.584408776633249888e-03
3.335999999999999943e+01,1.234675221961050763e-02
3.339999999999999858e+01,1.189010622891877381e-02
3.343999999999999773e+01,5.500594857741458732e-03
3.347999999999999687e+01,1.242780357202524430e-02
3.352000000000000313e+01,5.911652981669688993e-03
3.356000000000000227e+01,9.682779587984106581e-03
3.360000000000000142e+01,9.793123158313241788e-03
3.364000000000000057e+01,8.388539150388752211e-03
3.367999999999999972e+01,5.658367781150129908e-03
3.371999999999999886e+01,9.491783440976866298e-03
3.375999999999999801e+01,3.289963312914719225e-03
3.379999999999999716e+01,1.084665729313725666e-02
3.384000000000000341e+01,9.062362893671238595e-03
3.388000000000000256e+01,7.845883140552536300e-03
3.392000000000000171e+01,1.035288780934099338e-02
3.396000000000000085e+01,7.116367702743982976e-03
3.400000000000000000e+01,8.486919610847210374e-03
3.403999999999999915e+01,7.269616551471538152e-03
3.407999999999999829e+01,6.935695274498081785e-03
3.411999999999999744e+01,9.504784447929947103e-03
3.415999999999999659e+01,7.908183879316479925e-03
3.420000000000000284e+01,9.908841169308676283e-03
3.424000000000000199e+01,5.976633725749629089e-03
3.428000000000000114e+01,4.694983282525724833e-03
3.432000000000000028e+01,9.724466774110903169e-03
3.435999999999999943e+01,1.387015721832598331e-02
3.439999999999999858e+01,7.728158812742612523e-03
3.443999999999999773e+01,6.761253331451733302e-03
3.447999999999999687e+01,7.056410325215822094e-03
3.452000000000000313e+01,7.035794954775037406e-03
3.456000000000000227e+01,7.393654595982996833e-03
3.460000000000000142e+01,6.993948173629660828e-03
3.464000000000000057e+01,4.385067638183770024e-03
3.467999999999999972e+01,7.661675244129559836e-04
3.471999999999999886e+01,5.856710673760368892e-03
3.475999999999999801e+01,4.446368956285521278e-03
3.479999999999999716e+01,3.919409603453794314e-03
3.484000000000000341e+01,5.474987150032917249e-03
3.488000000000000256e+01,4.190256828957097252e-03
3.492000000000000171e+01,6.376558158999348462e-03
3.496000000000000085e+01,8.625767849836173118e-03
3.500000000000000000e+01,6.772401872773011790e-03
3.503999999999999915e+01,7.443366720904082828e-03
3.507999999999999829e+01,4.516663124742700298e-03
3.511999999999999744e+01,9.037135217881461097e-03
3.515999999999999659e+01,5.920681660108402522e-03
3.520000000000000284e+01,7.600641272029917683e-03
3.524000000000000199e+01,4.610004856353371039e-03
3.528000000000000114e+01,5.027286988051048698e-03
3.532000000000000028e+01,8.032013566234258439e-03
3.535999999999999943e+01,9.383922555330203316e-04
3.539999999999999858e+01,3.564029075672385267e-03
3.543999999999999773e+01,4.043605824517788709e-03
3.547999999999999687e+01,4.964771723850663204e-03
3.552000000000000313e+01,6.011959831696441631e-03
3.556000000000000227e+01,7.248283575266075557e-03
3.560000000000000142e+01,1.050403143796993337e-02
3.564000000000000057e+01,7.890029094121927059e-03
3.567999999999999972e+01,6.033183036816290590e-03
3.571999999999999886e+01,3.734338795978772284e-03
3.575999999999999801e+01,6.168794782825620313e-03
3.579999999999999716e+01,5.510490066535003034e-03
3.584000000000000341e+01,4.157733684295613491e-03
3.588000000000000256e+01,6.717803493545305808e-03
3.592000000000000171e+01,0.000000000000000000e+00
3.596000000000000085e+01,8.618547233068683117e-03
3.600000000000000000e+01,4.803551484822673849e-03
3.603999999999999915e+01,1.146517512333589811e-02
3.607999999999999829e+01,5.503915660635096824e-03
3.611999999999999744e+01,1.046106941343679514e-02
3.615999999999999659e+01,1.074762788261492824e-02
3.620000000000000284e+01,5.984910731330634476e-03
3.624000000000000199e+01,6.839081723990976872e-03
3.628000000000000114e+01,3.843131663303332897e-03
3.632000000000000028e+01,9.304172580145543894e-03
3.635999999999999943e+01,8.516783503491220930e-03
3.639999999999999858e+01,7.350510188063479056e-03
3.643999999999999773e+01,3.659497240824121332e-03
3.647999999999999687e+01,6.784527134030669641e-03
3.652000000000000313e+01,4.544714691227255167e-03
3.656000000000000227e+01,7.416883492228077725e-03
3.660000000000000142e+01,7.890539580532681188e-03
3.664000000000000057e+01,1.240324926464253172e-02
3.667999999999999972e+01,4.734870096788932302e-03
3.671999999999999886e+01,1.357998168891064996e-03
3.675999999999999801e+01,6.690571153794003766e-03
3.679999999999999716e+01,6.910755608571002816e-03
3.684000000000000341e+01,1.104376703115833580e-02
3.688000000000000256e+01,6.088246111864658444e-03
3.692000000000000171e+01,3.593944143196681467e-03
3.696000000000000085e+01,9.619747064470296830e-03
3.700000000000000000e+01,1.084872859167290184e-02
3.703999999999999915e+01,8.101362890386609034e-03
3.707999999999999829e+01,4.407092946442734555e-03
3.711999999999999744e+01,9.674721785877167871e-03
3.715999999999999659e+01,6.674292643093038963e-03
3.720000000000000284e+01,1.326689629702324652e-02
3.724000000000000199e+01,8.561999079943751964e-03
3.728000000000000114e+01,8.905970294045157179e-03
3.732000000000000028e+01,8.176810669840762352e-03
3.735999999999999943e+01,1.293831330556055766e-02
3.739999999999999858e+01,3.625325825629938103e-03
3.743999999999999773e+01,8.133968792399571407e-03
3.747999999999999687e+01,6.772863040566338977e-03
3.752000000000000313e+01,1.008194554480873646e-02
3.756000000000000227e+01,7.836846369463024153e-03
3.760000000000000142e+01,1.796176968832638096e-02
3.764000000000000057e+01,3.156699168966534564e-03
3.767999999999999972e+01,1.012554704328427237e-02
3.771999999999999886e+01,7.564069490952249862e-03
3.775999999999999801e+01,9.862120573368958476e-03
3.779999999999999716e+01,1.121326799536897546e-02
3.784000000000000341e+01,9.850336733099707143e-03
3.788000000000000256e+01,9.938810879949180541e-03
3.792000000000000171e+01,1.564417452930537411e-02
3.796000000000000085e+01,1.421752195093408180e-02
3.800000000000000000e+01,1.064481137145871503e-02
3.803999999999999915e+01,1.003822780723124218e-02
3.807999999999999829e+01,1.511164726976164246e-02
3.811999999999999744e+01,1.040228804965239590e-02
3.815999999999999659e+01,1.396058111042923662e-02
3.820000000000000284e+01,1.259582695780803001e-02
3.824000000000000199e+01,1.192511776705486477e-02
3.828000000000000114e+01,1.302138128320892187e-02
3.832000000000000028e+01,1.941896765101558744e-02
3.835999999999999943e+01,1.193140486408586498e-02
3.839999999999999858e+01,1.416310263400053469e-02
3.843999999999999773e+01,1.955026792722307921e-02
3.847999999999999687e+01,2.077174697184573995e-02
3.852000000000000313e+01,2.312906496881330515e-02
3.856000000000000227e+01,2.144692357160297644e-02
3.860000000000000142e+01,2.172109532466638682e-02
3.864000000000000057e+01,2.325733291684335680e-02
3.867999999999999972e+01,2.024920405296849399e-02
3.871999999999999886e+01,2.228994478475637697e-02
3.875999999999999801e+01,2.445671034514124501e-02
3.879999999999999716e+01,2.485609892054196912e-02
3.884000000000000341e+01,1.944885327199246533e-02
3.888000000000000256e+01,2.723210528598241434e-02
3.892000000000000171e+01,3.286930004284278894e-02
3.896000000000000085e+01,3.137447938064358288e-02
3.900000000000000000e+01,3.732683754537612086e-02
3.903999999999999915e+01,4.207983947298316041e-02
3.907999999999999829e+01,4.493923785230456019e-02
3.911999999999999744e+01,5.322618651994142497e-02
3.915999999999999659e+01,5.759990306832968310e-02
3.920000000000000284e+01,6.317257251382130123e-02
3.924000000000000199e+01,7.606619419059641729e-02
3.928000000000000114e+01,8.113355336357881697e-02
3.932000000000000028e+01,1.000225445035571731e-01
3.935999999999999943e+01,1.191637877470617946e-01
3.939999999999999858e+01,1.595109302213744973e-01
3.943999999999999773e+01,2.021299534995633640e-01
3.947999999999999687e+01,2.652606287297467613e-01
3.952000000000000313e+01,3.720655718594558237e-01
3.956000000000000227e+01,5.121941861632981485e-01
3.960000000000000142e+01,6.820490081663574955e-01
3.964000000000000057e+01,8.379555686549112758e-01
3.967999999999999972e+01,9.481678300445820495e-01
3.971999999999999886e+01,1.000000000000000000e+00
3.975999999999999801e+01,9.587397113781672697e-01
3.979999999999999716e+01,8.767710819487689600e-01
3.984000000000000341e+01,7.367379281564788718e-01
3.988000000000000256e+01,5.958840991755299799e-01
3.992000000000000171e+01,4.690412428313706084e-01
3.996000000000000085e+01,3.741335632977979553e-01
4.000000000000000000e+01,2.882508982714314660e-01
4.003999999999999915e+01,2.248995142855701179e-01
4.007999999999999829e+01,1.855941328493028175e-01
4.011999999999999744e+01,1.549981990429605827e-01
4.015999999999999659e+01,1.369616299856100672e-01
4.020000000000000284e+01,1.164003243370394097e-01
4.024000000000000199e+01,9.848958050846477741e-02
4.028000000000000114e+01,8.335562532196140462e-02
4.032000000000000028e+01,7.554262324010291296e-02
4.035999999999999943e+01,7.138999739310880610e-02
4.039999999999999858e+01,5.404647138456774441e-02
4.043999999999999773e+01,4.717956832092485425e-02
4.047999999999999687e+01,4.447794874810059862e-02
4.052000000000000313e+01,4.089254110930069103e-02
4.056000000000000227e+01,3.200540779637350841e-02
4.060000000000000142e+01,3.290065021422446806e-02
4.064000000000000057e+01,2.925152776101270363e-02
4.067999999999999972e+01,2.642267903254727837e-02
4.071999999999999886e+01,2.315183616388964000e-02
4.075999999999999801e+01,2.272089572032814225e-02
4.079999999999999716e+01,1.926031201183311947e-02
4.084000000000000341e+01,2.053303263905554080e-02
4.088000000000000256e+01,2.174243962465819205e-02
4.092000000000000171e+01,1.929106949372484323e-02
4.096000000000000085e+01,1.677638578586515897e-02
4.100000000000000000e+01,1.817453240987438809e-02
4.103999999999999915e+01,1.875200478327958623e-02
4.107999999999999829e+01,1.611049393358546591e-02
4.111999999999999744e+01,1.107047402637418784e-02
4.115999999999999659e+01,1.486612937983113752e-02
4.120000000000000284e+01,1.626327574046436061e-02
4.124000000000000199e+01,1.538813993034908109e-02
4.128000000000000114e+01,1.034732013590416479e-02
4.132000000000000028e+01,3.917805763503880677e-03
4.135999999999999943e+01,1.421314117153817461e-02
4.139999999999999858e+01,1.056021648832234164e-02
4.143999999999999773e+01,1.283975112844570193e-02
4.147999999999999687e+01,9.249540284637904064e-03
4.152000000000000313e+01,1.335896388506209280e-02
4.156000000000000227e+01,7.685611584664309333e-03
4.160000000000000142e+01,1.072170811102013052e-02
4.164000000000000057e+01,1.426251216412218088e-02
4.167999999999999972e+01,8.841014546677822272e-03
4.171999999999999886e+01,1.130849171979179772e-02
4.175999999999999801e+01,7.906223635401672667e-03
4.179999999999999716e+01,6.712724868479709797e-03
4.184000000000000341e+01,1.063121161512869776e-02
4.188000000000000256e+01,6.534097775928814252e-03
4.192000000000000171e+01,7.485856120129048136e-03
4.196000000000000085e+01,9.257889224170571044e-03
4.200000000000000000e+01,1.001990866933646224e-02
4.203999999999999915e+01,1.355871817982918885e-02
4.207999999999999829e+01,7.567205789464343316e-03
4.211999999999999744e+01,7.066359508283026267e-03
4.215999999999999659e+01,6.502200620576905482e-03
4.220000000000000284e+01,6.442749712471045054e-03
4.224000000000000199e+01,9.349429216018409136e-03
4.228000000000000114e+01,6.007683513383394597e-03
4.232000000000000028e+01,7.714810317615673242e-03
4.235999999999999943e+01,1.200938726135576153e-02
4.239999999999999858e+01,8.351477434618542056e-03
4.243999999999999773e+01,8.543285709367800032e-03
4.247999999999999687e+01,7.535740528809245498e-03
4.252000000000000313e+01,1.668265023162417019e-03
4.256000000000000227e+01,9.243743735410070092e-03
4.260000000000000142e+01,6.657767018664850246e-03
4.264000000000000057e+01,9.878023805931800128e-03
4.267999999999999972e+01,5.903154787519618828e-03
4.271999999999999886e+01,8.176313101862913227e-03
4.275999999999999801e+01,6.725582392754934392e-03
4.279999999999999716e+01,9.629477235167981444e-03
4.284000000000000341e+01,7.042308062623845941e-03
4.288000000000000256e+01,7.295043029551877625e-03
4.292000000000000171e+01,8.746733901827979940e-03
4.296000000000000085e+01,1.076624676315622760e-02
4.300000000000000000e+01,5.527520682714816280e-03
4.303999999999999915e+01,4.958987322196071676e-03
4.307999999999999829e+01,8.618852949896831095e-03
4.311999999999999744e+01,7.734355712031366209e-03
4.315999999999999659e+01,7.480794019815910009e-03
4.320000000000000284e+01,5.081178531569631625e-03
4.324000000000000199e+01,7.730436294165175110e-03
4.328000000000000114e+01,8.675434089473131258e-03
4.332000000000000028e+01,1.012514077008947258e-02
4.335999999999999943e+01,7.219824963812673455e-03
4.339999999999999858e+01,6.586393163737009476e-03
4.343999999999999773e+01,3.428227392525241314e-03
4.347999999999999687e+01,7.338563701891980505e-03
4.352000000000000313e+01,7.209444628073768957e-03
4.356000000000000227e+01,8.784189136065181230e-03
4.360000000000000142e+01,8.907127514999856055e-03
4.364000000000000057e+01,1.010279559179497882e-02
4.367999999999999972e+01,9.089296865855623492e-03
4.371999999999999886e+01,8.832960928148848520e-03
4.375999999999999801e+01,9.901808364799704124e-03
4.379999999999999716e+01,6.489406880642811792e-03
4.384000000000000341e+01,5.222662968772402887e-03
4.388000000000000256e+01,7.805638322870292294e-03
4.392000000000000171e+01,4.897550535372380623e-03
4.396000000000000085e+01,8.426831267970950196e-03
4.400000000000000000e+01,5.202781026381895872e-03
4.403999999999999915e+01,4.061275123948663440e-03
4.407999999999999829e+01,9.483364628380584749e-03
4.411999999999999744e+01,1.206515373724930361e-02
4.415999999999999659e+01,9.282106688331051916e-03
4.420000000000000284e+01,9.086511266869564882e-03
4.424000000000000199e+01,9.016945105505373703e-03
4.428000000000000114e+01,5.349717939593701815e-03
4.432000000000000028e+01,7.362498846527816034e-03
4.435999999999999943e+01,1.095291719247736863e-02
4.439999999999999858e+01,7.853118282570768077e-03
4.443999999999999773e+01,8.161245327436656913e-03
4.447999999999999687e+01,1.137239120050765988e-02
4.452000000000000313e+01,1.155389681688984323e-02
4.456000000000000227e+01,1.198765874187157285e-02
4.460000000000000142e+01,1.210565645402118980e-02
4.464000000000000057e+01,1.058250869353591882e-02
4.467999999999999972e+01,1.082633881543263593e-02
4.471999999999999886e+01,1.037572445235181336e-02
4.475999999999999801e+01,1.491087117442378360e-02
4.479999999999999716e+01,1.546967694327003838e-02
4.484000000000000341e+01,9.148925627481206344e-03
4.488000000000000256e+01,1.109583202682695550e-02
4.492000000000000171e+01,4.017325980846160778e-03
4.496000000000000085e+01,1.315876546759042059e-02
4.500000000000000000e+01,1.176007109695926395e-02
4.503999999999999915e+01,1.238080847928758194e-02
4.507999999999999829e+01,1.868155454904934371e-02
4.511999999999999744e+01,1.273810519714074253e-02
4.515999999999999659e+01,1.525165397138653241e-02
4.520000000000000284e+01,1.549292377720885849e-02
4.524000000000000199e+01,1.503974951856096656e-02
4.528000000000000114e+01,1.805761528883089578e-02
4.532000000000000028e+01,2.000235669013849735e-02
4.535999999999999943e+01,1.948547906781672445e-02
4.539999999999999858e+01,2.332322909955257886e-02
4.543999999999999773e+01,1.996585555753278493e-02
4.547999999999999687e+01,2.538104737476246792e-02
4.552000000000000313e+01,2.814528011315683975e-02
4.556000000000000227e+01,3.198224410205406654e-02
4.560000000000000142e+01,3.241088833843829703e-02
4.564000000000000057e+01,3.441717104893291662e-02
4.567999999999999972e+01,3.976826732208404297e-02
4.571999999999999886e+01,4.417246633946849549e-02
4.575999999999999801e+01,4.396919123130581253e-02
4.579999999999999716e+01,5.771378012003582775e-02
4.584000000000000341e+01,7.089015221922491394e-02
4.588000000000000256e+01,7.529356622886572425e-02
4.592000000000000171e+01,8.638680392304920463e-02
4.596000000000000085e+01,1.011404223806375013e-01
4.600000000000000000e+01,1.169667724445425661e-01
4.603999999999999915e+01,1.288798959528343890e-01
4.607999999999999829e+01,1.410452769989009869e-01
4.611999999999999744e+01,1.577546264658589992e-01
4.615999999999999659e+01,1.774301095144484586e-01
4.620000000000000284e+01,1.794336460564024127e-01
4.624000000000000199e+01,1.871803056187088254e-01
4.628000000000000114e+01,1.891203369735544593e-01
4.632000000000000028e+01,1.850643999686932273e-01
4.635999999999999943e+01,1.812607207280337862e-01
4.639999999999999858e+01,1.685578570286049294e-01
4.643999999999999773e+01,1.530146948097224346e-01
4.647999999999999687e+01,1.390491717442313979e-01
4.652000000000000313e+01,1.288702566847277353e-01
4.656000000000000227e+01,1.107388582188053999e-01
4.660000000000000142e+01,1.034627680483612283e-01
4.664000000000000057e+01,8.236464881381543035e-02
4.667999999999999972e+01,7.426769336482617889e-02
4.671999999999999886e+01,6.945243892464376956e-02
4.675999999999999801e+01,6.400585504403065451e-02
4.679999999999999716e+01,5.174282905863591270e-02
4.684000000000000341e+01,4.976709100902126925e-02
4.688000000000000256e+01,4.539284855981677580e-02
4.692000000000000171e+01,3.906189550741897415e-02
4.696000000000000085e+01,3.948388037544273144e-02
4.700000000000000000e+01,3.542461891039612454e-02
4.703999999999999915e+01,3.073402823134587306e-02
4.707999999999999829e+01,2.781041737548063664e-02
4.711999999999999744e+01,2.589642563677599374e-02
4.715999999999999659e+01,2.013232164303045343e-02
4.720000000000000284e+01,2.131049594837960623e-02
4.724000000000000199e+01,2.154177422713738493e-02
4.728000000000000114e+01,2.524409415214882990e-02
4.732000000000000028e+01,1.998411696750105118e-02
4.735999999999999943e+01,1.769027433488627385e-02
4.739999999999999858e+01,1.659539123045191897e-02
4.743999999999999773e+01,1.512163281493813204e-02
4.747999999999999687e+01,1.472060720256963828e-02
4.752000000000000313e+01,1.248909826193710451e-02
4.756000000000000227e+01,1.196145613778594637e-02
4.760000000000000142e+01,1.395815499569829504e-02
4.764000000000000057e+01,1.627022604777168466e-02
4.767999999999999972e+01,1.391171113207608466e-02
4.771999999999999886e+01,1.287838279306316447e-02
4.775999999999999801e+01,1.386448840658651045e-02
4.779999999999999716e+01,1.238897696963022974e-02
4.784000000000000341e+01,1.002968338614757850e-02
4.788000000000000256e+01,8.364442560091825060e-03
4.792000000000000171e+01,1.143251179512250887e-02
4.796000000000000085e+01,1.254387126797450874e-02
4.800000000000000000e+01,9.047758426695553385e-03
4.803999999999999915e+01,8.770234266800864403e-03
4.807999999999999829e+01,1.044903092335192074e-02
4.811999999999999744e+01,1.326367429546002411e-02
4.815999999999999659e+01,5.222619391262079552e-03
4.820000000000000284e+01,9.930275922338869035e-03
4.824000000000000199e+01,1.192386217929286389e-02
4.828000000000000114e+01,8.300162030714720515e-03
4.832000000000000028e+01,1.098760713829672296e-02
4.835999999999999943e+01,1.014050793556066539e-02
4.839999999999999858e+01,7.589152905916902309e-03
4.843999999999999773e+01,6.489211824925224421e-03
4.847999999999999687e+01,9.680787493824160109e-03
4.852000000000000313e+01,1.078942706366996240e-02
4.856000000000000227e+01,8.489749274659817019e-03
4.860000000000000142e+01,1.351103128606502383e-02
4.864000000000000057e+01,8.181522568238891804e-03
4.867999999999999972e+01,6.386170023665807202e-03
4.871999999999999886e+01,1.014460232034889754e-02
4.875999999999999801e+01,9.106222732895871350e-03
4.879999999999999716e+01,8.320102882794418522e-03
4.884000000000000341e+01,7.723129407526989169e-03
4.888000000000000256e+01,6.621054995933420284e-03
4.892000000000000171e+01,7.917095844116504855e-03
4.896000000000000085e+01,5.804819656910826207e-03
4.900000000000000000e+01,4.702164107161442910e-03
4.903999999999999915e+01,1.028933476499869007e-02
4.907999999999999829e+01,6.787982946703731597e-03
4.911999999999999744e+01,8.651076108539322226e-03
4.915999999999999659e+01,3.697729074049565818e-03
4.920000000000000284e+01,6.254682509768719548e-03
4.924000000000000199e+01,5.340205741661878391e-03
4.928000000000000114e+01,7.391865078230481188e-03
4.932000000000000028e+01,7.171248778087501406e-03
4.935999999999999943e+01,4.489016688986863408e-03
4.939999999999999858e+01,9.190858442100184253e-03
4.943999999999999773e+01,7.454940594500770838e-03
4.947999999999999687e+01,5.529489270097279890e-03
4.952000000000000313e+01,7.895555536599076218e-03
4.956000000000000227e+01,5.275470381306302491e-03
4.960000000000000142e+01,7.767377014847639399e-03
4.964000000000000057e+01,8.996822588279333038e-03
4.967999999999999972e+01,5.177003442092338766e-03
4.971999999999999886e+01,4.702001125580284810e-03
4.975999999999999801e+01,4.416145927876745717e-03
4.979999999999999716e+01,5.771045963206484879e-03
4.984000000000000341e+01,6.747072628259834573e-03
4.988000000000000256e+01,6.018844663233987452e-03
4.992000000000000171e+01,6.047784500181907670e-03
4.996000000000000085e+01,8.537953832785393632e-03
5.000000000000000000e+01,7.746033760743265516e-03
5.003999999999999915e+01,5.123632398280308399e-03
5.007999999999999829e+01,4.457553469598944315e-03
5.011999999999999744e+01,3.665054976525276929e-03
5.015999999999999659e+01,5.144445956247955913e-03
5.020000000000000284e+01,4.793355774936656523e-03
5.024000000000000199e+01,4.063392546816149524e-03
5.028000000000000114e+01,7.624947524188529363e-03
5.032000000000000028e+01,6.389691878946768093e-03
5.035999999999999943e+01,4.207542730157585315e-03
5.039999999999999858e+01,7.768519965779461384e-03
5.043999999999999773e+01,7.226934019334248574e-03
5.047999999999999687e+01,4.160619794775187452e-03
5.052000000000000313e+01,4.376009651961144074e-03
5.056000000000000227e+01,7.494423254053253318e-03
5.060000000000000142e+01,6.005366644551004413e-03
5.064000000000000057e+01,8.744715136797866564e-03
5.067999999999999972e+01,6.687253297551025259e-03
5.071999999999999886e+01,4.692712563705432084e-03
5.075999999999999801e+01,4.086474259757263972e-03
5.079999999999999716e+01,8.087321556130630876e-03
5.084000000000000341e+01,6.407771122297513736e-03
5.088000000000000256e+01,5.296049082166577951e-03
5.092000000000000171e+01,4.815268862948811519e-03
5.096000000000000085e+01,7.363739501832892304e-03
5.100000000000000000e+01,5.872760806368173062e-03
5.103999999999999915e+01,4.444703475078407538e-03
5.107999999999999829e+01,5.288536360559501458e-03
5.111999999999999744e+01,5.437929936537837065e-03
5.115999999999999659e+01,6.344492317238178622e-03
5.120000000000000284e+01,3.716512684237385875e-03
5.124000000000000199e+01,9.229969119770704833e-03
5.128000000000000114e+01,8.810574601454384397e-03
5.132000000000000028e+01,5.613998904848237388e-03
5.135999999999999943e+01,1.087442634813767274e-02
5.139999999999999858e+01,7.740580534911371650e-03
5.143999999999999773e+01,8.898253865232774382e-03
5.147999999999999687e+01,6.142705039094521931e-03
5.152000000000000313e+01,6.731974498233453570e-03
5.156000000000000227e+01,9.782474746896635889e-03
5.160000000000000142e+01,8.162392197769168314e-03
5.164000000000000057e+01,1.051826197960166118e-02
5.167999999999999972e+01,8.834682976979545826e-03
5.171999999999999886e+01,1.131639655460364886e-02
5.175999999999999801e+01,1.247253739162983155e-02
5.179999999999999716e+01,1.091461083339107657e-02
5.184000000000000341e+01,1.005074023490424955e-02
5.188000000000000256e+01,1.120630692066556557e-02
5.192000000000000171e+01,1.097318760035159192e-02
5.196000000000000085e+01,9.793176070358872165e-03
5.200000000000000000e+01,1.347270469054628016e-02
5.203999999999999915e+01,1.532175363764869298e-02
5.207999999999999829e+01,1.445673541591318244e-02
5.211999999999999744e+01,8.668681237437286108e-03
5.215999999999999659e+01,9.318002210134904845e-03
5.220000000000000284e+01,1.280723485908983814e-02
5.224000000000000199e+01,1.301437991481535841e-02
5.228000000000000114e+01,1.069679814802931665e-02
5.232000000000000028e+01,1.185026210318333890e-02
5.235999999999999943e+01,1.287730830536120905e-02
5.239999999999999858e+01,1.207387512557457111e-02
5.243999999999999773e+01,9.881756360219942636e-03
5.247999999999999687e+01,1.097134326159948832e-02
5.252000000000000313e+01,1.073535803696877740e-02
5.256000000000000227e+01,1.062540880055251775e-02
5.260000000000000142e+01,1.108328934874730672e-02
5.264000000000000057e+01,1.021559786797198235e-02
5.267999999999999972e+01,1.060998358000799988e-02
5.271999999999999886e+01,7.532941902382421853e-03
5.275999999999999801e+01,8.621193646017693418e-03
5.279999999999999716e+01,1.141331644355431454e-02
5.284000000000000341e+01,9.029950287134404924e-03
5.288000000000000256e+01,8.855362408223358198e-03
5.292000000000000171e+01,1.196248055186037267e-02
5.296000000000000085e+01,7.369574044010508175e-03
5.300000000000000000e+01,8.141115653922776155e-03
5.303999999999999915e+01,6.514157845639663783e-03
5.307999999999999829e+01,8.673813348205546697e-03
5.311999999999999744e+01,7.930062338355366169e-03
5.315999999999999659e+01,8.385275514612895026e-03
5.320000000000000284e+01,7.451803719890077136e-03
5.324000000000000199e+01,8.474656914339538660e-03
5.328000000000000114e+01,9.055526125466029433e-03
5.332000000000000028e+01,5.975628247538908831e-03
5.335999999999999943e+01,5.546302799331086913e-03
5.339999999999999858e+01,8.903590920746029189e-03
5.343999999999999773e+01,8.915679024468811664e-03
5.347999999999999687e+01,1.069475212685138538e-02
5.352000000000000313e+01,5.783615348429318147e-03
5.356000000000000227e+01,1.014995762220772223e-02
5.360000000000000142e+01,5.364667680168674901e-03
5.364000000000000057e+01,4.176651317239911398e-03
5.367999999999999972e+01,9.678464914116981233e-03
5.371999999999999886e+01,4.766378494931549671e-03
5.375999999999999801e+01,7.806389997530640938e-03
5.379999999999999716e+01,6.112707086544231193e-03
5.384000000000000341e+01,5.933555885881050887e-03
5.388000000000000256e+01,7.332049822752045518e-03
5.392000000000000171e+01,8.036106714390480257e-03
5.396000000000000085e+01,5.836757772893943000e-03
5.400000000000000000e+01,8.370723809184833775e-03
5.403999999999999915e+01,1.071516005619743868e-02
5.407999999999999829e+01,2.645696578267986779e-03
5.411999999999999744e+01,7.009382348606133309e-03
5.415999999999999659e+01,7.522961524578925321e-03
5.420000000000000284e+01,6.647856538239310491e-03
5.424000000000000199e+01,6.719263031911740236e-03
5.428000000000000114e+01,9.188789119820909429e-03
5.432000000000000028e+01,7.555755163294546224e-03
5.435999999999999943e+01,9.330655183526603835e-03
5.439999999999999858e+01,1.034800515182243696e-02
5.443999999999999773e+01,8.714403254600938328e-03
5.447999999999999687e+01,7.837972846878966601e-03
5.452000000000000313e+01,7.087580012360640731e-03
5.456000000000000227e+01,9.366440947148713808e-03
5.460000000000000142e+01,6.659154535828598967e-03
5.464000000000000057e+01,9.379430963350315550e-03
5.467999999999999972e+01,8.060261032421205465e-03
5.471999999999999886e+01,8.255623523443098022e-03
5.475999999999999801e+01,5.800034407721378280e-03
5.479999999999999716e+01,7.509740362943079228e-03
5.484000000000000341e+01,1.104954581147723353e-02
5.488000000000000256e+01,1.118103901193680250e-02
5.492000000000000171e+01,9.860735237460597005e-03
5.496000000000000085e+01,7.151747915259613723e-03
5.500000000000000000e+01,7.787581692500250737e-03
5.503999999999999915e+01,7.665865935352181998e-03
5.507999999999999829e+01,8.490662337497179024e-03
5.511999999999999744e+01,5.339126131869527045e-03
5.515999999999999659e+01,4.775050416699211028e-03
5.520000000000000284e+01,3.327198506798520646e-03
5.524000000000000199e+01,5.918415233926627855e-03
5.528000000000000114e+01,9.771711256402715665e-03
5.532000000000000028e+01,1.021669538661809651e-02
5.535999999999999943e+01,6.748460498005367375e-03
5.539999999999999858e+01,7.697974744993887550e-03
5.543999999999999773e+01,7.889939781060886434e-03
5.547999999999999687e+01,5.935860951539272123e-03
5.552000000000000313e+01,5.433201796038717932e-03
5.556000000000000227e+01,9.916312459304658586e-03
5.560000000000000142e+01,4.111751416532308072e-03
5.564000000000000057e+01,6.196176420975933220e-03
5.567999999999999972e+01,9.921361413420303269e-03
5.571999999999999886e+01,1.023823483707110744e-02
5.575999999999999801e+01,8.850858385610180581e-03
5.579999999999999716e+01,7.400180357855040865e-03
5.584000000000000341e+01,9.862344662600958795e-03
5.588000000000000256e+01,5.508074205270038770e-03
5.592000000000000171e+01,4.687965775948003434e-03
5.596000000000000085e+01,7.654472986438654557e-03
5.600000000000000000e+01,6.455308116191623043e-03
5.603999999999999915e+01,6.770676735337256141e-03
5.607999999999999829e+01,7.780104742986860764e-03
5.611999999999999744e+01,5.949242059088451565e-03
5.615999999999999659e+01,7.400088017822189883e-03
5.620000000000000284e+01,7.336024641850893632e-03
5.624000000000000199e+01,9.228288681055652268e-03
5.628000000000000114e+01,9.921210424570092376e-03
5.632000000000000028e+01,8.089408612591426559e-03
5.635999999999999943e+01,9.097521840928688569e-03
5.639999999999999858e+01,8.338272316837406009e-03
5.643999999999999773e+01,6.253453836714151920e-03
5.647999999999999687e+01,8.397045180960729591e-03
5.652000000000000313e+01,8.962614054411717143e-03
5.656000000000000227e+01,7.003459566449900947e-03
5.660000000000000142e+01,8.641581051255453616e-03
5.664000000000000057e+01,1.078442219282621170e-02
5.667999999999999972e+01,9.077158777874816745e-03
5.671999999999999886e+01,8.442635638160445044e-03
5.675999999999999801e+01,7.050564354966197544e-03
5.679999999999999716e+01,8.182841493580433195e-03
5.684000000000000341e+01,1.013540542501476481e-02
5.688000000000000256e+01,9.121452489760227544e-03
5.692000000000000171e+01,7.539291725005466301e-03
5.696000000000000085e+01,7.976572352531945825e-03
5.700000000000000000e+01,7.277624661473302246e-03
5.703999999999999915e+01,1.099642743223130242e-02
5.707999999999999829e+01,9.855311652106112444e-03
5.711999999999999744e+01,9.976276655277905789e-03
5.715999999999999659e+01,1.205356981760030699e-02
5.720000000000000284e+01,1.015453205417931465e-02
5.724000000000000199e+01,1.235767793998727125e-02
5.728000000000000114e+01,7.618163406124974640e-03
5.732000000000000028e+01,9.252914801298483399e-03
5.735999999999999943e+01,8.678510456314842206e-03
5.739999999999999858e+01,1.056534162347618627e-02
5.743999999999999773e+01,1.024301711517381502e-02
5.747999999999999687e+01,9.226258440496752991e-03
5.752000000000000313e+01,7.767519211248764648e-03
5.756000000000000227e+01,9.022469202989666717e-03
5.760000000000000142e+01,1.280176826347339571e-02
5.764000000000000057e+01,1.115312867214962762e-02
5.767999999999999972e+01,9.314962235098863536e-03
5.771999999999999886e+01,9.243784225459914308e-03
5.775999999999999801e+01,1.232808936259328567e-02
5.779999999999999716e+01,1.149917745404833817e-02
5.784000000000000341e+01,1.003894506511339609e-02
5.788000000000000256e+01,1.381693795051157879e-02
5.792000000000000171e+01,9.958023590280125001e-03
5.796000000000000085e+01,1.360941678418865416e-02
5.800000000000000000e+01,1.151730464308883296e-02
5.803999999999999915e+01,1.005614008061786295e-02
5.807999999999999829e+01,9.793943682900848116e-03
5.811999999999999744e+01,1.331836467171921418e-02
5.815999999999999659e+01,1.147796082410166771e-02
5.820000000000000284e+01,1.108897881773526078e-02
5.824000000000000199e+01,1.107849097227423321e-02
5.828000000000000114e+01,1.270876521735055976e-02
5.832000000000000028e+01,9.668462098884743339e-03
5.835999999999999943e+01,9.846756007256256271e-03
5.839999999999999858e+01,8.888822729177734902e-03
5.843999999999999773e+01,9.950332040209007231e-03
5.847999999999999687e+01,1.101165533704041161e-02
5.852000000000000313e+01,1.043184438554781504e-02
5.856000000000000227e+01,1.180836272534090299e-02
5.860000000000000142e+01,1.217488083014610541e-02
5.864000000000000057e+01,1.033224422988909472e-02
5.867999999999999972e+01,8.552535172030042987e-03
5.871999999999999886e+01,1.055944398590716836e-02
5.875999999999999801e+01,9.915404427712401145e-03
5.879999999999999716e+01,1.015476664219117434e-02
5.884000000000000341e+01,8.563654682526913864e-03
5.888000000000000256e+01,9.623119616428971526e-03
5.892000000000000171e+01,9.988151548438141056e-03
5.896000000000000085e+01,9.848090695493947472e-03
5.900000000000000000e+01,8.256236166979182348e-03
5.903999999999999915e+01,8.936278292232001375e-03
5.907999999999999829e+01,1.113085636522799342e-02
5.911999999999999744e+01,8.654857721616206201e-03
5.915999999999999659e+01,8.324529039083620671e-03
5.920000000000000284e+01,7.930901529727812579e-03
5.924000000000000199e+01,1.081898515370140722e-02
5.928000000000000114e+01,9.667626139096659882e-03
5.932000000000000028e+01,1.135618455846489766e-02
5.935999999999999943e+01,8.184826270712850654e-03
5.939999999999999858e+01,8.295179245677072183e-03
5.943999999999999773e+01,6.448831741970474998e-03
5.947999999999999687e+01,6.621927668388337407e-03
5.952000000000000313e+01,8.751353662413113854e-03
5.956000000000000227e+01,8.166718536436082948e-03
5.960000000000000142e+01,1.042200107085907573e-02
5.964000000000000057e+01,9.205861811602560410e-03
5.967999999999999972e+01,1.045095990825390883e-02
5.971999999999999886e+01,1.055983188589688579e-02
5.975999999999999801e+01,8.333323274457238306e-03
5.979999999999999716e+01,8.126258351915790698e-03
5.984000000000000341e+01,9.875523755754964453e-03
5.988000000000000256e+01,7.900913980537917214e-03
5.992000000000000171e+01,1.242679902662181986e-02
5.996000000000000085e+01,8.873984712708799655e-03
