2.003999999999999915e+01,8.375374883936959752e-03
2.007999999999999829e+01,2.296944967015290742e-03
2.012000000000000099e+01,5.468879399828311359e-03
2.016000000000000014e+01,5.294736315850842416e-03
2.019999999999999929e+01,7.009911989467375835e-03
2.023999999999999844e+01,7.425932138429180984e-03
2.028000000000000114e+01,7.487529996592827940e-03
2.032000000000000028e+01,2.943406491853898729e-03
2.035999999999999943e+01,4.539901253404197631e-03
2.039999999999999858e+01,6.411796083803047823e-03
2.044000000000000128e+01,8.165452259310979066e-03
2.048000000000000043e+01,7.320945357583025399e-03
2.051999999999999957e+01,6.240108332283229864e-03
2.055999999999999872e+01,9.685970884527142846e-03
2.060000000000000142e+01,6.439826986490285350e-03
2.064000000000000057e+01,7.208652386258581832e-03
2.067999999999999972e+01,9.197611612640986187e-03
2.071999999999999886e+01,6.029756013821875767e-03
2.076000000000000156e+01,7.034325499185511629e-03
2.080000000000000071e+01,7.841929353310298639e-03
2.083999999999999986e+01,6.681193013754947903e-03
2.087999999999999901e+01,8.433237824952460188e-03
2.092000000000000171e+01,1.077559488898083978e-02
2.096000000000000085e+01,4.260932827774972093e-03
2.100000000000000000e+01,4.004982073266365877e-03
2.103999999999999915e+01,4.299979952437454206e-03
2.107999999999999829e+01,7.232212251211895052e-03
2.112000000000000099e+01,6.227910912245230440e-03
2.116000000000000014e+01,4.987280846797496892e-03
2.119999999999999929e+01,1.098945955228201703e-02
2.123999999999999844e+01,7.347342121644171060e-03
2.128000000000000114e+01,6.814826120469723129e-03
2.132000000000000028e+01,5.022520833337026057e-03
2.135999999999999943e+01,7.323914177948130134e-03
2.139999999999999858e+01,9.861345893256354828e-03
2.144000000000000128e+01,8.698427956003481135e-03
2.148000000000000043e+01,6.275721082065054135e-03
2.151999999999999957e+01,8.261624237989257172e-03
2.155999999999999872e+01,1.980967795038204686e-03
2.160000000000000142e+01,7.155056274517960363e-03
2.164000000000000057e+01,4.613679665239489233e-03
2.167999999999999972e+01,5.496816407452262757e-03
2.171999999999999886e+01,7.600089246551667080e-03
2.176000000000000156e+01,7.931843305817771334e-03
2.180000000000000071e+01,5.311162239395855918e-03
2.183999999999999986e+01,8.319372215660640613e-03
2.187999999999999901e+01,5.855858850104838330e-03
2.192000000000000171e+01,4.809301423555325562e-03
2.196000000000000085e+01,4.904152855589961023e-03
2.200000000000000000e+01,6.809599212324893291e-03
2.203999999999999915e+01,3.597597506463792033e-03
2.207999999999999829e+01,1.062006145657284732e-02
2.212000000000000099e+01,6.935406401703777743e-03
2.216000000000000014e+01,6.557174102826643716e-03
2.219999999999999929e+01,4.722335033462305223e-03
2.223999999999999844e+01,7.217379803476188689e-03
2.228000000000000114e+01,5.697165705764471733e-03
2.232000000000000028e+01,6.617369328990672928e-03
2.235999999999999943e+01,5.923511006579257332e-03
2.239999999999999858e+01,5.859332048876957251e-03
2.244000000000000128e+01,5.440735515557798205e-03
2.248000000000000043e+01,8.564745723410649436e-03
2.251999999999999957e+01,7.043675489754748151e-03
2.255999999999999872e+01,4.184090914792424655e-03
2.260000000000000142e+01,6.008665895023785827e-03
2.264000000000000057e+01,1.019493153252688626e-02
2.267999999999999972e+01,4.461357009621544009e-03
2.271999999999999886e+01,2.231025870691471374e-03
2.276000000000000156e+01,7.479690194737023158e-03
2.280000000000000071e+01,3.871339410184250398e-03
2.283999999999999986e+01,8.253714717618406208e-03
2.287999999999999901e+01,5.707905265272998976e-03
2.292000000000000171e+01,7.334525612291742207e-03
2.296000000000000085e+01,4.749069170465037779e-03
2.300000000000000000e+01,7.280775849177144148e-03
2.303999999999999915e+01,5.088675459305230971e-03
2.307999999999999829e+01,5.179538924993450782e-03
2.312000000000000099e+01,7.395910809136925328e-03
2.316000000000000014e+01,8.431225186169646196e-03
2.319999999999999929e+01,8.521665430044400580e-03
2.323999999999999844e+01,7.273592817021684413e-03
2.328000000000000114e+01,8.465940020573034519e-03
2.332000000000000028e+01,7.020766465373057263e-03
2.335999999999999943e+01,2.544433427682299322e-03
2.339999999999999858e+01,4.208725292461946987e-03
2.344000000000000128e+01,4.337685331406201071e-03
2.348000000000000043e+01,5.253782617073292881e-03
2.351999999999999957e+01,6.524014544617992052e-03
2.355999999999999872e+01,4.999270712897362773e-03
2.360000000000000142e+01,5.796855752978897179e-03
2.364000000000000057e+01,7.932672724536673700e-03
2.367999999999999972e+01,7.430969723206679381e-03
2.371999999999999886e+01,5.512027150585786101e-03
2.376000000000000156e+01,7.489969043270284892e-03
2.380000000000000071e+01,5.570747029637130449e-03
2.383999999999999986e+01,6.367493222772826339e-03
2.387999999999999901e+01,6.101275123842176719e-03
2.392000000000000171e+01,4.850820582374895315e-03
2.396000000000000085e+01,7.851525872755789337e-03
2.400000000000000000e+01,6.758248287881039006e-03
2.403999999999999915e+01,4.680734522424158384e-03
2.407999999999999829e+01,6.145830990866243786e-03
2.412000000000000099e+01,6.744783096679853214e-03
2.416000000000000014e+01,4.627488515212229564e-03
2.419999999999999929e+01,5.462346213011640313e-03
2.423999999999999844e+01,7.517345508742572305e-03
2.428000000000000114e+01,7.013553903569880871e-03
2.432000000000000028e+01,4.659521344715472982e-03
2.435999999999999943e+01,5.769371868775727275e-03
2.439999999999999858e+01,4.438523397204120931e-03
2.444000000000000128e+01,5.784280561068215476e-03
2.448000000000000043e+01,6.736260721436578003e-03
2.451999999999999957e+01,8.396652636588765317e-03
2.455999999999999872e+01,6.514157234420427968e-03
2.460000000000000142e+01,6.442262432633686503e-03
2.464000000000000057e+01,4.087124683547213762e-03
2.467999999999999972e+01,1.810576940825018525e-03
2.471999999999999886e+01,5.281018171015335744e-03
2.476000000000000156e+01,6.113941785908601559e-03
2.480000000000000071e+01,8.048916577870523711e-03
2.483999999999999986e+01,6.795279593691043798e-03
2.487999999999999901e+01,5.974507982418592218e-03
2.492000000000000171e+01,6.649426621226982997e-03
2.496000000000000085e+01,6.615658255511619630e-03
2.500000000000000000e+01,6.542388951388631614e-03
2.503999999999999915e+01,5.288066244109078558e-03
2.507999999999999829e+01,9.150911197913365672e-03
2.512000000000000099e+01,4.392929394207954752e-03
2.516000000000000014e+01,7.153312173674385849e-03
2.519999999999999929e+01,6.606992319545622501e-03
2.523999999999999844e+01,7.831910581783466108e-03
2.528000000000000114e+01,4.254298903043463032e-03
2.532000000000000028e+01,6.305585863671267152e-03
2.535999999999999943e+01,8.907830888341504785e-03
2.539999999999999858e+01,3.912710675479152446e-03
2.544000000000000128e+01,6.554047300333103350e-03
2.548000000000000043e+01,6.754687287145930835e-03
2.551999999999999957e+01,7.230738519533500865e-03
2.555999999999999872e+01,7.982201084814026862e-03
2.560000000000000142e+01,5.308870246363829766e-03
2.564000000000000057e+01,5.036600495154184599e-03
2.567999999999999972e+01,5.984475485330352680e-03
2.571999999999999886e+01,5.633206913441573226e-03
2.576000000000000156e+01,4.691344726709787902e-03
2.580000000000000071e+01,7.410188171875686271e-03
2.583999999999999986e+01,4.932864087460553035e-03
2.587999999999999901e+01,5.801334760733312286e-03
2.592000000000000171e+01,4.465293043099454080e-03
2.596000000000000085e+01,5.176038181299668847e-03
2.600000000000000000e+01,6.673926067267611784e-03
2.603999999999999915e+01,4.707657628899039257e-03
2.607999999999999829e+01,4.433901378367149752e-03
2.612000000000000099e+01,5.537746354144026245e-03
2.616000000000000014e+01,5.736087539413518149e-03
2.619999999999999929e+01,6.249205335772479129e-03
2.623999999999999844e+01,7.785649690442852586e-03
2.628000000000000114e+01,3.338649853916788365e-03
2.632000000000000028e+01,7.118566992693319689e-03
2.635999999999999943e+01,9.363158679861116954e-03
2.639999999999999858e+01,5.230667626729361593e-03
2.644000000000000128e+01,7.435627517778024657e-03
2.648000000000000043e+01,5.822157115038141019e-03
2.651999999999999957e+01,4.759647308567732660e-03
2.655999999999999872e+01,6.964205981982665543e-03
2.660000000000000142e+01,3.697051617121467886e-03
2.664000000000000057e+01,3.224599333512833971e-03
2.667999999999999972e+01,7.475679392657311011e-03
2.671999999999999886e+01,5.113494123413054628e-03
2.676000000000000156e+01,3.656544904299175759e-03
2.680000000000000071e+01,6.608217241046830497e-03
2.683999999999999986e+01,7.001104265253974349e-03
2.687999999999999901e+01,4.047928442123484641e-03
2.692000000000000171e+01,6.448107583347387553e-03
2.696000000000000085e+01,5.226676884129660521e-03
2.700000000000000000e+01,3.178471990297751775e-03
2.703999999999999915e+01,8.097541448111079260e-03
2.707999999999999829e+01,5.694796503495448692e-03
2.712000000000000099e+01,5.456932590258229722e-03
2.716000000000000014e+01,5.337027978217829920e-03
2.719999999999999929e+01,4.626532894788672884e-03
2.723999999999999844e+01,3.207355783971624005e-03
2.728000000000000114e+01,7.141534423372584116e-03
2.732000000000000028e+01,4.974179498532298356e-03
2.735999999999999943e+01,6.703716897633048809e-03
2.739999999999999858e+01,5.480831395590105189e-03
2.744000000000000128e+01,4.612089092605763108e-03
2.748000000000000043e+01,4.884767698113503566e-03
2.751999999999999957e+01,5.747772963950788065e-03
2.755999999999999872e+01,5.665913614311024644e-03
2.760000000000000142e+01,4.403006449877754948e-03
2.764000000000000057e+01,7.076356101718523153e-03
2.767999999999999972e+01,6.364280771479349959e-03
2.771999999999999886e+01,6.675535230324025279e-03
2.776000000000000156e+01,6.160017153599790275e-03
2.780000000000000071e+01,5.526276488528551918e-03
2.783999999999999986e+01,5.364771539014974097e-03
2.787999999999999901e+01,9.336343335213288103e-03
2.792000000000000171e+01,7.796841093529441671e-03
2.796000000000000085e+01,5.036927941809937401e-03
2.800000000000000000e+01,5.189811483478132433e-03
2.803999999999999915e+01,4.634014744121930408e-03
2.807999999999999829e+01,7.305925921635906921e-03
2.812000000000000099e+01,3.561394232426028355e-03
2.816000000000000014e+01,3.871212137943728666e-03
2.819999999999999929e+01,5.479908048103679374e-03
2.823999999999999844e+01,5.435190967291768718e-03
2.828000000000000114e+01,3.264694409556970645e-03
2.832000000000000028e+01,4.715545103659047298e-03
2.835999999999999943e+01,3.568249922205433879e-03
2.839999999999999858e+01,4.074108111936818218e-03
2.844000000000000128e+01,5.052203326998464666e-03
2.848000000000000043e+01,4.298158312785741592e-03
2.851999999999999957e+01,5.472814099452897631e-03
2.855999999999999872e+01,5.505788048068507683e-03
2.860000000000000142e+01,5.263085630277527030e-03
2.864000000000000057e+01,7.500178610801651151e-03
2.867999999999999972e+01,3.596377114796705556e-03
2.871999999999999886e+01,3.510743149339167965e-03
2.876000000000000156e+01,6.022996487468542173e-03
2.880000000000000071e+01,5.110463407321077893e-03
2.883999999999999986e+01,2.465790883762834871e-03
2.887999999999999901e+01,4.544655505457259256e-03
2.892000000000000171e+01,5.521202956069471215e-03
2.896000000000000085e+01,2.915508813254477465e-03
2.900000000000000000e+01,3.852435644473779872e-03
2.903999999999999915e+01,3.568953923248082728e-03
2.907999999999999829e+01,6.473818420741140819e-03
2.912000000000000099e+01,5.009164051964406714e-03
2.916000000000000014e+01,6.457308908802431892e-03
2.919999999999999929e+01,6.448862275833560503e-03
2.923999999999999844e+01,6.833926652346908846e-03
2.928000000000000114e+01,4.069752826141855712e-03
2.932000000000000028e+01,4.257742455930001342e-03
2.935999999999999943e+01,6.216979195856616597e-03
2.939999999999999858e+01,5.499344568288527975e-03
2.944000000000000128e+01,5.057129743476193422e-03
2.948000000000000043e+01,2.922140753449620557e-03
2.951999999999999957e+01,4.841504326968509506e-03
2.955999999999999872e+01,2.863716567986706370e-03
2.960000000000000142e+01,4.782826022763666390e-03
2.964000000000000057e+01,1.505776243186053229e-03
2.967999999999999972e+01,5.943920319262669359e-03
2.971999999999999886e+01,5.540180265572934755e-03
2.976000000000000156e+01,4.467127566646036073e-03
2.980000000000000071e+01,2.606670666482837403e-03
2.983999999999999986e+01,8.658227376775389644e-03
2.987999999999999901e+01,4.160137546238492322e-03
2.992000000000000171e+01,7.416605976370629037e-03
2.996000000000000085e+01,7.169562758241441840e-03
3.000000000000000000e+01,8.221401474072317569e-03
3.003999999999999915e+01,4.273901234259188525e-03
3.007999999999999829e+01,5.955310024676527432e-03
3.012000000000000099e+01,0.000000000000000000e+00
3.016000000000000014e+01,6.208003443747138125e-03
3.019999999999999929e+01,3.992010624921465099e-03
3.023999999999999844e+01,1.697164425263169869e-03
3.028000000000000114e+01,3.889675140359053797e-03
3.032000000000000028e+01,3.444680377383988953e-03
3.035999999999999943e+01,3.944293404280670330e-03
3.039999999999999858e+01,4.916147735098105702e-03
3.044000000000000128e+01,3.998410590808644180e-03
3.048000000000000043e+01,1.820904156422653835e-03
3.051999999999999957e+01,4.170119041805649129e-03
3.055999999999999872e+01,3.842465091920981447e-03
3.060000000000000142e+01,3.672141833701813608e-03
3.064000000000000057e+01,5.430524004225724746e-03
3.067999999999999972e+01,4.275854314801898030e-03
3.071999999999999886e+01,3.554062746738452516e-03
3.076000000000000156e+01,5.784437778122463077e-03
3.080000000000000071e+01,5.259216735936319415e-03
3.083999999999999986e+01,3.631682713940278650e-03
3.087999999999999901e+01,3.814763001279055949e-03
3.092000000000000171e+01,5.847821566376599708e-03
3.096000000000000085e+01,5.479559337128542262e-03
3.100000000000000000e+01,2.158882065372381975e-03
3.103999999999999915e+01,2.026555290925470109e-03
3.107999999999999829e+01,1.972832493750630110e-03
3.112000000000000099e+01,3.965907816454249113e-03
3.116000000000000014e+01,2.573565753759025562e-03
3.119999999999999929e+01,5.906419514924069305e-04
3.123999999999999844e+01,1.756705202020152675e-03
3.128000000000000114e+01,5.284477970545149554e-03
3.132000000000000028e+01,4.088461745348047002e-03
3.135999999999999943e+01,1.120947696679304917e-03
3.139999999999999858e+01,5.553720209500152306e-03
3.144000000000000128e+01,5.420159514976458093e-03
3.148000000000000043e+01,6.703575628502551030e-03
3.151999999999999957e+01,1.491828535138020866e-03
3.155999999999999872e+01,2.971818492631997030e-03
3.160000000000000142e+01,6.144332687870641269e-03
3.164000000000000057e+01,5.970794426634295354e-03
3.167999999999999972e+01,5.246039354750405351e-03
3.171999999999999886e+01,2.789151126364208724e-03
3.176000000000000156e+01,2.418426296053010228e-03
3.180000000000000071e+01,4.566867643298363859e-03
3.183999999999999986e+01,4.707628928255593211e-03
3.187999999999999901e+01,3.234349049300509066e-03
3.192000000000000171e+01,5.854790854087070506e-03
3.196000000000000085e+01,3.318442370078893752e-03
3.200000000000000000e+01,4.954543506660257640e-03
3.203999999999999915e+01,3.992506800957870174e-03
3.207999999999999829e+01,7.124192128269852750e-03
3.211999999999999744e+01,3.288348985194634606e-03
3.215999999999999659e+01,3.979230741933517494e-03
3.220000000000000284e+01,5.850907591814723772e-03
3.224000000000000199e+01,3.392436267349450280e-03
3.228000000000000114e+01,6.444787132296896093e-03
3.232000000000000028e+01,5.285081640851508646e-03
3.235999999999999943e+01,6.408360262782528474e-03
3.239999999999999858e+01,6.271873785889369932e-03
3.243999999999999773e+01,6.056538730663126556e-03
3.247999999999999687e+01,5.408080254470079562e-03
3.252000000000000313e+01,5.901053688858990537e-03
3.256000000000000227e+01,5.960903876917462291e-03
3.260000000000000142e+01,4.091803423944628294e-03
3.264000000000000057e+01,4.702507101104242901e-03
3.267999999999999972e+01,3.462988074080419493e-03
3.271999999999999886e+01,3.994723491921638343e-03
3.275999999999999801e+01,5.352980295407739307e-03
3.279999999999999716e+01,5.136561824405273639e-03
3.284000000000000341e+01,3.266740404020901552e-03
3.288000000000000256e+01,3.207537658880020310e-03
3.292000000000000171e+01,6.179233990579501359e-03
3.296000000000000085e+01,4.387781027496230439e-03
3.300000000000000000e+01,6.099593889158832008e-03
3.303999999999999915e+01,3.992990777213352785e-03
3.307999999999999829e+01,2.555454225035092963e-03
3.311999999999999744e+01,4.975458689509105505e-03
3.315999999999999659e+01,3.104680869060385574e-03
3.320000000000000284e+01,4.461622142208077936e-03
3.324000000000000199e+01,2.039511759444316390e-03
3.328000000000000114e+01,5.521864560105269049e-03
3.332000000000000028e+01,5.973079620500639647e-03
3.335999999999999943e+01,2.290968356987201516e-03
3.339999999999999858e+01,7.190064454044958232e-03
3.343999999999999773e+01,5.042907200003717699e-03
3.347999999999999687e+01,6.477744580737968688e-03
3.352000000000000313e+01,2.873886721403537143e-03
3.356000000000000227e+01,5.017037132297970554e-03
3.360000000000000142e+01,3.302408910932986327e-03
3.364000000000000057e+01,4.421861932606676801e-03
3.367999999999999972e+01,3.533638908628226449e-03
3.371999999999999886e+01,2.802753387132811327e-03
3.375999999999999801e+01,5.575135349428584318e-03
3.379999999999999716e+01,2.797092228507953166e-03
3.384000000000000341e+01,3.089314073851431169e-03
3.388000000000000256e+01,4.955973490758185628e-03
3.392000000000000171e+01,2.964854973950908912e-03
3.396000000000000085e+01,5.146190356323655617e-03
3.400000000000000000e+01,6.933769516925982271e-03
3.403999999999999915e+01,6.831765061057019743e-03
3.407999999999999829e+01,2.163433160842968047e-03
3.411999999999999744e+01,7.217862744994387597e-03
3.415999999999999659e+01,6.879323556216023448e-03
3.420000000000000284e+01,4.296926170287185785e-03
3.424000000000000199e+01,4.391155812746567848e-03
3.428000000000000114e+01,2.831985649278275213e-03
3.432000000000000028e+01,3.280256710036556084e-03
3.435999999999999943e+01,3.885866670368652489e-03
3.439999999999999858e+01,2.877440967833378316e-03
3.443999999999999773e+01,4.978645422440583675e-03
3.447999999999999687e+01,6.253092010932040888e-03
3.452000000000000313e+01,4.338947954280071746e-03
3.456000000000000227e+01,4.904612219032874337e-03
3.460000000000000142e+01,4.289243949672574829e-03
3.464000000000000057e+01,4.894039980968951237e-03
3.467999999999999972e+01,4.475259177211622641e-03
3.471999999999999886e+01,3.780815366728271752e-03
3.475999999999999801e+01,5.408724789817512778e-03
3.479999999999999716e+01,4.753413444423122171e-03
3.484000000000000341e+01,2.759614564401610161e-03
3.488000000000000256e+01,4.977635472983887518e-03
3.492000000000000171e+01,6.093352308209958219e-03
3.496000000000000085e+01,3.508749004417595005e-03
3.500000000000000000e+01,3.325227220318379470e-03
3.503999999999999915e+01,4.716145540009456134e-03
3.507999999999999829e+01,6.225040449895718163e-03
3.511999999999999744e+01,3.639976758978591843e-03
3.515999999999999659e+01,6.290194376642329992e-03
3.520000000000000284e+01,5.712458952465839825e-03
3.524000000000000199e+01,6.118705852084026058e-03
3.528000000000000114e+01,7.430207400603554974e-03
3.532000000000000028e+01,5.671211693660431832e-03
3.535999999999999943e+01,5.132381859101096781e-03
3.539999999999999858e+01,5.577534697609152180e-03
3.543999999999999773e+01,7.400309107560409244e-03
3.547999999999999687e+01,4.971670178148777063e-03
3.552000000000000313e+01,4.235564043662809301e-03
3.556000000000000227e+01,6.254815581276311313e-03
3.560000000000000142e+01,5.912120334558113727e-03
3.564000000000000057e+01,2.459564649816881315e-03
3.567999999999999972e+01,6.919035323984727530e-03
3.571999999999999886e+01,7.009001539381443102e-03
3.575999999999999801e+01,7.020126423853468613e-03
3.579999999999999716e+01,5.062943771642311984e-03
3.584000000000000341e+01,6.569669262661595802e-03
3.588000000000000256e+01,6.108087391634028050e-03
3.592000000000000171e+01,7.142219783185051532e-03
3.596000000000000085e+01,6.444228273960165947e-03
3.600000000000000000e+01,5.785487601036941319e-03
3.603999999999999915e+01,9.141749843415706428e-03
3.607999999999999829e+01,6.081586595387158782e-03
3.611999999999999744e+01,5.540598955277920012e-03
3.615999999999999659e+01,6.810237150502421524e-03
3.620000000000000284e+01,6.780754661023462478e-03
3.624000000000000199e+01,8.128895489351181669e-03
3.628000000000000114e+01,5.579899654631337129e-03
3.632000000000000028e+01,7.518273919709901783e-03
3.635999999999999943e+01,8.275619492674982092e-03
3.639999999999999858e+01,9.702038872815682211e-03
3.643999999999999773e+01,8.727149421200564028e-03
3.647999999999999687e+01,7.397873042647547075e-03
3.652000000000000313e+01,9.926145102791545174e-03
3.656000000000000227e+01,8.950919922172862267e-03
3.660000000000000142e+01,8.133038530945739183e-03
3.664000000000000057e+01,8.614053568495485050e-03
3.667999999999999972e+01,9.213048688967360317e-03
3.671999999999999886e+01,8.867199189823917957e-03
3.675999999999999801e+01,9.505335332565758091e-03
3.679999999999999716e+01,8.332621646001807728e-03
3.684000000000000341e+01,6.648066293940459864e-03
3.688000000000000256e+01,9.254062858603109148e-03
3.692000000000000171e+01,1.087585135913553096e-02
3.696000000000000085e+01,7.222768842327625255e-03
3.700000000000000000e+01,9.080518818476927823e-03
3.703999999999999915e+01,9.835969349133215356e-03
3.707999999999999829e+01,9.961487094883871365e-03
3.711999999999999744e+01,1.197636053381594470e-02
3.715999999999999659e+01,1.430603450901704772e-02
3.720000000000000284e+01,1.600577596126702071e-02
3.724000000000000199e+01,1.392647448942291831e-02
3.728000000000000114e+01,1.247688486464847840e-02
3.732000000000000028e+01,1.681367559911697840e-02
3.735999999999999943e+01,1.343503556086950677e-02
3.739999999999999858e+01,1.635450651087624191e-02
3.743999999999999773e+01,1.769931231530256707e-02
3.747999999999999687e+01,2.014619697665859591e-02
3.752000000000000313e+01,1.964068082836880128e-02
3.756000000000000227e+01,1.929251056510670331e-02
3.760000000000000142e+01,1.886550298755591826e-02
3.764000000000000057e+01,2.040658000053434742e-02
3.767999999999999972e+01,2.706485217982129016e-02
3.771999999999999886e+01,2.722797468653449793e-02
3.775999999999999801e+01,2.888681547246228082e-02
3.779999999999999716e+01,3.424575196684558065e-02
3.784000000000000341e+01,3.885666569205122739e-02
3.788000000000000256e+01,3.996408505799393246e-02
3.792000000000000171e+01,4.567696965977923601e-02
3.796000000000000085e+01,5.438140045938900241e-02
3.800000000000000000e+01,6.155053121697856566e-02
3.803999999999999915e+01,6.856209785856780259e-02
3.807999999999999829e+01,8.844554511748280168e-02
3.811999999999999744e+01,1.035264904645536721e-01
3.815999999999999659e+01,1.321485025823846415e-01
3.820000000000000284e+01,1.652578889039681975e-01
3.824000000000000199e+01,2.071846764382564987e-01
3.828000000000000114e+01,2.626131671241537235e-01
3.832000000000000028e+01,3.560670589778688888e-01
3.835999999999999943e+01,4.566457054186956466e-01
3.839999999999999858e+01,5.966274890406785270e-01
3.843999999999999773e+01,7.694780056675788460e-01
3.847999999999999687e+01,9.194579997409528804e-01
3.852000000000000313e+01,1.000000000000000000e+00
3.856000000000000227e+01,9.824864649681477324e-01
3.860000000000000142e+01,8.719166076331460458e-01
3.864000000000000057e+01,7.148972633115381337e-01
3.867999999999999972e+01,5.539414236848673179e-01
3.871999999999999886e+01,4.082586628200646772e-01
3.875999999999999801e+01,3.050100587674256514e-01
3.879999999999999716e+01,2.267180484033091414e-01
3.884000000000000341e+01,1.862939848177238011e-01
3.888000000000000256e+01,1.439409843000605260e-01
3.892000000000000171e+01,1.120586694859529858e-01
3.896000000000000085e+01,9.541007007651690353e-02
3.900000000000000000e+01,8.289457168724498337e-02
3.903999999999999915e+01,7.183543049026337723e-02
3.907999999999999829e+01,5.652488381255452166e-02
3.911999999999999744e+01,5.294466747037679388e-02
3.915999999999999659e+01,4.377467386451217718e-02
3.920000000000000284e+01,4.298908087482507939e-02
3.924000000000000199e+01,3.787335499147186785e-02
3.928000000000000114e+01,3.008077930821282178e-02
3.932000000000000028e+01,2.976723523765325424e-02
3.935999999999999943e+01,3.165796279893894755e-02
3.939999999999999858e+01,2.622690285179316017e-02
3.943999999999999773e+01,2.485021712309988876e-02
3.947999999999999687e+01,2.315851489743748701e-02
3.952000000000000313e+01,1.949851325568204008e-02
3.956000000000000227e+01,1.879069742337224208e-02
3.960000000000000142e+01,2.186170899104731419e-02
3.964000000000000057e+01,1.965785539169967108e-02
3.967999999999999972e+01,2.005191293380031992e-02
3.971999999999999886e+01,1.717866341990856999e-02
3.975999999999999801e+01,2.044607452162022429e-02
3.979999999999999716e+01,1.993444828760091922e-02
3.984000000000000341e+01,1.536823763742843803e-02
3.988000000000000256e+01,1.749378220029459280e-02
3.992000000000000171e+01,1.371464010967301909e-02
3.996000000000000085e+01,1.477715099475550645e-02
4.000000000000000000e+01,1.465864113367831671e-02
4.003999999999999915e+01,1.414638823587490747e-02
4.007999999999999829e+01,1.264993417207698444e-02
4.011999999999999744e+01,1.209810920378515640e-02
4.015999999999999659e+01,1.193981908283692044e-02
4.020000000000000284e+01,1.268679435092536986e-02
4.024000000000000199e+01,9.418549957148164564e-03
4.028000000000000114e+01,9.417403993389833472e-03
4.032000000000000028e+01,1.063643472946884314e-02
4.035999999999999943e+01,9.414801309867259008e-03
4.039999999999999858e+01,1.083044448454686601e-02
4.043999999999999773e+01,8.703235007220847322e-03
4.047999999999999687e+01,1.055167425640835162e-02
4.052000000000000313e+01,9.644538650341843988e-03
4.056000000000000227e+01,1.054803848460818261e-02
4.060000000000000142e+01,7.042680631814774057e-03
4.064000000000000057e+01,9.363074266778476790e-03
4.067999999999999972e+01,8.455526822491715028e-03
4.071999999999999886e+01,7.902151566897209350e-03
4.075999999999999801e+01,9.986053691447439179e-03
4.079999999999999716e+01,9.629292620816999604e-03
4.084000000000000341e+01,6.320137987949153019e-03
4.088000000000000256e+01,9.191010296699336432e-03
4.092000000000000171e+01,8.558394882367740056e-03
4.096000000000000085e+01,6.666033055301109206e-03
4.100000000000000000e+01,9.930237523057159829e-03
4.103999999999999915e+01,6.226932992378719257e-03
4.107999999999999829e+01,5.554545351448043553e-03
4.111999999999999744e+01,9.172718882967764720e-03
4.115999999999999659e+01,8.500127593199477069e-03
4.120000000000000284e+01,7.355068036720458467e-03
4.124000000000000199e+01,6.249270755223843878e-03
4.128000000000000114e+01,5.891285695931541139e-03
4.132000000000000028e+01,9.154676266882516567e-03
4.135999999999999943e+01,9.229491124097736685e-03
4.139999999999999858e+01,5.092269446145511989e-03
4.143999999999999773e+01,5.954159499092833568e-03
4.147999999999999687e+01,6.894676232037338752e-03
4.152000000000000313e+01,8.701097354412507673e-03
4.156000000000000227e+01,7.082759913008194325e-03
4.160000000000000142e+01,6.645238084517005733e-03
4.164000000000000057e+01,6.719345977459108277e-03
4.167999999999999972e+01,6.675261581460445806e-03
4.171999999999999886e+01,9.465276066771520502e-03
4.175999999999999801e+01,7.570888229509536820e-03
4.179999999999999716e+01,8.156324518241749380e-03
4.184000000000000341e+01,5.198911211104425244e-03
4.188000000000000256e+01,6.177785805510906982e-03
4.192000000000000171e+01,7.510835208154847085e-03
4.196000000000000085e+01,6.954318283325855096e-03
4.200000000000000000e+01,7.539253963485953447e-03
4.203999999999999915e+01,5.407981987588408694e-03
4.207999999999999829e+01,8.000275971940844916e-03
4.211999999999999744e+01,6.380534992852948499e-03
4.215999999999999659e+01,6.728888471247891981e-03
4.220000000000000284e+01,6.250500935934567674e-03
4.224000000000000199e+01,6.126288907404079526e-03
4.228000000000000114e+01,8.718085339320462770e-03
4.232000000000000028e+01,8.554310845300668736e-03
4.235999999999999943e+01,8.469164952277884531e-03
4.239999999999999858e+01,6.140178762330216790e-03
4.243999999999999773e+01,8.456031556284531597e-03
4.247999999999999687e+01,7.347127794777377763e-03
4.252000000000000313e+01,1.045006049964517132e-02
4.256000000000000227e+01,7.530220670707395668e-03
4.260000000000000142e+01,6.539112378646586010e-03
4.264000000000000057e+01,7.043733018617528464e-03
4.267999999999999972e+01,5.698152783948418933e-03
4.271999999999999886e+01,7.226037494649134411e-03
4.275999999999999801e+01,5.565349547750191375e-03
4.279999999999999716e+01,6.463215672011299491e-03
4.284000000000000341e+01,5.707700676433886781e-03
4.288000000000000256e+01,6.959645591172167189e-03
4.292000000000000171e+01,9.274317357006022638e-03
4.296000000000000085e+01,8.361053020725284571e-03
4.300000000000000000e+01,9.612704381137850140e-03
4.303999999999999915e+01,8.738608485033572473e-03
4.307999999999999829e+01,6.014312587471005826e-03
4.311999999999999744e+01,8.525315374805846405e-03
4.315999999999999659e+01,8.398840713203443650e-03
4.320000000000000284e+01,8.469088129596994211e-03
4.324000000000000199e+01,9.287152046785375828e-03
4.328000000000000114e+01,8.963566259010053924e-03
4.332000000000000028e+01,7.891969664646872676e-03
4.335999999999999943e+01,8.906561790629013986e-03
4.339999999999999858e+01,8.189046257015539232e-03
4.343999999999999773e+01,1.050245276492206385e-02
4.347999999999999687e+01,9.981563116907914493e-03
4.352000000000000313e+01,1.213732075509825134e-02
4.356000000000000227e+01,1.059277702767744307e-02
4.360000000000000142e+01,1.081951149566489842e-02
4.364000000000000057e+01,1.151851616988854715e-02
4.367999999999999972e+01,1.024923050910921118e-02
4.371999999999999886e+01,1.279814512319239067e-02
4.375999999999999801e+01,1.727579380637955450e-02
4.379999999999999716e+01,1.702968073911475741e-02
4.384000000000000341e+01,1.576001083265800989e-02
4.388000000000000256e+01,1.594670868399061456e-02
4.392000000000000171e+01,1.514921375187336557e-02
4.396000000000000085e+01,2.068920800929657106e-02
4.400000000000000000e+01,1.981279406531082088e-02
4.403999999999999915e+01,2.137684525603122249e-02
4.407999999999999829e+01,2.329507597017044587e-02
4.411999999999999744e+01,2.718140542038299454e-02
4.415999999999999659e+01,3.047718142211238573e-02
4.420000000000000284e+01,3.066311567190787082e-02
4.424000000000000199e+01,3.313205996857732788e-02
4.428000000000000114e+01,3.985220845472711715e-02
4.432000000000000028e+01,4.547007338729151110e-02
4.435999999999999943e+01,5.081229635680970663e-02
4.439999999999999858e+01,5.863434912800338100e-02
4.443999999999999773e+01,6.657439892184484342e-02
4.447999999999999687e+01,7.683682316757510511e-02
4.452000000000000313e+01,8.528841443640705622e-02
4.456000000000000227e+01,1.036596093851766126e-01
4.460000000000000142e+01,1.172283165676461375e-01
4.464000000000000057e+01,1.369376950185361985e-01
4.467999999999999972e+01,1.590875400012232432e-01
4.471999999999999886e+01,1.887951561467747230e-01
4.475999999999999801e+01,2.113778158900587734e-01
4.479999999999999716e+01,2.336454707496908034e-01
4.484000000000000341e+01,2.397344767273660027e-01
4.488000000000000256e+01,2.312193891546331925e-01
4.492000000000000171e+01,2.115642296561176250e-01
4.496000000000000085e+01,1.931292569863476138e-01
4.500000000000000000e+01,1.700886168289880707e-01
4.503999999999999915e+01,1.445285949699627870e-01
4.507999999999999829e+01,1.141267225113497541e-01
4.511999999999999744e+01,1.018321422251276948e-01
4.515999999999999659e+01,7.855494606145510539e-02
4.520000000000000284e+01,6.889755979875268610e-02
4.524000000000000199e+01,5.845280303962897828e-02
4.528000000000000114e+01,4.946441709443068907e-02
4.532000000000000028e+01,4.185367428826447522e-02
4.535999999999999943e+01,3.751004100152517673e-02
4.539999999999999858e+01,3.135557665888741991e-02
4.543999999999999773e+01,2.791712767483222474e-02
4.547999999999999687e+01,2.754896906662965272e-02
4.552000000000000313e+01,2.174850260275283317e-02
4.556000000000000227e+01,2.145888731792236145e-02
4.560000000000000142e+01,1.837434438614017965e-02
4.564000000000000057e+01,1.910800592049283209e-02
4.567999999999999972e+01,1.692864833921282897e-02
4.571999999999999886e+01,1.652057358120428282e-02
4.575999999999999801e+01,1.323884376330517788e-02
4.579999999999999716e+01,1.503496295619807105e-02
4.584000000000000341e+01,1.250096366292348209e-02
4.588000000000000256e+01,1.500544967397147642e-02
4.592000000000000171e+01,8.967882095171575418e-03
4.596000000000000085e+01,9.267808071820808624e-03
4.600000000000000000e+01,1.114219807743988509e-02
4.603999999999999915e+01,8.450286746847772423e-03
4.607999999999999829e+01,8.986122626303947106e-03
4.611999999999999744e+01,8.695226049232882004e-03
4.615999999999999659e+01,8.561694130596830127e-03
4.620000000000000284e+01,6.184330210262381326e-03
4.624000000000000199e+01,8.884816261219818587e-03
4.628000000000000114e+01,6.152996115548307020e-03
4.632000000000000028e+01,7.003198633785997183e-03
4.635999999999999943e+01,5.963844429549842140e-03
4.639999999999999858e+01,9.490610091503344850e-03
4.643999999999999773e+01,5.538148088600852031e-03
4.647999999999999687e+01,6.742264343110828360e-03
4.652000000000000313e+01,7.513287825332930908e-03
4.656000000000000227e+01,6.355391140566290543e-03
4.660000000000000142e+01,6.771959794542110195e-03
4.664000000000000057e+01,7.306530273665272184e-03
4.667999999999999972e+01,6.109000253283044558e-03
4.671999999999999886e+01,6.682755239126601625e-03
4.675999999999999801e+01,5.366954375678061745e-03
4.679999999999999716e+01,5.783074811985896950e-03
4.684000000000000341e+01,5.608647650128186120e-03
4.688000000000000256e+01,4.764945215211585129e-03
4.692000000000000171e+01,3.251967594554264034e-03
4.696000000000000085e+01,5.439105678214217060e-03
4.700000000000000000e+01,6.366510534183332688e-03
4.703999999999999915e+01,5.286268508770273523e-03
4.707999999999999829e+01,2.985657311408489341e-03
4.711999999999999744e+01,6.156536817396062941e-03
4.715999999999999659e+01,4.997300718715879005e-03
4.720000000000000284e+01,3.641156618791374037e-03
4.724000000000000199e+01,4.961667925661491368e-03
4.728000000000000114e+01,5.179902140491033855e-03
4.732000000000000028e+01,4.256495469492433542e-03
4.735999999999999943e+01,4.159642055272050679e-03
4.739999999999999858e+01,2.803056286542581713e-03
4.743999999999999773e+01,5.973228773169508149e-03
4.747999999999999687e+01,3.671733801606915770e-03
4.752000000000000313e+01,5.030991875710270206e-03
4.756000000000000227e+01,3.831509868087000156e-03
4.760000000000000142e+01,5.899142269708375005e-03
4.764000000000000057e+01,4.423937736595376022e-03
4.767999999999999972e+01,6.570122717315243083e-03
4.771999999999999886e+01,5.409654224571661466e-03
4.775999999999999801e+01,6.020473008326387467e-03
4.779999999999999716e+01,3.088455206619428097e-03
4.784000000000000341e+01,5.155563106719778139e-03
4.788000000000000256e+01,2.892556973879507106e-03
4.792000000000000171e+01,3.070024445608224122e-03
4.796000000000000085e+01,4.821960224897283223e-03
4.800000000000000000e+01,3.818337477430820345e-03
4.803999999999999915e+01,6.632924435189604083e-03
4.807999999999999829e+01,5.747219894290865778e-03
4.811999999999999744e+01,5.451886982581063794e-03
4.815999999999999659e+01,4.762828759734267017e-03
4.820000000000000284e+01,1.475667971145876341e-03
4.824000000000000199e+01,4.998372288411671339e-03
4.828000000000000114e+01,4.663330019187749732e-03
4.832000000000000028e+01,4.682476529109059170e-03
4.835999999999999943e+01,1.355607081551931216e-03
4.839999999999999858e+01,3.382139488208420891e-03
4.843999999999999773e+01,4.306397335051373801e-03
4.847999999999999687e+01,5.230569380360368219e-03
4.852000000000000313e+01,4.855647634963367737e-03
4.856000000000000227e+01,3.457179353918884979e-03
4.860000000000000142e+01,4.577913924063859580e-03
4.864000000000000057e+01,4.714466014303466020e-03
4.867999999999999972e+01,4.063655117484699271e-03
4.871999999999999886e+01,5.656500166069572226e-03
4.875999999999999801e+01,4.808699395790325473e-03
4.879999999999999716e+01,4.511907858003201370e-03
4.884000000000000341e+01,4.411850710074495009e-03
4.888000000000000256e+01,3.130792200620645827e-03
4.892000000000000171e+01,5.274306506334223987e-03
4.896000000000000085e+01,2.024884346842243093e-03
4.900000000000000000e+01,4.798051330134459058e-03
4.903999999999999915e+01,4.185839959251444996e-03
4.907999999999999829e+01,3.809727383241642579e-03
4.911999999999999744e+01,4.496355192644298573e-03
4.915999999999999659e+01,4.395621062806659776e-03
4.920000000000000284e+01,1.303147739124108431e-03
4.924000000000000199e+01,4.666266774298213731e-03
4.928000000000000114e+01,3.187544378292844153e-03
4.932000000000000028e+01,1.787465776646683831e-03
4.935999999999999943e+01,5.780155005956066731e-03
4.939999999999999858e+01,3.750086632867574016e-03
4.943999999999999773e+01,4.829681161236652233e-03
4.947999999999999687e+01,5.633644903285751036e-03
4.952000000000000313e+01,3.367142387823816082e-03
4.956000000000000227e+01,2.911294959283750126e-03
4.960000000000000142e+01,3.439461201762680342e-03
4.964000000000000057e+01,4.715457915944217329e-03
4.967999999999999972e+01,3.865721868425727511e-03
4.971999999999999886e+01,4.118091397198058237e-03
4.975999999999999801e+01,7.480124525973341591e-03
4.979999999999999716e+01,4.858764806638246440e-03
4.984000000000000341e+01,4.323607953192590107e-03
4.988000000000000256e+01,3.355365662185644336e-03
4.992000000000000171e+01,3.331773859637325846e-03
4.996000000000000085e+01,1.930363647625731515e-03
5.000000000000000000e+01,3.087523224045425011e-03
5.003999999999999915e+01,3.536050544436186889e-03
5.007999999999999829e+01,1.740754332991367509e-03
5.011999999999999744e+01,3.133850269624602683e-03
5.015999999999999659e+01,4.763047358721751376e-03
5.020000000000000284e+01,4.266512821255137762e-03
5.024000000000000199e+01,3.021982583244683333e-03
5.028000000000000114e+01,4.690297674844622414e-03
5.032000000000000028e+01,5.256342310585195368e-03
5.035999999999999943e+01,4.916935983313388929e-03
5.039999999999999858e+01,4.380628640251126547e-03
5.043999999999999773e+01,4.159150823091522370e-03
5.047999999999999687e+01,4.213138738046993265e-03
5.052000000000000313e+01,5.644781143397094303e-03
5.056000000000000227e+01,4.871964945835470170e-03
5.060000000000000142e+01,4.650161910083776447e-03
5.064000000000000057e+01,1.515350586152960531e-03
5.067999999999999972e+01,5.426592981119495590e-03
5.071999999999999886e+01,5.362002472687624546e-03
5.075999999999999801e+01,5.809061594232621355e-03
5.079999999999999716e+01,3.618659944611516376e-03
5.084000000000000341e+01,4.262377084843716607e-03
5.088000000000000256e+01,5.102833068161186959e-03
5.092000000000000171e+01,4.250561688805425814e-03
5.096000000000000085e+01,5.484495620247974330e-03
5.100000000000000000e+01,4.317152503749873728e-03
5.103999999999999915e+01,4.881739942734548802e-03
5.107999999999999829e+01,3.202506032837988334e-03
5.111999999999999744e+01,5.735127362723681406e-03
5.115999999999999659e+01,5.039830490720391756e-03
5.120000000000000284e+01,4.344453754818932041e-03
5.124000000000000199e+01,3.648997242337498770e-03
5.128000000000000114e+01,3.701374781603771185e-03
5.132000000000000028e+01,4.619678103253208393e-03
5.135999999999999943e+01,4.475077120421561659e-03
5.139999999999999858e+01,4.054849542542268183e-03
5.143999999999999773e+01,5.996375491019707502e-03
5.147999999999999687e+01,2.899245405288399142e-03
5.152000000000000313e+01,3.935243670309546311e-03
5.156000000000000227e+01,4.459432402921167937e-03
5.160000000000000142e+01,4.668631095970265932e-03
5.164000000000000057e+01,5.350117458890268386e-03
5.167999999999999972e+01,4.417605880393866979e-03
5.171999999999999886e+01,4.036109908616276366e-03
5.175999999999999801e+01,6.488734735009957753e-03
5.179999999999999716e+01,6.658175903143780799e-03
5.184000000000000341e+01,5.961533220143406739e-03
5.188000000000000256e+01,4.910537227701940177e-03
5.192000000000000171e+01,3.820099061983680752e-03
5.196000000000000085e+01,5.209507201075696398e-03
5.200000000000000000e+01,5.536012432777400599e-03
5.203999999999999915e+01,4.642159319983897754e-03
5.207999999999999829e+01,3.197133928811361162e-03
5.211999999999999744e+01,5.491599387106253956e-03
5.215999999999999659e+01,4.440057183149194453e-03
5.220000000000000284e+01,4.333170444786657929e-03
5.224000000000000199e+01,3.753839539529313287e-03
5.228000000000000114e+01,3.568069939022137926e-03
5.232000000000000028e+01,4.051408898323641435e-03
5.235999999999999943e+01,4.022940071579092502e-03
5.239999999999999858e+01,4.899763265914173181e-03
5.243999999999999773e+01,5.343506611051065253e-03
5.247999999999999687e+01,5.275442432096417653e-03
5.252000000000000313e+01,4.616843054156885388e-03
5.256000000000000227e+01,4.745444403252371303e-03
5.260000000000000142e+01,5.149516112326123912e-03
5.264000000000000057e+01,3.703408688985066529e-03
5.267999999999999972e+01,3.556232709008470740e-03
5.271999999999999886e+01,3.094069134378206552e-03
5.275999999999999801e+01,4.324475988806403444e-03
5.279999999999999716e+01,4.570709444419298294e-03
5.284000000000000341e+01,4.934958259496427524e-03
5.288000000000000256e+01,4.708672661452227744e-03
5.292000000000000171e+01,3.262030639912660585e-03
5.296000000000000085e+01,5.791064588156732799e-03
5.300000000000000000e+01,4.422998372349815945e-03
5.303999999999999915e+01,4.786867077934342345e-03
5.307999999999999829e+01,4.520837925882643764e-03
5.311999999999999744e+01,4.333460863416640184e-03
5.315999999999999659e+01,6.035474508719673899e-03
5.320000000000000284e+01,4.509574405360561658e-03
5.324000000000000199e+01,5.620978925416336876e-03
5.328000000000000114e+01,4.409839136878904511e-03
5.332000000000000028e+01,5.403001454229297562e-03
5.335999999999999943e+01,3.719344707670945143e-03
5.339999999999999858e+01,3.846351430579125763e-03
5.343999999999999773e+01,4.406285871570285798e-03
5.347999999999999687e+01,4.100140041472361517e-03
5.352000000000000313e+01,4.069466579670690670e-03
5.356000000000000227e+01,4.944087671175688599e-03
5.360000000000000142e+01,6.448456235565152433e-03
5.364000000000000057e+01,5.551553515013440618e-03
5.367999999999999972e+01,6.071676064097836223e-03
5.371999999999999886e+01,2.970247188598724390e-03
5.375999999999999801e+01,5.300959630160002357e-03
5.379999999999999716e+01,4.994217849418203757e-03
5.384000000000000341e+01,5.199132422152643110e-03
5.388000000000000256e+01,3.671962212652924752e-03
5.392000000000000171e+01,5.805559019726907674e-03
5.396000000000000085e+01,5.341065834876300780e-03
5.400000000000000000e+01,4.167949038495905902e-03
5.403999999999999915e+01,4.569313822038247562e-03
5.407999999999999829e+01,4.301419049792935302e-03
5.411999999999999744e+01,5.175003339943303610e-03
5.415999999999999659e+01,4.277139577980966154e-03
5.420000000000000284e+01,5.268668794060163765e-03
5.424000000000000199e+01,4.528114013768789678e-03
5.428000000000000114e+01,5.755680148366809287e-03
5.432000000000000028e+01,4.581976482432594498e-03
5.435999999999999943e+01,5.494485549341449407e-03
5.439999999999999858e+01,5.462188591267677813e-03
5.443999999999999773e+01,4.957452268798634605e-03
5.447999999999999687e+01,4.216459955887085290e-03
5.452000000000000313e+01,4.341400410812597081e-03
5.456000000000000227e+01,5.332273720893340903e-03
5.460000000000000142e+01,4.276152771620937362e-03
5.464000000000000057e+01,5.503064571947632704e-03
5.467999999999999972e+01,4.171251833182591448e-03
5.471999999999999886e+01,3.429825131105134189e-03
5.475999999999999801e+01,6.860897733657968060e-03
5.479999999999999716e+01,5.450140954939268305e-03
5.484000000000000341e+01,4.118040020487732933e-03
5.488000000000000256e+01,4.635969667380930234e-03
5.492000000000000171e+01,4.996372046543038313e-03
5.496000000000000085e+01,6.380163678465177596e-03
5.500000000000000000e+01,6.110600735273554601e-03
5.503999999999999915e+01,6.392060646209141508e-03
5.507999999999999829e+01,6.555357519792099491e-03
5.511999999999999744e+01,5.419575010167692469e-03
5.515999999999999659e+01,7.669015056240036446e-03
5.520000000000000284e+01,5.076626594222585949e-03
5.524000000000000199e+01,5.712005338115161771e-03
5.528000000000000114e+01,5.874946551294123881e-03
5.532000000000000028e+01,5.801633607712207430e-03
5.535999999999999943e+01,6.987894076706636405e-03
5.539999999999999858e+01,5.261156648384585945e-03
5.543999999999999773e+01,4.912084450592530023e-03
5.547999999999999687e+01,5.153399948533339894e-03
5.552000000000000313e+01,4.882914558563801466e-03
5.556000000000000227e+01,5.045361514540441447e-03
5.560000000000000142e+01,5.404557617146819697e-03
5.564000000000000057e+01,5.999866834806895886e-03
5.567999999999999972e+01,2.816173382050909512e-03
5.571999999999999886e+01,3.883709091772882208e-03
5.575999999999999801e+01,6.053363562829892040e-03
5.579999999999999716e+01,5.900479226338609454e-03
5.584000000000000341e+01,5.786889035963076189e-03
5.588000000000000256e+01,4.492312764742755274e-03
5.592000000000000171e+01,5.323316512880026455e-03
5.596000000000000085e+01,5.563792571395339594e-03
5.600000000000000000e+01,5.174377146501086405e-03
5.603999999999999915e+01,6.438175429649770597e-03
5.607999999999999829e+01,6.127349257486914419e-03
5.611999999999999744e+01,5.107904101657482696e-03
5.615999999999999659e+01,5.151214699239048921e-03
5.620000000000000284e+01,5.981733969809442317e-03
5.624000000000000199e+01,4.922718085494863331e-03
5.628000000000000114e+01,5.359460908709197217e-03
5.632000000000000028e+01,6.898323715712991085e-03
5.635999999999999943e+01,7.689204181853507777e-03
5.639999999999999858e+01,4.858539073728112417e-03
5.643999999999999773e+01,4.822641098894549574e-03
5.647999999999999687e+01,3.841941639623416491e-03
5.652000000000000313e+01,5.774101131597739016e-03
5.656000000000000227e+01,6.171001097184364466e-03
5.660000000000000142e+01,6.292285819085920509e-03
5.664000000000000057e+01,7.594418985533836312e-03
5.667999999999999972e+01,6.259104216587186263e-03
5.671999999999999886e+01,7.757921073265334859e-03
5.675999999999999801e+01,6.422470763656441470e-03
5.679999999999999716e+01,6.346597010078138673e-03
5.684000000000000341e+01,6.506838991098732629e-03
5.688000000000000256e+01,3.557266900046453500e-03
5.692000000000000171e+01,5.291929283180759995e-03
5.696000000000000085e+01,5.845607943060976593e-03
5.700000000000000000e+01,6.438583281283974738e-03
5.703999999999999915e+01,6.165486119735337500e-03
5.707999999999999829e+01,7.427513293184854169e-03
5.711999999999999744e+01,5.579726918470531531e-03
5.715999999999999659e+01,5.306428934496494262e-03
5.720000000000000284e+01,5.151155827667608204e-03
5.724000000000000199e+01,5.783093664100060101e-03
5.728000000000000114e+01,6.100053860150628053e-03
5.732000000000000028e+01,6.416947551983583076e-03
5.735999999999999943e+01,5.277311226003836980e-03
5.739999999999999858e+01,7.444174583327032094e-03
5.743999999999999773e+01,7.170411069829758961e-03
5.747999999999999687e+01,5.440117800474295745e-03
5.752000000000000313e+01,5.599224756568795328e-03
5.756000000000000227e+01,7.490276501008345626e-03
5.760000000000000142e+01,7.098157248323181366e-03
5.764000000000000057e+01,5.249508589052537602e-03
5.767999999999999972e+01,6.077538126619819181e-03
5.771999999999999886e+01,6.354407697670523200e-03
5.775999999999999801e+01,5.686478578465200238e-03
5.779999999999999716e+01,6.396219841562104588e-03
5.784000000000000341e+01,6.790984686731539599e-03
5.788000000000000256e+01,5.965403935859116963e-03
5.792000000000000171e+01,7.344135332464491600e-03
5.796000000000000085e+01,5.219416203530027193e-03
5.800000000000000000e+01,5.613920445555809803e-03
5.803999999999999915e+01,7.228640069369804758e-03
5.807999999999999829e+01,4.552631807483213666e-03
5.811999999999999744e+01,3.490477913078817059e-03
5.815999999999999659e+01,5.419914312176524716e-03
5.820000000000000284e+01,6.955647316998820988e-03
5.824000000000000199e+01,6.641213413950579521e-03
5.828000000000000114e+01,7.074628843330417992e-03
5.832000000000000028e+01,4.516324987408934510e-03
5.835999999999999943e+01,5.540070078166888130e-03
5.839999999999999858e+01,7.469120287730488840e-03
5.843999999999999773e+01,8.059734480389371333e-03
5.847999999999999687e+01,7.902370960048171744e-03
5.852000000000000313e+01,5.855477261957889833e-03
5.856000000000000227e+01,7.626816233772508100e-03
5.860000000000000142e+01,7.114986391416769015e-03
5.864000000000000057e+01,4.319987822208827023e-03
5.867999999999999972e+01,5.894316520340996124e-03
5.871999999999999886e+01,7.232398483757057975e-03
5.875999999999999801e+01,7.153317366602246138e-03
5.879999999999999716e+01,6.916717451579204763e-03
5.884000000000000341e+01,6.601326588217623290e-03
5.888000000000000256e+01,6.679511437104859208e-03
5.892000000000000171e+01,7.899185826568583951e-03
5.896000000000000085e+01,6.638872782196676876e-03
5.900000000000000000e+01,6.480685571931869837e-03
5.903999999999999915e+01,6.912893828717371451e-03
5.907999999999999829e+01,7.108856136650322337e-03
5.911999999999999744e+01,6.989844820837381838e-03
5.915999999999999659e+01,7.028226541865862341e-03
5.920000000000000284e+01,7.027181981525131536e-03
5.924000000000000199e+01,8.088899898094773985e-03
5.928000000000000114e+01,6.709994960479930340e-03
5.932000000000000028e+01,5.882122220036864642e-03
5.935999999999999943e+01,6.707470435045126758e-03
5.939999999999999858e+01,7.454028924169301545e-03
5.943999999999999773e+01,7.452611795929542371e-03
5.947999999999999687e+01,8.435229906297660868e-03
5.952000000000000313e+01,8.630508692832442735e-03
5.956000000000000227e+01,8.510814816121219442e-03
5.960000000000000142e+01,8.194240006799472648e-03
5.964000000000000057e+01,7.602056589973845216e-03
5.967999999999999972e+01,6.419353604116382825e-03
5.971999999999999886e+01,7.913333268323679073e-03
5.975999999999999801e+01,7.557149342751059290e-03
5.979999999999999716e+01,6.492354466783855152e-03
5.984000000000000341e+01,7.474420405143697953e-03
5.988000000000000256e+01,7.747875567745311255e-03
5.992000000000000171e+01,7.194628398589541368e-03
5.996000000000000085e+01,7.625417515859730586e-03
