2.003999999999999915e+01,8.849767848803554923e-03
2.007999999999999829e+01,1.261359852151164827e-02
2.012000000000000099e+01,2.024618154993228225e-02
2.016000000000000014e+01,2.014066599554367037e-02
2.019999999999999929e+01,1.376458433528352128e-02
2.023999999999999844e+01,1.646032491555913732e-02
2.028000000000000114e+01,1.355255905748356353e-02
2.032000000000000028e+01,1.091141773503803356e-02
2.035999999999999943e+01,2.441293759730168642e-02
2.039999999999999858e+01,1.963680276652738158e-02
2.044000000000000128e+01,1.806235706984936004e-02
2.048000000000000043e+01,2.008983637886165366e-02
2.051999999999999957e+01,1.371215352803710832e-02
2.055999999999999872e+01,2.401077838754500648e-02
2.060000000000000142e+01,1.042843959891132620e-02
2.064000000000000057e+01,2.112689612286525534e-02
2.067999999999999972e+01,1.835053018996035332e-02
2.071999999999999886e+01,1.690808184393189847e-02
2.076000000000000156e+01,1.533201789702248047e-02
2.080000000000000071e+01,1.415598629649433317e-02
2.083999999999999986e+01,1.804940933531680794e-02
2.087999999999999901e+01,2.260968816103689841e-02
2.092000000000000171e+01,9.692780127400511814e-03
2.096000000000000085e+01,2.078984041173804684e-02
2.100000000000000000e+01,2.548291540634141372e-02
2.103999999999999915e+01,3.204355344721541987e-02
2.107999999999999829e+01,2.246112396377358128e-02
2.112000000000000099e+01,9.676597940399905839e-03
2.116000000000000014e+01,1.797097279325609448e-02
2.119999999999999929e+01,3.318263196500568536e-03
2.123999999999999844e+01,2.175154057527317261e-02
2.128000000000000114e+01,2.751046262004873053e-02
2.132000000000000028e+01,1.952773237007376927e-02
2.135999999999999943e+01,2.835471479790465515e-02
2.139999999999999858e+01,4.065020198133445506e-02
2.144000000000000128e+01,2.879789390168234833e-02
2.148000000000000043e+01,2.561716081786061944e-02
2.151999999999999957e+01,2.457081066672871933e-02
2.155999999999999872e+01,2.659272762255275938e-02
2.160000000000000142e+01,2.447865924385238950e-02
2.164000000000000057e+01,3.864065275241793107e-02
2.167999999999999972e+01,2.171742093070867796e-02
2.171999999999999886e+01,3.454486992791146183e-02
2.176000000000000156e+01,3.162948158583701874e-02
2.180000000000000071e+01,2.271033707283779193e-02
2.183999999999999986e+01,1.779334170860225051e-02
2.187999999999999901e+01,1.874626419707240213e-02
2.192000000000000171e+01,2.303427474514686477e-02
2.196000000000000085e+01,1.264674278223920818e-02
2.200000000000000000e+01,1.946915403758586391e-02
2.203999999999999915e+01,2.082145529222132613e-02
2.207999999999999829e+01,2.510860695781830590e-02
2.212000000000000099e+01,2.979577924127559466e-02
2.216000000000000014e+01,2.074129176637807756e-02
2.219999999999999929e+01,2.516120761398276187e-02
2.223999999999999844e+01,1.117004034403410763e-02
2.228000000000000114e+01,6.384089264393229442e-03
2.232000000000000028e+01,2.414456158644778805e-02
2.235999999999999943e+01,1.482216480630134045e-02
2.239999999999999858e+01,2.097535070662827003e-02
2.244000000000000128e+01,1.632194002542760800e-02
2.248000000000000043e+01,1.326925544441163833e-02
2.251999999999999957e+01,1.555283472687358365e-02
2.255999999999999872e+01,1.716913411234502820e-02
2.260000000000000142e+01,2.105321891011166860e-02
2.264000000000000057e+01,2.880603367277941723e-02
2.267999999999999972e+01,1.748070103004695924e-02
2.271999999999999886e+01,1.349281160876347578e-02
2.276000000000000156e+01,2.177861185323447593e-02
2.280000000000000071e+01,1.392132929077144476e-02
2.283999999999999986e+01,1.820432360757536644e-02
2.287999999999999901e+01,1.861814536807950352e-02
2.292000000000000171e+01,2.156657384893699569e-02
2.296000000000000085e+01,1.717711509530792449e-02
2.300000000000000000e+01,1.065283970283361151e-02
2.303999999999999915e+01,2.427356395265610825e-02
2.307999999999999829e+01,1.508059912427770280e-02
2.312000000000000099e+01,3.417076984312329008e-02
2.316000000000000014e+01,1.803992773582679954e-02
2.319999999999999929e+01,1.311547477943398286e-02
2.323999999999999844e+01,2.006447099687491686e-02
2.328000000000000114e+01,9.402847310117347368e-03
2.332000000000000028e+01,2.168787436681601441e-02
2.335999999999999943e+01,1.716275326250466318e-02
2.339999999999999858e+01,1.583929499196972887e-02
2.344000000000000128e+01,9.045714281383180483e-03
2.348000000000000043e+01,2.426489836293817606e-02
2.351999999999999957e+01,1.520285662443752323e-02
2.355999999999999872e+01,7.608119314390831937e-03
2.360000000000000142e+01,1.322094873617011938e-02
2.364000000000000057e+01,1.309682978951311715e-02
2.367999999999999972e+01,1.617437118876455249e-02
2.371999999999999886e+01,1.778414993013550591e-02
2.376000000000000156e+01,1.779275358254833739e-02
2.380000000000000071e+01,9.796402158530349499e-03
2.383999999999999986e+01,7.669951172141390924e-03
2.387999999999999901e+01,5.143032711576952382e-03
2.392000000000000171e+01,9.019662280493809942e-03
2.396000000000000085e+01,2.050054820449417545e-02
2.400000000000000000e+01,2.397647727501513518e-02
2.403999999999999915e+01,1.010860383988898027e-02
2.407999999999999829e+01,1.878713816843017442e-02
2.412000000000000099e+01,1.399081947487593701e-02
2.416000000000000014e+01,1.693216743502446928e-02
2.419999999999999929e+01,2.529711467886794005e-03
2.423999999999999844e+01,2.107980374487981520e-02
2.428000000000000114e+01,1.588231175170425752e-02
2.432000000000000028e+01,4.280804969787349416e-03
2.435999999999999943e+01,7.087566847923293216e-03
2.439999999999999858e+01,1.989999853365931673e-02
2.444000000000000128e+01,1.363426717596710573e-02
2.448000000000000043e+01,2.070950680675476274e-02
2.451999999999999957e+01,1.430988986134976854e-02
2.455999999999999872e+01,1.711546884789794457e-02
2.460000000000000142e+01,2.365634830860278287e-02
2.464000000000000057e+01,1.485460106753392663e-02
2.467999999999999972e+01,8.720856984458473862e-03
2.471999999999999886e+01,1.966361987610788092e-02
2.476000000000000156e+01,9.527035746031590341e-03
2.480000000000000071e+01,8.195409188446342585e-03
2.483999999999999986e+01,9.665196442883425276e-03
2.487999999999999901e+01,1.113474356490565254e-02
2.492000000000000171e+01,1.367134680444721632e-02
2.496000000000000085e+01,1.794206618443806855e-02
2.500000000000000000e+01,1.407440775003853707e-02
2.503999999999999915e+01,1.180745266960099918e-02
2.507999999999999829e+01,1.100778851204770557e-02
2.512000000000000099e+01,1.807919455403167106e-02
2.516000000000000014e+01,2.835224779176426582e-02
2.519999999999999929e+01,1.354358782822487339e-02
2.523999999999999844e+01,1.767919927843549996e-02
2.528000000000000114e+01,2.274845157180989050e-02
2.532000000000000028e+01,7.272000170394411940e-03
2.535999999999999943e+01,9.939346662491946663e-03
2.539999999999999858e+01,1.420739330986386419e-02
2.544000000000000128e+01,1.634060163839719249e-02
2.548000000000000043e+01,9.001307130943625792e-03
2.551999999999999957e+01,1.260155700929353924e-02
2.555999999999999872e+01,1.420037957824363956e-02
2.560000000000000142e+01,8.194467304329280943e-03
2.564000000000000057e+01,1.793093307403637732e-02
2.567999999999999972e+01,2.259749272775098128e-02
2.571999999999999886e+01,2.005955269937587798e-02
2.576000000000000156e+01,1.511915639415023493e-03
2.580000000000000071e+01,1.458269220592563718e-02
2.583999999999999986e+01,2.084920425112130396e-02
2.587999999999999901e+01,2.378016538695961607e-02
2.592000000000000171e+01,1.657155939896410093e-02
2.596000000000000085e+01,1.229776934718661979e-02
2.600000000000000000e+01,2.403317829167890551e-02
2.603999999999999915e+01,1.135392694963495777e-02
2.607999999999999829e+01,2.669096070315910355e-02
2.612000000000000099e+01,1.948110251867906512e-02
2.616000000000000014e+01,2.454490379012669657e-02
2.619999999999999929e+01,1.386582827181749057e-02
2.623999999999999844e+01,2.119713075233938329e-02
2.628000000000000114e+01,1.665450592665617888e-02
2.632000000000000028e+01,1.411280930882767397e-02
2.635999999999999943e+01,1.557322167846372091e-02
2.639999999999999858e+01,1.396490266975181256e-02
2.644000000000000128e+01,1.502457118100533964e-02
2.648000000000000043e+01,1.608398534345501299e-02
2.651999999999999957e+01,1.487513951533536716e-02
2.655999999999999872e+01,4.994253709174108907e-03
2.660000000000000142e+01,1.352397893016022042e-02
2.664000000000000057e+01,3.375757787187123708e-03
2.667999999999999972e+01,7.102136387830877001e-03
2.671999999999999886e+01,1.749886229061113282e-02
2.676000000000000156e+01,1.388706341158207729e-02
2.680000000000000071e+01,1.321007300516670660e-02
2.683999999999999986e+01,1.786930807797881479e-02
2.687999999999999901e+01,1.052119843777218726e-02
2.692000000000000171e+01,6.641544506621961490e-03
2.696000000000000085e+01,4.762813096770728873e-03
2.700000000000000000e+01,1.609161820891872458e-02
2.703999999999999915e+01,1.541307718640889252e-02
2.707999999999999829e+01,1.246627119759367158e-02
2.712000000000000099e+01,1.392180367046211113e-02
2.716000000000000014e+01,1.324248254187378356e-02
2.719999999999999929e+01,2.230198219086854464e-02
2.723999999999999844e+01,1.481812335544577773e-02
2.728000000000000114e+01,1.333754646808340237e-02
2.732000000000000028e+01,7.854345498273667542e-03
2.735999999999999943e+01,6.506656706353247145e-03
2.739999999999999858e+01,5.558941618209202115e-03
2.744000000000000128e+01,2.076134213736265111e-03
2.748000000000000043e+01,1.180085906634584930e-02
2.751999999999999957e+01,4.848810871001645213e-03
2.755999999999999872e+01,1.790831008098727611e-02
2.760000000000000142e+01,9.755024959488630201e-03
2.764000000000000057e+01,6.270897830683075380e-03
2.767999999999999972e+01,2.119445312442028596e-03
2.771999999999999886e+01,1.624518179420815847e-02
2.776000000000000156e+01,1.316049479289031938e-02
2.780000000000000071e+01,8.074360579227966850e-03
2.783999999999999986e+01,1.606234334829253693e-02
2.787999999999999901e+01,1.271003289743497314e-02
2.792000000000000171e+01,8.290158697679583105e-03
2.796000000000000085e+01,6.404846436651888755e-03
2.800000000000000000e+01,1.105645802898147338e-02
2.803999999999999915e+01,4.901423282421794522e-03
2.807999999999999829e+01,1.995864000187725154e-02
2.812000000000000099e+01,1.740519381255725001e-02
2.816000000000000014e+01,9.381583244837919666e-03
2.819999999999999929e+01,6.827598148083429894e-03
2.823999999999999844e+01,6.712170214616897329e-04
2.828000000000000114e+01,5.181089576572619560e-04
2.832000000000000028e+01,7.035333979600309241e-03
2.835999999999999943e+01,1.995606758054506435e-02
2.839999999999999858e+01,1.579978408751822258e-02
2.844000000000000128e+01,2.838031836524541884e-03
2.848000000000000043e+01,1.322312070813622814e-02
2.851999999999999957e+01,1.040014161391848366e-02
2.855999999999999872e+01,8.777598370602886224e-03
2.860000000000000142e+01,1.395879780083451004e-02
2.864000000000000057e+01,2.287526180884033589e-02
2.867999999999999972e+01,8.310926602943668681e-03
2.871999999999999886e+01,9.622354149787459843e-03
2.876000000000000156e+01,2.661958398058486639e-03
2.880000000000000071e+01,6.375344834765628603e-04
2.883999999999999986e+01,1.262110319605420396e-02
2.887999999999999901e+01,1.393143018180640486e-02
2.892000000000000171e+01,9.663890422880095808e-04
2.896000000000000085e+01,1.134818476045830644e-02
2.900000000000000000e+01,1.359156712326543143e-02
2.903999999999999915e+01,1.730220522339391553e-02
2.907999999999999829e+01,1.767726398138690438e-02
2.912000000000000099e+01,1.791863285786601118e-02
2.916000000000000014e+01,3.617807325280321135e-03
2.919999999999999929e+01,8.127805945213716424e-03
2.923999999999999844e+01,8.501751347364911240e-03
2.928000000000000114e+01,2.101591640781704309e-02
2.932000000000000028e+01,2.352389621027655905e-02
2.935999999999999943e+01,1.495839379398996097e-02
2.939999999999999858e+01,1.546463222941170564e-02
2.944000000000000128e+01,1.196822774567048338e-02
2.948000000000000043e+01,1.220708037609920596e-02
2.951999999999999957e+01,1.151176711690900419e-02
2.955999999999999872e+01,3.345095904959330315e-03
2.960000000000000142e+01,1.412265736709951251e-02
2.964000000000000057e+01,2.730135376509091813e-02
2.967999999999999972e+01,2.193548886365184400e-02
2.971999999999999886e+01,1.550204421987712647e-02
2.976000000000000156e+01,2.174246327215860128e-02
2.980000000000000071e+01,1.437456675849541413e-02
2.983999999999999986e+01,3.048691135917489664e-02
2.987999999999999901e+01,1.711490267860121817e-02
2.992000000000000171e+01,2.375442043418337160e-02
2.996000000000000085e+01,2.252234045590492326e-02
3.000000000000000000e+01,2.449186466879802945e-02
3.003999999999999915e+01,2.646110290142155569e-02
3.007999999999999829e+01,3.349971367374880021e-02
3.012000000000000099e+01,2.586270943150982549e-02
3.016000000000000014e+01,2.889838419621005780e-02
3.019999999999999929e+01,3.927143572074044686e-02
3.023999999999999844e+01,5.231244100131214603e-02
3.028000000000000114e+01,5.374630758604206221e-02
3.032000000000000028e+01,6.625308798307621982e-02
3.035999999999999943e+01,6.808661350312504579e-02
3.039999999999999858e+01,7.445586041692787982e-02
3.044000000000000128e+01,9.149778384980186696e-02
3.048000000000000043e+01,8.319112301598408088e-02
3.051999999999999957e+01,9.489598328717620268e-02
3.055999999999999872e+01,1.005970095527134595e-01
3.060000000000000142e+01,1.161702384616750960e-01
3.064000000000000057e+01,1.176014960384159092e-01
3.067999999999999972e+01,1.290383676234296839e-01
3.071999999999999886e+01,1.141927682796174404e-01
3.076000000000000156e+01,1.209596328163724671e-01
3.080000000000000071e+01,1.021110860918220120e-01
3.083999999999999986e+01,1.036742938560075156e-01
3.087999999999999901e+01,9.696565948490477871e-02
3.092000000000000171e+01,9.759439547625707589e-02
3.096000000000000085e+01,8.047903124907543337e-02
3.100000000000000000e+01,7.537045932190855613e-02
3.103999999999999915e+01,6.399122497283406263e-02
3.107999999999999829e+01,5.808159050522409411e-02
3.112000000000000099e+01,3.589538722978902890e-02
3.116000000000000014e+01,5.613392808502801201e-02
3.119999999999999929e+01,4.862246091417661564e-02
3.123999999999999844e+01,4.818153711116644061e-02
3.128000000000000114e+01,3.666711402974329875e-02
3.132000000000000028e+01,2.515239359493932209e-02
3.135999999999999943e+01,3.178141774218935095e-02
3.139999999999999858e+01,3.280683664718419407e-02
3.144000000000000128e+01,2.796182580317808572e-02
3.148000000000000043e+01,2.765252675686343323e-02
3.151999999999999957e+01,1.546925384566954359e-02
3.155999999999999872e+01,1.876148222612154803e-02
3.160000000000000142e+01,1.618327943593374924e-02
3.164000000000000057e+01,7.334408892692476957e-03
3.167999999999999972e+01,1.369421442353196787e-02
3.171999999999999886e+01,1.871959829021364874e-02
3.176000000000000156e+01,1.640701673226884275e-02
3.180000000000000071e+01,2.249909432310890495e-02
3.183999999999999986e+01,6.444465379357873155e-03
3.187999999999999901e+01,2.347572887214761581e-02
3.192000000000000171e+01,1.822687304385881696e-02
3.196000000000000085e+01,1.204382964595775499e-02
3.200000000000000000e+01,1.386520739278900884e-02
3.203999999999999915e+01,3.812606654414559502e-03
3.207999999999999829e+01,1.283762863039488583e-02
3.211999999999999744e+01,1.705951142075274457e-02
3.215999999999999659e+01,1.914649618343793741e-02
3.220000000000000284e+01,7.891968206930803295e-03
3.224000000000000199e+01,1.131246302609637162e-02
3.228000000000000114e+01,1.233123460002414316e-02
3.232000000000000028e+01,1.828594673504293708e-02
3.235999999999999943e+01,8.097491120203094070e-03
3.239999999999999858e+01,1.124993612271729150e-02
3.243999999999999773e+01,1.026629947467105897e-02
3.247999999999999687e+01,2.878575534299135288e-03
3.252000000000000313e+01,1.363458586909917052e-02
3.256000000000000227e+01,1.625215121707036803e-02
3.260000000000000142e+01,1.073127122280300577e-02
3.264000000000000057e+01,1.134703762736072145e-02
3.267999999999999972e+01,1.463073610796635296e-02
3.271999999999999886e+01,1.017622440710820586e-02
3.275999999999999801e+01,1.479342370354131721e-02
3.279999999999999716e+01,2.061102117744553763e-02
3.284000000000000341e+01,2.042476438734042860e-02
3.288000000000000256e+01,1.943772392886726832e-02
3.292000000000000171e+01,1.591554246293267610e-02
3.296000000000000085e+01,1.439423020683813087e-02
3.300000000000000000e+01,8.870243400114953200e-03
3.303999999999999915e+01,1.001654774079144966e-02
3.307999999999999829e+01,6.893352668683966865e-03
3.311999999999999744e+01,7.772206519797170837e-03
3.315999999999999659e+01,1.091875195503767305e-02
3.320000000000000284e+01,8.194852003249342501e-03
3.324000000000000199e+01,2.054620218889442740e-02
3.328000000000000114e+01,1.395272286122961440e-02
3.332000000000000028e+01,1.549706502544417712e-02
3.335999999999999943e+01,2.144369020742496745e-02
3.339999999999999858e+01,1.591656104727330601e-02
3.343999999999999773e+01,2.384391156946787625e-03
3.347999999999999687e+01,1.086489720633010587e-02
3.352000000000000313e+01,1.294130672273477965e-02
3.356000000000000227e+01,2.476663870024289199e-03
3.360000000000000142e+01,1.322422343678654466e-02
3.364000000000000057e+01,1.383214728563772998e-02
3.367999999999999972e+01,1.230515960124667872e-02
3.371999999999999886e+01,9.977380784883265255e-03
3.375999999999999801e+01,8.316343313485590263e-03
3.379999999999999716e+01,7.848551239131352792e-04
3.384000000000000341e+01,1.073002910265178668e-02
3.388000000000000256e+01,1.053556523102100115e-02
3.392000000000000171e+01,6.605242785673823627e-03
3.396000000000000085e+01,9.478615388970566824e-03
3.400000000000000000e+01,1.688767739914596999e-02
3.403999999999999915e+01,8.420380883590115884e-03
3.407999999999999829e+01,1.462809081485950957e-02
3.411999999999999744e+01,2.550490116244631331e-02
3.415999999999999659e+01,1.556910511835761166e-02
3.420000000000000284e+01,7.634167266407392537e-03
3.424000000000000199e+01,1.103893254794412020e-02
3.428000000000000114e+01,1.150830851108484293e-02
3.432000000000000028e+01,1.211077254078318267e-02
3.435999999999999943e+01,8.710549935922204043e-03
3.439999999999999858e+01,9.045540729834728594e-03
3.443999999999999773e+01,2.112046910718953091e-02
3.447999999999999687e+01,1.491761768728254271e-02
3.452000000000000313e+01,1.311703897825973637e-02
3.456000000000000227e+01,1.038224959799244167e-02
3.460000000000000142e+01,1.271679259612972998e-02
3.464000000000000057e+01,1.718560195256651352e-02
3.467999999999999972e+01,2.031996334452565445e-02
3.471999999999999886e+01,1.238079489283526111e-02
3.475999999999999801e+01,2.085098382968846378e-02
3.479999999999999716e+01,2.385094939012760012e-02
3.484000000000000341e+01,2.991906406149345832e-02
3.488000000000000256e+01,2.958307011594992625e-02
3.492000000000000171e+01,2.951357098148617297e-02
3.496000000000000085e+01,3.344610442139565182e-02
3.500000000000000000e+01,5.205363613370669884e-02
3.503999999999999915e+01,4.557936721395305923e-02
3.507999999999999829e+01,5.418033208278543594e-02
3.511999999999999744e+01,5.877860356427366123e-02
3.515999999999999659e+01,6.444384017839112355e-02
3.520000000000000284e+01,8.411701290952165733e-02
3.524000000000000199e+01,9.378394778201995519e-02
3.528000000000000114e+01,1.337350912922048163e-01
3.532000000000000028e+01,1.674155343516413597e-01
3.535999999999999943e+01,2.264439385382298608e-01
3.539999999999999858e+01,2.631921924830936121e-01
3.543999999999999773e+01,3.426319766811267153e-01
3.547999999999999687e+01,4.192697729741398094e-01
3.552000000000000313e+01,4.676238745541401731e-01
3.556000000000000227e+01,4.970331263624762075e-01
3.560000000000000142e+01,5.029615174710271308e-01
3.564000000000000057e+01,4.930135358374576060e-01
3.567999999999999972e+01,4.433084195617906231e-01
3.571999999999999886e+01,3.933361426863368204e-01
3.575999999999999801e+01,3.340246837102643362e-01
3.579999999999999716e+01,2.780481894666209097e-01
3.584000000000000341e+01,2.255400716756650048e-01
3.588000000000000256e+01,1.911756583054639302e-01
3.592000000000000171e+01,1.580116153907752674e-01
3.596000000000000085e+01,1.265815908788611444e-01
3.600000000000000000e+01,9.888676554933144291e-02
3.603999999999999915e+01,9.227070888361316170e-02
3.607999999999999829e+01,7.364722576063886805e-02
3.611999999999999744e+01,6.943190680725780384e-02
3.615999999999999659e+01,6.695060447960264616e-02
3.620000000000000284e+01,6.246778030356038569e-02
3.624000000000000199e+01,5.238130788068595667e-02
3.628000000000000114e+01,4.949874611969520138e-02
3.632000000000000028e+01,4.554854597376400277e-02
3.635999999999999943e+01,3.345986707707993002e-02
3.639999999999999858e+01,2.804144947337847832e-02
3.643999999999999773e+01,3.049400148826168083e-02
3.647999999999999687e+01,3.414691898292104844e-02
3.652000000000000313e+01,3.473101518057172821e-02
3.656000000000000227e+01,2.584251009374114588e-02
3.660000000000000142e+01,2.402450074984848263e-02
3.664000000000000057e+01,3.381299736619513413e-02
3.667999999999999972e+01,3.346183125349148219e-02
3.671999999999999886e+01,2.964160583972652585e-02
3.675999999999999801e+01,2.568762266118992249e-02
3.679999999999999716e+01,2.119964513546807039e-02
3.684000000000000341e+01,2.084709555553028795e-02
3.688000000000000256e+01,2.729821507932637947e-02
3.692000000000000171e+01,2.707838370898115604e-02
3.696000000000000085e+01,2.272243052677642636e-02
3.700000000000000000e+01,2.503673330640836941e-02
3.703999999999999915e+01,2.975210527109211148e-02
3.707999999999999829e+01,3.033135435768716595e-02
3.711999999999999744e+01,2.090434888139290279e-02
3.715999999999999659e+01,2.641914663671087946e-02
3.720000000000000284e+01,2.086039251297628488e-02
3.724000000000000199e+01,2.530719411031941146e-02
3.728000000000000114e+01,2.801928841454876321e-02
3.732000000000000028e+01,3.660116338332917302e-02
3.735999999999999943e+01,4.451562695352011267e-02
3.739999999999999858e+01,4.415819045663727654e-02
3.743999999999999773e+01,5.567407696313526194e-02
3.747999999999999687e+01,7.252609440987346778e-02
3.752000000000000313e+01,7.910502958828911912e-02
3.756000000000000227e+01,1.202373395674120882e-01
3.760000000000000142e+01,1.604354118641512783e-01
3.764000000000000057e+01,1.974312408367414062e-01
3.767999999999999972e+01,2.485683959666095399e-01
3.771999999999999886e+01,2.806272700570200951e-01
3.775999999999999801e+01,2.751969963103828576e-01
3.779999999999999716e+01,2.696329555583210635e-01
3.784000000000000341e+01,2.523282968623112854e-01
3.788000000000000256e+01,2.143444107971893275e-01
3.792000000000000171e+01,1.816966517628006150e-01
3.796000000000000085e+01,1.470473552419968299e-01
3.800000000000000000e+01,1.230706680678258363e-01
3.803999999999999915e+01,1.036296344041510581e-01
3.807999999999999829e+01,9.099225918191834739e-02
3.811999999999999744e+01,9.222938205612066231e-02
3.815999999999999659e+01,6.571643506294004566e-02
3.820000000000000284e+01,5.948176508743782676e-02
3.824000000000000199e+01,5.458085702935177447e-02
3.828000000000000114e+01,4.861229317124866889e-02
3.832000000000000028e+01,3.904124372002718002e-02
3.835999999999999943e+01,3.814161928173137595e-02
3.839999999999999858e+01,3.057103079913434801e-02
3.843999999999999773e+01,3.020433378629574714e-02
3.847999999999999687e+01,2.516785315335611298e-02
3.852000000000000313e+01,2.680161497668357568e-02
3.856000000000000227e+01,2.163099925840298102e-02
3.860000000000000142e+01,2.713298755560924688e-02
3.864000000000000057e+01,2.623083382739191047e-02
3.867999999999999972e+01,3.119844867979490802e-02
3.871999999999999886e+01,2.362496531522796650e-02
3.875999999999999801e+01,2.485631548515738337e-02
3.879999999999999716e+01,2.208493957004783320e-02
3.884000000000000341e+01,2.931910515962692435e-02
3.888000000000000256e+01,3.388466471002733738e-02
3.892000000000000171e+01,2.297405860171371911e-02
3.896000000000000085e+01,1.820004273748832002e-02
3.900000000000000000e+01,1.996285298894535931e-02
3.903999999999999915e+01,2.599448371431945307e-02
3.907999999999999829e+01,1.868454057002829488e-02
3.911999999999999744e+01,2.578273493960083623e-02
3.915999999999999659e+01,2.687701889042724834e-02
3.920000000000000284e+01,1.956597470507422457e-02
3.924000000000000199e+01,1.932540280561716520e-02
3.928000000000000114e+01,2.268658886927893761e-02
3.932000000000000028e+01,3.245118612967733129e-02
3.935999999999999943e+01,2.820714665420248277e-02
3.939999999999999858e+01,2.929922105930097068e-02
3.943999999999999773e+01,2.999068973584021608e-02
3.947999999999999687e+01,3.241614553909803048e-02
3.952000000000000313e+01,3.377393452463719331e-02
3.956000000000000227e+01,4.006759974210689912e-02
3.960000000000000142e+01,4.689454233905426817e-02
3.964000000000000057e+01,4.665027364699493584e-02
3.967999999999999972e+01,4.787316615326964175e-02
3.971999999999999886e+01,3.842272061668288580e-02
3.975999999999999801e+01,5.031783484213895458e-02
3.979999999999999716e+01,5.340737937326574952e-02
3.984000000000000341e+01,6.716951690217791426e-02
3.988000000000000256e+01,6.278723872918315352e-02
3.992000000000000171e+01,8.575406230165114052e-02
3.996000000000000085e+01,9.884801815280719328e-02
4.000000000000000000e+01,1.126086599050115933e-01
4.003999999999999915e+01,1.273028113541905537e-01
4.007999999999999829e+01,1.636093438734704530e-01
4.011999999999999744e+01,2.003157370762335410e-01
4.015999999999999659e+01,2.606356917732977618e-01
4.020000000000000284e+01,3.382988400528585959e-01
4.024000000000000199e+01,4.454456804452919805e-01
4.028000000000000114e+01,5.521919076455618081e-01
4.032000000000000028e+01,6.678763665950163686e-01
4.035999999999999943e+01,8.205155928285211564e-01
4.039999999999999858e+01,9.124519466017085856e-01
4.043999999999999773e+01,9.795732759138539025e-01
4.047999999999999687e+01,1.000000000000000000e+00
4.052000000000000313e+01,9.611913833919473182e-01
4.056000000000000227e+01,8.690175570636767821e-01
4.060000000000000142e+01,7.457583372963306756e-01
4.064000000000000057e+01,6.242330943488211270e-01
4.067999999999999972e+01,5.211183373242351813e-01
4.071999999999999886e+01,4.128001284739316601e-01
4.075999999999999801e+01,3.343658433431780930e-01
4.079999999999999716e+01,2.659370823020366092e-01
4.084000000000000341e+01,2.248574148319341937e-01
4.088000000000000256e+01,1.704361574987287298e-01
4.092000000000000171e+01,1.368268013180121145e-01
4.096000000000000085e+01,1.200269836643353544e-01
4.100000000000000000e+01,1.037604309507958317e-01
4.103999999999999915e+01,8.415819262761248254e-02
4.107999999999999829e+01,7.576218458718483872e-02
4.111999999999999744e+01,6.696555589098938943e-02
4.115999999999999659e+01,5.870219071329223909e-02
4.120000000000000284e+01,5.564151134706279284e-02
4.124000000000000199e+01,5.631598460454356053e-02
4.128000000000000114e+01,4.364886444482404121e-02
4.132000000000000028e+01,3.818561016536265590e-02
4.135999999999999943e+01,4.299469915111309160e-02
4.139999999999999858e+01,4.019891290715696397e-02
4.143999999999999773e+01,3.193284428877223025e-02
4.147999999999999687e+01,3.607371108005767713e-02
4.152000000000000313e+01,3.020828421338386111e-02
4.156000000000000227e+01,3.154672109450980949e-02
4.160000000000000142e+01,2.728146210390023155e-02
4.164000000000000057e+01,2.368287444254017077e-02
4.167999999999999972e+01,2.915591852210234688e-02
4.171999999999999886e+01,2.395560678831675644e-02
4.175999999999999801e+01,3.262976080868101869e-02
4.179999999999999716e+01,2.529407527815908871e-02
4.184000000000000341e+01,2.129330081319753820e-02
4.188000000000000256e+01,1.489071780466373271e-02
4.192000000000000171e+01,1.996118176661737867e-02
4.196000000000000085e+01,2.396395723085905857e-02
4.200000000000000000e+01,2.102891251258818053e-02
4.203999999999999915e+01,2.809938086622779801e-02
4.207999999999999829e+01,2.089436416479684491e-02
4.211999999999999744e+01,1.515648698170646985e-02
4.215999999999999659e+01,2.182553916632104865e-02
4.220000000000000284e+01,2.062288486169855384e-02
4.224000000000000199e+01,1.848595164716402423e-02
4.228000000000000114e+01,1.408061841062794792e-02
4.232000000000000028e+01,1.541160933675910123e-02
4.235999999999999943e+01,1.193937009237777160e-02
4.239999999999999858e+01,1.713851996453963702e-02
4.243999999999999773e+01,1.233136800431852351e-02
4.247999999999999687e+01,1.219324217978195665e-02
4.252000000000000313e+01,2.206062516223914957e-02
4.256000000000000227e+01,1.271627202499395030e-02
4.260000000000000142e+01,1.004212509222372242e-02
4.264000000000000057e+01,1.497206853819452177e-02
4.267999999999999972e+01,1.269736160835149494e-02
4.271999999999999886e+01,2.282957907047710941e-02
4.275999999999999801e+01,1.201570165216802981e-02
4.279999999999999716e+01,8.011886508825929272e-04
4.284000000000000341e+01,5.328900867036093225e-03
4.288000000000000256e+01,1.599316849712457272e-02
4.292000000000000171e+01,1.545042134890154892e-02
4.296000000000000085e+01,1.650821833108289532e-02
4.300000000000000000e+01,2.236844890429034657e-02
4.303999999999999915e+01,1.088470815223022831e-02
4.307999999999999829e+01,1.981261313352979114e-02
4.311999999999999744e+01,5.659826825019510788e-03
4.315999999999999659e+01,7.382674966338273817e-03
4.320000000000000284e+01,6.970526986899769697e-03
4.324000000000000199e+01,1.042692593635310278e-02
4.328000000000000114e+01,1.081444352455390202e-02
4.332000000000000028e+01,1.106814506078786231e-02
4.335999999999999943e+01,9.053436978957683789e-03
4.339999999999999858e+01,2.102077410294107222e-03
4.343999999999999773e+01,1.316094301427911048e-02
4.347999999999999687e+01,4.341003945798089549e-03
4.352000000000000313e+01,1.019598744744680020e-02
4.356000000000000227e+01,1.071408181361932326e-02
4.360000000000000142e+01,1.283271462364060124e-02
4.364000000000000057e+01,8.813985133358353749e-03
4.367999999999999972e+01,1.546781452152770631e-02
4.371999999999999886e+01,1.758522580658978055e-02
4.375999999999999801e+01,9.162675228075983780e-03
4.379999999999999716e+01,1.181291868878851618e-02
4.384000000000000341e+01,1.593028638522347301e-02
4.388000000000000256e+01,1.777923984326783280e-02
4.392000000000000171e+01,1.389106474014453925e-02
4.396000000000000085e+01,8.268122990483059431e-03
4.400000000000000000e+01,8.648314627616216638e-03
4.403999999999999915e+01,7.827387210063662532e-03
4.407999999999999829e+01,1.741219096552953927e-02
4.411999999999999744e+01,1.392220022104042297e-02
4.415999999999999659e+01,9.497913506972422565e-03
4.420000000000000284e+01,1.134358255398636856e-02
4.424000000000000199e+01,1.705778964464898378e-02
4.428000000000000114e+01,1.516709591610477734e-02
4.432000000000000028e+01,1.194186856933877189e-02
4.435999999999999943e+01,1.431953518367594380e-02
4.439999999999999858e+01,7.091118777557483231e-03
4.443999999999999773e+01,1.680562205350060595e-02
4.447999999999999687e+01,1.104391026877771069e-02
4.452000000000000313e+01,7.149552904815778716e-03
4.456000000000000227e+01,4.989137530537181286e-03
4.460000000000000142e+01,1.016597096858705244e-02
4.464000000000000057e+01,0.000000000000000000e+00
4.467999999999999972e+01,1.037907262405150279e-02
4.471999999999999886e+01,7.683345417002140562e-03
4.475999999999999801e+01,1.045709654129077515e-02
4.479999999999999716e+01,5.892766377382029942e-03
4.484000000000000341e+01,5.463793077312030684e-03
4.488000000000000256e+01,7.569231377655348016e-03
4.492000000000000171e+01,8.073306577295030068e-03
4.496000000000000085e+01,1.498074286089986183e-02
4.500000000000000000e+01,1.228209079290311541e-02
4.503999999999999915e+01,1.105055229833701996e-02
4.507999999999999829e+01,8.084237205760385486e-03
4.511999999999999744e+01,8.986452337818450972e-03
4.515999999999999659e+01,1.095554375007404269e-02
4.520000000000000284e+01,7.054083152382702865e-03
4.524000000000000199e+01,5.420206805081238116e-03
4.528000000000000114e+01,1.018968869846708682e-02
4.532000000000000028e+01,1.068956242369251998e-02
4.535999999999999943e+01,1.038854159271518883e-02
4.539999999999999858e+01,1.088757075814106648e-02
4.543999999999999773e+01,1.245347371589637653e-02
4.547999999999999687e+01,1.588672256457919485e-02
4.552000000000000313e+01,1.371624071137329468e-02
4.556000000000000227e+01,1.314627988693949957e-02
4.560000000000000142e+01,1.244248275218447740e-02
4.564000000000000057e+01,1.534038707040174219e-02
4.567999999999999972e+01,1.903833889715412023e-02
4.571999999999999886e+01,1.192948729391807468e-02
4.575999999999999801e+01,2.229719194689454634e-02
4.579999999999999716e+01,2.252515283740301466e-02
4.584000000000000341e+01,1.528161112339324577e-02
4.588000000000000256e+01,2.044496572398379550e-02
4.592000000000000171e+01,1.960434984158436131e-02
4.596000000000000085e+01,1.329341142345710595e-02
4.600000000000000000e+01,1.725477504301339837e-02
4.603999999999999915e+01,1.494534296201457772e-02
4.607999999999999829e+01,1.757172918116084448e-02
4.611999999999999744e+01,1.312684653492469412e-02
4.615999999999999659e+01,1.895426450473313568e-02
4.620000000000000284e+01,1.731017667133583418e-02
4.624000000000000199e+01,1.139647249535441845e-02
4.628000000000000114e+01,1.282000220449297512e-02
4.632000000000000028e+01,1.224192014658355421e-02
4.635999999999999943e+01,8.995165587876536792e-03
4.639999999999999858e+01,1.041740233470083571e-02
4.643999999999999773e+01,1.637521795597870339e-02
4.647999999999999687e+01,8.857981881123874399e-03
4.652000000000000313e+01,1.228010360196597588e-02
4.656000000000000227e+01,1.556838048265336664e-02
4.660000000000000142e+01,1.125173593036974708e-02
4.664000000000000057e+01,7.068069978447910975e-03
4.667999999999999972e+01,1.048845850888476330e-02
4.671999999999999886e+01,1.164040756684040639e-02
4.675999999999999801e+01,9.456620191561300459e-03
4.679999999999999716e+01,9.540403205692681021e-03
4.684000000000000341e+01,1.722823928054382364e-02
4.688000000000000256e+01,6.371361229781938133e-03
4.692000000000000171e+01,9.255491009647178260e-03
4.696000000000000085e+01,1.133871201692058552e-02
4.700000000000000000e+01,1.248761182052446871e-02
4.703999999999999915e+01,8.833239870677781283e-03
4.707999999999999829e+01,1.451727583277617577e-02
4.711999999999999744e+01,1.166250121190127477e-02
4.715999999999999659e+01,9.874585100737518981e-03
4.720000000000000284e+01,1.862578451630146972e-02
4.724000000000000199e+01,1.430216170995180121e-02
4.728000000000000114e+01,1.211269295242789652e-02
4.732000000000000028e+01,1.259102619099197046e-02
4.735999999999999943e+01,7.865848605823741804e-03
4.739999999999999858e+01,7.943065516611650181e-03
4.743999999999999773e+01,1.068808335725834197e-02
4.747999999999999687e+01,7.429116853935708968e-03
4.752000000000000313e+01,9.105955856007992566e-03
4.756000000000000227e+01,1.278353434337001389e-02
4.760000000000000142e+01,1.165783610154530296e-02
4.764000000000000057e+01,1.066510757483922316e-02
4.767999999999999972e+01,9.938760483510005947e-03
4.771999999999999886e+01,1.174679975850351568e-02
4.775999999999999801e+01,1.502192843906623686e-02
4.779999999999999716e+01,1.336036653772562817e-02
4.784000000000000341e+01,1.063106389344323395e-02
4.788000000000000256e+01,1.230391525319630627e-02
4.792000000000000171e+01,7.572542132469151782e-03
4.796000000000000085e+01,1.231298118034104307e-02
4.800000000000000000e+01,3.178118799506665908e-03
4.803999999999999915e+01,4.982600708799618180e-03
4.807999999999999829e+01,5.162687916414085247e-04
4.811999999999999744e+01,2.720094032415871360e-03
4.815999999999999659e+01,1.146066400004530465e-02
4.820000000000000284e+01,1.112876548596691655e-02
4.824000000000000199e+01,7.727941539829869498e-03
4.828000000000000114e+01,1.259821823800229799e-02
4.832000000000000028e+01,1.573368954997633393e-02
4.835999999999999943e+01,1.646729474200239046e-02
4.839999999999999858e+01,1.786751119903419102e-02
4.843999999999999773e+01,4.325125712508915560e-03
4.847999999999999687e+01,6.124679103647095307e-03
4.852000000000000313e+01,4.588480423522644722e-03
4.856000000000000227e+01,1.078973159716761603e-02
4.860000000000000142e+01,1.298816961039056875e-02
4.864000000000000057e+01,1.185085448612164909e-02
4.867999999999999972e+01,1.084649983631841980e-02
4.871999999999999886e+01,1.237652266759477898e-02
4.875999999999999801e+01,1.190491205182983049e-02
4.879999999999999716e+01,1.556862311434064304e-02
4.884000000000000341e+01,1.096033246259588145e-02
4.888000000000000256e+01,1.408948882134277748e-02
4.892000000000000171e+01,1.535042238707743159e-02
4.896000000000000085e+01,1.207489129103061359e-02
4.900000000000000000e+01,1.053326273418739474e-02
4.903999999999999915e+01,1.125918466380997594e-02
4.907999999999999829e+01,1.878866729719976675e-02
4.911999999999999744e+01,1.270966270174687072e-02
4.915999999999999659e+01,1.530198715859339316e-02
4.920000000000000284e+01,1.175689991318436267e-02
4.924000000000000199e+01,9.545476847516666877e-03
4.928000000000000114e+01,1.760632667593490380e-02
4.932000000000000028e+01,1.219209957412980931e-02
4.935999999999999943e+01,1.278095823421597672e-02
4.939999999999999858e+01,9.900644928357467400e-03
4.943999999999999773e+01,1.542483403559432968e-02
4.947999999999999687e+01,1.534525725537945820e-02
4.952000000000000313e+01,1.339745235100645721e-02
4.956000000000000227e+01,2.318945068519903327e-02
4.960000000000000142e+01,1.176846921255758453e-02
4.964000000000000057e+01,1.302117479733811561e-02
4.967999999999999972e+01,1.934307877105624282e-02
4.971999999999999886e+01,1.552520415215316585e-02
4.975999999999999801e+01,8.104742292949900298e-03
4.979999999999999716e+01,9.088779648154439797e-03
4.984000000000000341e+01,7.804349808919085717e-03
4.988000000000000256e+01,1.359029771659236129e-02
4.992000000000000171e+01,9.503289405931741179e-03
4.996000000000000085e+01,8.350883785653068561e-03
5.000000000000000000e+01,5.330245776299485580e-03
5.003999999999999915e+01,2.152048297800136442e-02
5.007999999999999829e+01,1.249537383791330530e-02
5.011999999999999744e+01,1.440959050664675570e-02
5.015999999999999659e+01,2.099276507239723408e-02
5.020000000000000284e+01,1.850345338595352565e-02
5.024000000000000199e+01,2.148357133971522809e-02
5.028000000000000114e+01,1.632508686013911178e-02
5.032000000000000028e+01,1.570214678027313793e-02
5.035999999999999943e+01,1.054272959928524711e-02
5.039999999999999858e+01,1.698969611759065801e-02
5.043999999999999773e+01,1.222958104055597676e-02
5.047999999999999687e+01,2.054338178434286788e-02
5.052000000000000313e+01,2.352023155136112251e-02
5.056000000000000227e+01,1.875871262417739410e-02
5.060000000000000142e+01,1.599790617114416752e-02
5.064000000000000057e+01,2.310912430126224951e-02
5.067999999999999972e+01,2.261538474661716272e-02
5.071999999999999886e+01,2.225458754054176688e-02
5.075999999999999801e+01,2.856392403535707239e-02
5.079999999999999716e+01,2.273229120646888188e-02
5.084000000000000341e+01,3.157551590773047256e-02
5.088000000000000256e+01,3.481496228219986555e-02
5.092000000000000171e+01,4.098900281721778310e-02
5.096000000000000085e+01,3.715666581758091808e-02
5.100000000000000000e+01,3.719280679734891792e-02
5.103999999999999915e+01,4.389907899013955478e-02
5.107999999999999829e+01,4.766981259244889441e-02
5.111999999999999744e+01,4.170099138980048331e-02
5.115999999999999659e+01,4.587101430131286517e-02
5.120000000000000284e+01,4.096854207538791481e-02
5.124000000000000199e+01,3.766654041005391973e-02
5.128000000000000114e+01,4.343608518730773804e-02
5.132000000000000028e+01,4.146725451757480446e-02
5.135999999999999943e+01,3.656288276949248156e-02
5.139999999999999858e+01,3.432627676570599445e-02
5.143999999999999773e+01,2.928754104841863048e-02
5.147999999999999687e+01,3.118575678598287798e-02
5.152000000000000313e+01,2.187688133214434755e-02
5.156000000000000227e+01,3.057815890277987628e-02
5.160000000000000142e+01,3.154105853856059571e-02
5.164000000000000057e+01,2.756723347310417738e-02
5.167999999999999972e+01,2.559411128573564273e-02
5.171999999999999886e+01,2.828993313440476484e-02
5.175999999999999801e+01,2.658267751827949818e-02
5.179999999999999716e+01,1.940504747660636020e-02
5.184000000000000341e+01,1.876412946409331331e-02
5.188000000000000256e+01,2.439309897399469587e-02
5.192000000000000171e+01,1.854814958706013303e-02
5.196000000000000085e+01,2.030720776840027816e-02
5.200000000000000000e+01,1.993119163884330206e-02
5.203999999999999915e+01,1.675304046463954241e-02
5.207999999999999829e+01,1.690970937110612346e-02
5.211999999999999744e+01,1.693248403546600625e-02
5.215999999999999659e+01,1.922278146433297613e-02
5.220000000000000284e+01,2.004506318359403072e-02
5.224000000000000199e+01,2.019980129184729273e-02
5.228000000000000114e+01,1.875311090400720582e-02
5.232000000000000028e+01,2.824572677745366966e-02
5.235999999999999943e+01,2.879924928224869216e-02
5.239999999999999858e+01,2.708428184638136602e-02
5.243999999999999773e+01,2.963801582217263919e-02
5.247999999999999687e+01,3.886186821623636295e-02
5.252000000000000313e+01,3.300967033928292604e-02
5.256000000000000227e+01,4.356667169354466740e-02
5.260000000000000142e+01,5.252224170843523138e-02
5.264000000000000057e+01,6.227779739056849700e-02
5.267999999999999972e+01,6.923121234149930137e-02
5.271999999999999886e+01,7.658437602184940685e-02
5.275999999999999801e+01,7.379773409843906617e-02
5.279999999999999716e+01,7.981580096071098918e-02
5.284000000000000341e+01,9.103645021022005457e-02
5.288000000000000256e+01,8.931563920071201867e-02
5.292000000000000171e+01,8.199103173851578219e-02
5.296000000000000085e+01,7.266475351125688265e-02
5.300000000000000000e+01,7.441118757898718128e-02
5.303999999999999915e+01,5.734602863667056377e-02
5.307999999999999829e+01,5.348817448921126122e-02
5.311999999999999744e+01,4.949641721440205949e-02
5.315999999999999659e+01,4.203545456513391176e-02
5.320000000000000284e+01,3.590812091004411816e-02
5.324000000000000199e+01,3.565042646643411250e-02
5.328000000000000114e+01,2.952210822011240229e-02
5.332000000000000028e+01,2.792930771777132892e-02
5.335999999999999943e+01,2.726989856096575029e-02
5.339999999999999858e+01,1.713773849218396331e-02
5.343999999999999773e+01,2.421524228961125999e-02
5.347999999999999687e+01,2.368776352359449819e-02
5.352000000000000313e+01,2.049154863843903954e-02
5.356000000000000227e+01,2.116378898646597423e-02
5.360000000000000142e+01,1.796658382352296981e-02
5.364000000000000057e+01,1.170040524820817676e-02
5.367999999999999972e+01,1.864152613660484750e-02
5.371999999999999886e+01,1.877813478310697351e-02
5.375999999999999801e+01,2.251637273440688924e-02
5.379999999999999716e+01,1.878303735465291363e-02
5.384000000000000341e+01,1.771744603920147668e-02
5.388000000000000256e+01,1.598429654094342053e-02
5.392000000000000171e+01,1.184923152078535408e-02
5.396000000000000085e+01,1.625204082809153169e-02
5.400000000000000000e+01,1.318327502729519166e-02
5.403999999999999915e+01,1.024742207606121197e-02
5.407999999999999829e+01,1.424849747804654912e-02
5.411999999999999744e+01,1.411329859739960529e-02
5.415999999999999659e+01,1.878043414846493689e-02
5.420000000000000284e+01,1.090633393899608818e-02
5.424000000000000199e+01,1.183692972045936875e-02
5.428000000000000114e+01,1.343408452169848367e-02
5.432000000000000028e+01,1.796580327365932678e-02
5.435999999999999943e+01,1.129040560012687343e-02
5.439999999999999858e+01,2.089077873329414983e-02
5.443999999999999773e+01,1.794991397346889714e-02
5.447999999999999687e+01,1.434148569969113246e-02
5.452000000000000313e+01,1.073255393489106271e-02
5.456000000000000227e+01,1.165912889637001071e-02
5.460000000000000142e+01,1.191813927766729314e-02
5.464000000000000057e+01,2.458396813883475043e-02
5.467999999999999972e+01,1.777112903981656680e-02
5.471999999999999886e+01,1.682791600211832120e-02
5.475999999999999801e+01,1.508372488693152796e-02
5.479999999999999716e+01,1.734139006289351151e-02
5.484000000000000341e+01,1.226088474281672794e-02
5.488000000000000256e+01,1.705236633246019415e-02
5.492000000000000171e+01,1.690709407726897345e-02
5.496000000000000085e+01,1.702813857288434929e-02
5.500000000000000000e+01,1.648161493422076532e-02
5.503999999999999915e+01,1.366657789785286764e-02
5.507999999999999829e+01,8.049378805698897618e-03
5.511999999999999744e+01,1.750723544185788308e-02
5.515999999999999659e+01,1.789256175501660259e-02
5.520000000000000284e+01,1.427501626514837696e-02
5.524000000000000199e+01,1.359202655157812356e-02
5.528000000000000114e+01,1.584359225889619971e-02
5.532000000000000028e+01,1.329181264295026949e-02
5.535999999999999943e+01,2.074542774747583154e-02
5.539999999999999858e+01,1.352320321848783993e-02
5.543999999999999773e+01,1.497225194247214786e-02
5.547999999999999687e+01,1.548690411592482802e-02
5.552000000000000313e+01,8.396555600037417313e-03
5.556000000000000227e+01,1.558078644894811751e-02
5.560000000000000142e+01,1.049059324932010047e-02
5.564000000000000057e+01,1.994180285500664687e-02
5.567999999999999972e+01,1.591787902032337776e-02
5.571999999999999886e+01,2.096546217774817797e-02
5.575999999999999801e+01,9.202609292284289269e-03
5.579999999999999716e+01,2.025270648191047212e-02
5.584000000000000341e+01,1.129047710179712297e-02
5.588000000000000256e+01,2.020495028623931280e-02
5.592000000000000171e+01,1.591111204918921329e-02
5.596000000000000085e+01,8.548279786003207606e-03
5.600000000000000000e+01,1.959579732381544481e-02
5.603999999999999915e+01,1.329922802819901231e-02
5.607999999999999829e+01,1.353933308831167630e-02
5.611999999999999744e+01,1.364550836534490254e-02
5.615999999999999659e+01,1.815376407660017344e-02
5.620000000000000284e+01,1.812549079691345988e-02
5.624000000000000199e+01,1.863034704625798552e-02
5.628000000000000114e+01,2.220316190691560415e-02
5.632000000000000028e+01,1.697026028902684155e-02
5.635999999999999943e+01,2.067544790102263455e-02
5.639999999999999858e+01,1.891022021535192221e-02
5.643999999999999773e+01,1.581035122231223139e-02
5.647999999999999687e+01,1.364384585284942643e-02
5.652000000000000313e+01,1.120999507054195633e-02
5.656000000000000227e+01,1.611328683305468523e-02
5.660000000000000142e+01,1.261109585615689463e-02
5.664000000000000057e+01,1.284392067022449221e-02
5.667999999999999972e+01,1.574446431450402320e-02
5.671999999999999886e+01,1.384165019617910296e-02
5.675999999999999801e+01,1.687455948360225277e-02
5.679999999999999716e+01,1.070151180055831444e-02
5.684000000000000341e+01,1.880303210920119747e-02
5.688000000000000256e+01,1.382964454218632393e-02
5.692000000000000171e+01,1.619339632130410017e-02
5.696000000000000085e+01,1.882344708074214917e-02
5.700000000000000000e+01,1.745061004371554342e-02
5.703999999999999915e+01,1.794501618420544370e-02
5.707999999999999829e+01,1.497018212008313295e-02
5.711999999999999744e+01,1.079411278229444431e-02
5.715999999999999659e+01,1.422200480951604784e-02
5.720000000000000284e+01,1.391383141456027824e-02
5.724000000000000199e+01,1.320489413371681194e-02
5.728000000000000114e+01,1.409637374659559149e-02
5.732000000000000028e+01,1.405344046009527476e-02
5.735999999999999943e+01,9.073731648766928878e-03
5.739999999999999858e+01,1.623399264270168618e-02
5.743999999999999773e+01,1.485535135795358619e-02
5.747999999999999687e+01,1.320935613052741375e-02
5.752000000000000313e+01,1.236330321035727063e-02
5.756000000000000227e+01,1.258401639336930236e-02
5.760000000000000142e+01,1.293761079447800291e-02
5.764000000000000057e+01,1.342408605827365847e-02
5.767999999999999972e+01,1.857945240205769247e-02
5.771999999999999886e+01,1.546273813062673703e-02
5.775999999999999801e+01,1.354620026099735523e-02
5.779999999999999716e+01,1.483101957277945665e-02
5.784000000000000341e+01,1.504800928918805479e-02
5.788000000000000256e+01,1.993388830853637383e-02
5.792000000000000171e+01,1.521356417894140917e-02
5.796000000000000085e+01,1.436165618745883013e-02
5.800000000000000000e+01,1.604404322199919075e-02
5.803999999999999915e+01,1.225600038707427668e-02
5.807999999999999829e+01,1.407072960771631534e-02
5.811999999999999744e+01,1.508445089645272033e-02
5.815999999999999659e+01,1.076115332516264234e-02
5.820000000000000284e+01,1.497569240790576871e-02
5.824000000000000199e+01,1.251909116312317598e-02
5.828000000000000114e+01,1.099583754847974215e-02
5.832000000000000028e+01,1.654288668929263656e-02
5.835999999999999943e+01,1.621926689035846011e-02
5.839999999999999858e+01,1.162592270428325011e-02
5.843999999999999773e+01,1.023393001306386121e-02
5.847999999999999687e+01,1.711294733667366452e-02
5.852000000000000313e+01,1.438575618019418551e-02
5.856000000000000227e+01,8.456135820278558660e-03
5.860000000000000142e+01,1.813518857070159709e-02
5.864000000000000057e+01,1.527296611011071982e-02
5.867999999999999972e+01,1.667938961726111308e-02
5.871999999999999886e+01,1.635091533168418765e-02
5.875999999999999801e+01,1.575507573031789330e-02
5.879999999999999716e+01,1.088950818771328849e-02
5.884000000000000341e+01,1.869754595829348220e-02
5.888000000000000256e+01,1.476477883940933294e-02
5.892000000000000171e+01,1.616795216115184119e-02
5.896000000000000085e+01,1.423528064969299504e-02
5.900000000000000000e+01,1.630442811136164488e-02
5.903999999999999915e+01,1.877326814771272320e-02
5.907999999999999829e+01,1.964061926831690841e-02
5.911999999999999744e+01,1.944012942043639794e-02
5.915999999999999659e+01,1.350237560028228270e-02
5.920000000000000284e+01,1.930433936494956385e-02
5.924000000000000199e+01,1.456620372247675183e-02
5.928000000000000114e+01,2.343555401335751728e-02
5.932000000000000028e+01,2.056409550526693344e-02
5.935999999999999943e+01,1.702503012323719825e-02
5.939999999999999858e+01,1.788801638724162035e-02
5.943999999999999773e+01,1.448126902345208376e-02
5.947999999999999687e+01,1.280833108151776221e-02
5.952000000000000313e+01,1.553744371938844439e-02
5.956000000000000227e+01,1.506411826857976741e-02
5.960000000000000142e+01,1.352294758436966421e-02
5.964000000000000057e+01,1.304852452203600355e-02
5.967999999999999972e+01,1.657591439086445254e-02
5.971999999999999886e+01,1.249826625233149864e-02
5.975999999999999801e+01,2.002691864721580298e-02
5.979999999999999716e+01,1.714887873489183423e-02
5.984000000000000341e+01,1.360322768371191940e-02
5.988000000000000256e+01,1.566033269466126504e-02
5.992000000000000171e+01,1.638276547759539431e-02
5.996000000000000085e+01,1.430299284475680839e-02
