2.003999999999999915e+01,4.834680136614535190e-02
2.007999999999999829e+01,5.217619326665839247e-02
2.012000000000000099e+01,3.967693359219136989e-02
2.016000000000000014e+01,5.431646434244076505e-02
2.019999999999999929e+01,5.417187321488533408e-02
2.023999999999999844e+01,3.372698811337375424e-02
2.028000000000000114e+01,2.938854990666411177e-02
2.032000000000000028e+01,2.460804098152337416e-02
2.035999999999999943e+01,4.806956034475271672e-02
2.039999999999999858e+01,5.542307968007498253e-02
2.044000000000000128e+01,3.078202210528232022e-02
2.048000000000000043e+01,4.453275268174276130e-02
2.051999999999999957e+01,3.180508043140801294e-02
2.055999999999999872e+01,4.908461506412349629e-02
2.060000000000000142e+01,4.672580241541304108e-02
2.064000000000000057e+01,4.877915637490342488e-02
2.067999999999999972e+01,3.472451494321280446e-02
2.071999999999999886e+01,5.619325580267088560e-02
2.076000000000000156e+01,4.963906943727909582e-02
2.080000000000000071e+01,5.190999053647842032e-02
2.083999999999999986e+01,3.983809417678751963e-02
2.087999999999999901e+01,3.284030913065906498e-02
2.092000000000000171e+01,3.224051752253213193e-02
2.096000000000000085e+01,4.421683350436159815e-02
2.100000000000000000e+01,3.831998411139300037e-02
2.103999999999999915e+01,4.676441891589273175e-02
2.107999999999999829e+01,4.527897844267154970e-02
2.112000000000000099e+01,5.041218162974092643e-02
2.116000000000000014e+01,5.642720947060802378e-02
2.119999999999999929e+01,4.611360362101570021e-02
2.123999999999999844e+01,3.535794228794993804e-02
2.128000000000000114e+01,4.644556407830472550e-02
2.132000000000000028e+01,4.274908253775979577e-02
2.135999999999999943e+01,3.728666603886032771e-02
2.139999999999999858e+01,6.558246780899751327e-02
2.144000000000000128e+01,6.541405979422237893e-02
2.148000000000000043e+01,4.626925980161460117e-02
2.151999999999999957e+01,3.594957919660806550e-02
2.155999999999999872e+01,4.592865797935694744e-02
2.160000000000000142e+01,4.509528245408139790e-02
2.164000000000000057e+01,3.058104344872996858e-02
2.167999999999999972e+01,4.651532369401687600e-02
2.171999999999999886e+01,5.207844543913124624e-02
2.176000000000000156e+01,5.322787592568626464e-02
2.180000000000000071e+01,5.349396638153728484e-02
2.183999999999999986e+01,6.082000624137239714e-02
2.187999999999999901e+01,6.836594194699074922e-02
2.192000000000000171e+01,6.201037189891761559e-02
2.196000000000000085e+01,6.315604706268036772e-02
2.200000000000000000e+01,3.760269699771625479e-02
2.203999999999999915e+01,4.227722523455427345e-02
2.207999999999999829e+01,2.510696159496007482e-02
2.212000000000000099e+01,5.096209838176135598e-02
2.216000000000000014e+01,3.158387212069712485e-02
2.219999999999999929e+01,5.280393159704922096e-02
2.223999999999999844e+01,2.437769114348233360e-02
2.228000000000000114e+01,2.926838971083690552e-02
2.232000000000000028e+01,2.798023101035176236e-02
2.235999999999999943e+01,4.015079072482088951e-02
2.239999999999999858e+01,2.275392200001663534e-02
2.244000000000000128e+01,3.867399494569189605e-02
2.248000000000000043e+01,3.076346044575510932e-02
2.251999999999999957e+01,4.469622960331217504e-02
2.255999999999999872e+01,2.773769150910402118e-02
2.260000000000000142e+01,3.968315952810076014e-02
2.264000000000000057e+01,5.339306435067183582e-02
2.267999999999999972e+01,3.025419732942219095e-02
2.271999999999999886e+01,4.021162970503664585e-02
2.276000000000000156e+01,3.185463203030602930e-02
2.280000000000000071e+01,5.129840922901934830e-02
2.283999999999999986e+01,2.043395570263060318e-02
2.287999999999999901e+01,4.605437671887614715e-02
2.292000000000000171e+01,4.321061245861958916e-02
2.296000000000000085e+01,3.639447063217090411e-02
2.300000000000000000e+01,3.641765050865898579e-02
2.303999999999999915e+01,4.372144657115687588e-02
2.307999999999999829e+01,2.829787967559264580e-02
2.312000000000000099e+01,3.537956710438908137e-02
2.316000000000000014e+01,5.415481091319595403e-02
2.319999999999999929e+01,4.865816537871799768e-02
2.323999999999999844e+01,4.647049495604759634e-02
2.328000000000000114e+01,2.067287724589610826e-02
2.332000000000000028e+01,3.944520820621504748e-02
2.335999999999999943e+01,4.299217579681363643e-02
2.339999999999999858e+01,2.910731157666484464e-02
2.344000000000000128e+01,2.338565780778685196e-02
2.348000000000000043e+01,3.752150140067514461e-02
2.351999999999999957e+01,4.680238905945726530e-02
2.355999999999999872e+01,3.556239081226727355e-02
2.360000000000000142e+01,4.726894865879466973e-02
2.364000000000000057e+01,2.300933820021507439e-02
2.367999999999999972e+01,3.405251213926291376e-02
2.371999999999999886e+01,3.009097558043701687e-02
2.376000000000000156e+01,4.642823484078697355e-02
2.380000000000000071e+01,2.900579754900411630e-02
2.383999999999999986e+01,4.335579673894045943e-02
2.387999999999999901e+01,4.601079173568534131e-02
2.392000000000000171e+01,3.983919303606942713e-02
2.396000000000000085e+01,3.168105552307249467e-02
2.400000000000000000e+01,3.698166358299762035e-02
2.403999999999999915e+01,2.771886026484815524e-02
2.407999999999999829e+01,3.941679879601509007e-02
2.412000000000000099e+01,2.640156939817156143e-02
2.416000000000000014e+01,2.177020928495055838e-02
2.419999999999999929e+01,3.699635845650626337e-02
2.423999999999999844e+01,4.052750939637571326e-02
2.428000000000000114e+01,4.626441811847079033e-02
2.432000000000000028e+01,3.832050774058375076e-02
2.435999999999999943e+01,3.523011939380087804e-02
2.439999999999999858e+01,2.529896749240522630e-02
2.444000000000000128e+01,2.750268698816617924e-02
2.448000000000000043e+01,3.257410830912480654e-02
2.451999999999999957e+01,2.859829895922314999e-02
2.455999999999999872e+01,2.528372365588170065e-02
2.460000000000000142e+01,4.491572100599434264e-02
2.464000000000000057e+01,2.438927531424578063e-02
2.467999999999999972e+01,3.431139855234525277e-02
2.471999999999999886e+01,3.496564752118999642e-02
2.476000000000000156e+01,3.738436840025067404e-02
2.480000000000000071e+01,2.568098430731964935e-02
2.483999999999999986e+01,3.802741139388752384e-02
2.487999999999999901e+01,4.110596686075843054e-02
2.492000000000000171e+01,2.631142186699854044e-02
2.496000000000000085e+01,1.063358917130213105e-02
2.500000000000000000e+01,2.099139249773728996e-02
2.503999999999999915e+01,2.693555888154905778e-02
2.507999999999999829e+01,1.677180273702080088e-02
2.512000000000000099e+01,2.249392672607751151e-02
2.516000000000000014e+01,2.181659356660463345e-02
2.519999999999999929e+01,3.812837641720386028e-02
2.523999999999999844e+01,2.465213094784011669e-02
2.528000000000000114e+01,2.066300786171220913e-02
2.532000000000000028e+01,2.772435324997278832e-03
2.535999999999999943e+01,3.209960816471484762e-02
2.539999999999999858e+01,4.333304158213343443e-02
2.544000000000000128e+01,2.742621291563608968e-02
2.548000000000000043e+01,1.791745319953891649e-02
2.551999999999999957e+01,3.598886648902759750e-02
2.555999999999999872e+01,2.934713569552645923e-02
2.560000000000000142e+01,3.947388062565030525e-02
2.564000000000000057e+01,1.804742857697295630e-02
2.567999999999999972e+01,2.662826819719703655e-02
2.571999999999999886e+01,3.763553635600909442e-02
2.576000000000000156e+01,2.459160447480346692e-02
2.580000000000000071e+01,4.354078844274227728e-02
2.583999999999999986e+01,2.873030964041093510e-02
2.587999999999999901e+01,3.819030615004615631e-02
2.592000000000000171e+01,3.860309517245208433e-02
2.596000000000000085e+01,2.842414899762668243e-02
2.600000000000000000e+01,2.133357672914042852e-02
2.603999999999999915e+01,2.858437145680530617e-02
2.607999999999999829e+01,2.568472679509075512e-02
2.612000000000000099e+01,2.543216420620026189e-02
2.616000000000000014e+01,3.444609166277209228e-02
2.619999999999999929e+01,2.867599659995859890e-02
2.623999999999999844e+01,3.945374094866007514e-02
2.628000000000000114e+01,3.610940483377986232e-02
2.632000000000000028e+01,1.136164087643412417e-02
2.635999999999999943e+01,3.052193520013308028e-02
2.639999999999999858e+01,2.254198333726304196e-02
2.644000000000000128e+01,3.331634330127141580e-02
2.648000000000000043e+01,2.158404352066393278e-02
2.651999999999999957e+01,3.390158273991279725e-02
2.655999999999999872e+01,1.731370313941734546e-02
2.660000000000000142e+01,4.353065124259548890e-02
2.664000000000000057e+01,3.378148071987643886e-02
2.667999999999999972e+01,6.379885792004284274e-03
2.671999999999999886e+01,2.443088347907363192e-02
2.676000000000000156e+01,3.122821848567610900e-02
2.680000000000000071e+01,4.265846901879819658e-02
2.683999999999999986e+01,2.143230789309463757e-02
2.687999999999999901e+01,3.837739399061664697e-02
2.692000000000000171e+01,2.972677088502415077e-02
2.696000000000000085e+01,2.791553505892523795e-02
2.700000000000000000e+01,1.352675906464665886e-02
2.703999999999999915e+01,2.451171214333711795e-02
2.707999999999999829e+01,3.571664717844105774e-02
2.712000000000000099e+01,3.081369346706743645e-02
2.716000000000000014e+01,2.767525140927753341e-02
2.719999999999999929e+01,3.446525735010092656e-02
2.723999999999999844e+01,3.838619115211257260e-02
2.728000000000000114e+01,3.259799925711203555e-02
2.732000000000000028e+01,1.511486013441377431e-02
2.735999999999999943e+01,2.521192448721659707e-02
2.739999999999999858e+01,1.964239855095152934e-02
2.744000000000000128e+01,2.973814425651867543e-02
2.748000000000000043e+01,5.329269316289138997e-02
2.751999999999999957e+01,1.859580007143093669e-02
2.755999999999999872e+01,1.831916798800926199e-02
2.760000000000000142e+01,3.812074840281021865e-02
2.764000000000000057e+01,2.901692788238243934e-02
2.767999999999999972e+01,1.527886722669425691e-02
2.771999999999999886e+01,2.051578650468905557e-02
2.776000000000000156e+01,3.193016557894180069e-02
2.780000000000000071e+01,1.863143766401478482e-02
2.783999999999999986e+01,2.739674841472165834e-02
2.787999999999999901e+01,1.784771390093475851e-02
2.792000000000000171e+01,1.050449744681452094e-02
2.796000000000000085e+01,3.316861041779513991e-02
2.800000000000000000e+01,3.354673572530112585e-02
2.803999999999999915e+01,1.847892825231217326e-02
2.807999999999999829e+01,2.260675358485296146e-02
2.812000000000000099e+01,2.827845955798285321e-02
2.816000000000000014e+01,1.651841254471159842e-02
2.819999999999999929e+01,2.263011886208869325e-02
2.823999999999999844e+01,8.662310593744029091e-03
2.828000000000000114e+01,1.433143226355959934e-02
2.832000000000000028e+01,1.955861569283705997e-02
2.835999999999999943e+01,2.632968373704052539e-02
2.839999999999999858e+01,2.096452861737851253e-02
2.844000000000000128e+01,3.457436535440970571e-02
2.848000000000000043e+01,1.641040523194988582e-02
2.851999999999999957e+01,2.362019869086941226e-02
2.855999999999999872e+01,2.818158878017123711e-02
2.860000000000000142e+01,2.744681323814542051e-02
2.864000000000000057e+01,4.193603538895250560e-02
2.867999999999999972e+01,3.149151821280621322e-02
2.871999999999999886e+01,2.854835819231495153e-02
2.876000000000000156e+01,1.766127226595431976e-02
2.880000000000000071e+01,3.905140033971239970e-03
2.883999999999999986e+01,1.861182342726580910e-02
2.887999999999999901e+01,2.360940761912650593e-02
2.892000000000000171e+01,1.007201685827784944e-02
2.896000000000000085e+01,2.301162151680054280e-02
2.900000000000000000e+01,2.712471660242422519e-02
2.903999999999999915e+01,2.307324350856326117e-02
2.907999999999999829e+01,2.078631386298012904e-02
2.912000000000000099e+01,2.864851092104615457e-02
2.916000000000000014e+01,4.577724770378415603e-02
2.919999999999999929e+01,4.194389815678112310e-02
2.923999999999999844e+01,2.244398879062547980e-02
2.928000000000000114e+01,3.273078379808138511e-02
2.932000000000000028e+01,3.551495599380372070e-02
2.935999999999999943e+01,3.962238245384695767e-02
2.939999999999999858e+01,3.688912815796032557e-02
2.944000000000000128e+01,3.636171709254008150e-02
2.948000000000000043e+01,2.921427350631054104e-02
2.951999999999999957e+01,2.978884723386683933e-02
2.955999999999999872e+01,9.180693682845665615e-03
2.960000000000000142e+01,3.203935824573253544e-02
2.964000000000000057e+01,2.356553897910597037e-02
2.967999999999999972e+01,2.700603097231396577e-02
2.971999999999999886e+01,4.611183236355368559e-02
2.976000000000000156e+01,3.587097410552297222e-02
2.980000000000000071e+01,3.732378218415371984e-02
2.983999999999999986e+01,3.811403028270419352e-02
2.987999999999999901e+01,3.713848451185585570e-02
2.992000000000000171e+01,3.329391098228996759e-02
2.996000000000000085e+01,6.872387023164638897e-02
3.000000000000000000e+01,7.061488250957842494e-02
3.003999999999999915e+01,6.720975300220338733e-02
3.007999999999999829e+01,5.034454668927079712e-02
3.012000000000000099e+01,4.627624656382322427e-02
3.016000000000000014e+01,4.948868052970976927e-02
3.019999999999999929e+01,7.233807622845081498e-02
3.023999999999999844e+01,8.614033597802450704e-02
3.028000000000000114e+01,8.670316914432950328e-02
3.032000000000000028e+01,1.016074401824583057e-01
3.035999999999999943e+01,1.032722859620973516e-01
3.039999999999999858e+01,1.122178698074071806e-01
3.044000000000000128e+01,1.319745429462432507e-01
3.048000000000000043e+01,1.290039756690681272e-01
3.051999999999999957e+01,1.379477335619061773e-01
3.055999999999999872e+01,1.634394024043212268e-01
3.060000000000000142e+01,1.540682527491039899e-01
3.064000000000000057e+01,1.599211339061928083e-01
3.067999999999999972e+01,1.776883428828527622e-01
3.071999999999999886e+01,1.645643797351981075e-01
3.076000000000000156e+01,1.587211606147194976e-01
3.080000000000000071e+01,1.568489825286819017e-01
3.083999999999999986e+01,1.487980882637600366e-01
3.087999999999999901e+01,1.383194759581510003e-01
3.092000000000000171e+01,1.210002080674117825e-01
3.096000000000000085e+01,9.728157907461509879e-02
3.100000000000000000e+01,9.562704107622002625e-02
3.103999999999999915e+01,9.110349386601246380e-02
3.107999999999999829e+01,7.488506169271676172e-02
3.112000000000000099e+01,8.448171997679869427e-02
3.116000000000000014e+01,6.164268505045870233e-02
3.119999999999999929e+01,6.307421353388391327e-02
3.123999999999999844e+01,3.736557597986511076e-02
3.128000000000000114e+01,5.004890542225445133e-02
3.132000000000000028e+01,6.670328451014788385e-02
3.135999999999999943e+01,5.952720320289000416e-02
3.139999999999999858e+01,3.447812874209433415e-02
3.144000000000000128e+01,4.517326100316507859e-02
3.148000000000000043e+01,3.159664103556976411e-02
3.151999999999999957e+01,3.986347376309744284e-02
3.155999999999999872e+01,2.584437777981260162e-02
3.160000000000000142e+01,3.433067654745458608e-02
3.164000000000000057e+01,1.523552208086393495e-02
3.167999999999999972e+01,3.144328448979325646e-02
3.171999999999999886e+01,3.397035034079133597e-02
3.176000000000000156e+01,2.833289305478818923e-02
3.180000000000000071e+01,1.828191076998089692e-02
3.183999999999999986e+01,1.860074714164787826e-02
3.187999999999999901e+01,2.509711153568755515e-02
3.192000000000000171e+01,4.130135517995554839e-02
3.196000000000000085e+01,4.228037786823764937e-02
3.200000000000000000e+01,2.185606677335782608e-02
3.203999999999999915e+01,1.952421950885637955e-02
3.207999999999999829e+01,3.462289600609792101e-02
3.211999999999999744e+01,2.500853705222159246e-02
3.215999999999999659e+01,2.686723660564328819e-02
3.220000000000000284e+01,2.188530177039755761e-02
3.224000000000000199e+01,2.175701945698008469e-02
3.228000000000000114e+01,2.052492374855647422e-02
3.232000000000000028e+01,2.966265464528056173e-02
3.235999999999999943e+01,2.225128974786363609e-02
3.239999999999999858e+01,2.851945643549779613e-02
3.243999999999999773e+01,1.492882499864547907e-02
3.247999999999999687e+01,2.340230906460493907e-02
3.252000000000000313e+01,1.069311486880710448e-02
3.256000000000000227e+01,1.056022035591002751e-02
3.260000000000000142e+01,1.329516213327176094e-02
3.264000000000000057e+01,6.762360794492318534e-03
3.267999999999999972e+01,1.699815242227293785e-02
3.271999999999999886e+01,2.524755029996497008e-02
3.275999999999999801e+01,1.076974551784511645e-02
3.279999999999999716e+01,2.254835283414358474e-02
3.284000000000000341e+01,1.601269702224156211e-02
3.288000000000000256e+01,1.533183530584967267e-03
3.292000000000000171e+01,1.397202485553994920e-02
3.296000000000000085e+01,1.449536543936994631e-02
3.300000000000000000e+01,1.700396129598688577e-02
3.303999999999999915e+01,2.877916112905379298e-02
3.307999999999999829e+01,2.753562765645601457e-02
3.311999999999999744e+01,2.254053177493122936e-02
3.315999999999999659e+01,2.195780982950911245e-02
3.320000000000000284e+01,1.541705769652271935e-02
3.324000000000000199e+01,9.978977169293476793e-03
3.328000000000000114e+01,1.932367735139151402e-02
3.332000000000000028e+01,1.697352966421152715e-02
3.335999999999999943e+01,3.271586766626215920e-02
3.339999999999999858e+01,2.882007035151509106e-02
3.343999999999999773e+01,1.808365918217405902e-02
3.347999999999999687e+01,1.727580000659189458e-02
3.352000000000000313e+01,1.823255780451805280e-02
3.356000000000000227e+01,2.007134559697545603e-02
3.360000000000000142e+01,1.970310730157081788e-02
3.364000000000000057e+01,2.793954218743321602e-02
3.367999999999999972e+01,1.256620200707494160e-02
3.371999999999999886e+01,2.962740264965810569e-02
3.375999999999999801e+01,1.270842476474307904e-02
3.379999999999999716e+01,3.070241248603158054e-03
3.384000000000000341e+01,1.814395868061627337e-02
3.388000000000000256e+01,6.077553792889955377e-03
3.392000000000000171e+01,2.931410287449356944e-02
3.396000000000000085e+01,2.849958770591938528e-02
3.400000000000000000e+01,1.863799885278748583e-02
3.403999999999999915e+01,1.385073923935124796e-02
3.407999999999999829e+01,2.561144886576469798e-02
3.411999999999999744e+01,7.584277222675970924e-03
3.415999999999999659e+01,1.272448345446452501e-02
3.420000000000000284e+01,2.123898103192937092e-04
3.424000000000000199e+01,2.190002088291153823e-02
3.428000000000000114e+01,2.130176828717473062e-02
3.432000000000000028e+01,1.121515348531260114e-02
3.435999999999999943e+01,1.216033980148573113e-02
3.439999999999999858e+01,2.656444391184149129e-02
3.443999999999999773e+01,3.390730381699813556e-02
3.447999999999999687e+01,1.587522662099031395e-02
3.452000000000000313e+01,5.123955716768022889e-03
3.456000000000000227e+01,1.886395077336739182e-02
3.460000000000000142e+01,1.274518347451130719e-02
3.464000000000000057e+01,1.523110591665885645e-02
3.467999999999999972e+01,9.111259755552743658e-03
3.471999999999999886e+01,2.505556619106831182e-02
3.475999999999999801e+01,3.415928063084215649e-02
3.479999999999999716e+01,2.384552984779103948e-02
3.484000000000000341e+01,3.140364235203919885e-02
3.488000000000000256e+01,3.719604378557134217e-02
3.492000000000000171e+01,2.952844856267093296e-02
3.496000000000000085e+01,1.899190904212529063e-02
3.500000000000000000e+01,3.074017366526915485e-02
3.503999999999999915e+01,3.145555963290671414e-02
3.507999999999999829e+01,3.327364767621670411e-02
3.511999999999999744e+01,3.795961374032164048e-02
3.515999999999999659e+01,5.125027815649319668e-02
3.520000000000000284e+01,4.335830869100155971e-02
3.524000000000000199e+01,4.848397710918793402e-02
3.528000000000000114e+01,6.199369895626773153e-02
3.532000000000000028e+01,4.152326810903843313e-02
3.535999999999999943e+01,7.489015554585617962e-02
3.539999999999999858e+01,6.015548935127975477e-02
3.543999999999999773e+01,6.638175312462718525e-02
3.547999999999999687e+01,7.856495762505746883e-02
3.552000000000000313e+01,7.817076304626358052e-02
3.556000000000000227e+01,8.638127344343102254e-02
3.560000000000000142e+01,9.834225745143343467e-02
3.564000000000000057e+01,7.963279771936669638e-02
3.567999999999999972e+01,1.085825480808973037e-01
3.571999999999999886e+01,1.125986756960200841e-01
3.575999999999999801e+01,1.208065733922189661e-01
3.579999999999999716e+01,1.409288836938401845e-01
3.584000000000000341e+01,1.608300271944839988e-01
3.588000000000000256e+01,1.809512983772230410e-01
3.592000000000000171e+01,1.849648265391665158e-01
3.596000000000000085e+01,1.671337926738217239e-01
3.600000000000000000e+01,1.883567446978664239e-01
3.603999999999999915e+01,1.886177236607683161e-01
3.607999999999999829e+01,1.893194805280542792e-01
3.611999999999999744e+01,1.895794283207474229e-01
3.615999999999999659e+01,1.660089952050249340e-01
3.620000000000000284e+01,1.786241414561981766e-01
3.624000000000000199e+01,1.636579106479271462e-01
3.628000000000000114e+01,1.246406540080672309e-01
3.632000000000000028e+01,1.284283860325202697e-01
3.635999999999999943e+01,1.154464415914368824e-01
3.639999999999999858e+01,1.243080306569911003e-01
3.643999999999999773e+01,1.188270605955457360e-01
3.647999999999999687e+01,8.797118655240905583e-02
3.652000000000000313e+01,9.418348481665037020e-02
3.656000000000000227e+01,1.019398034856575791e-01
3.660000000000000142e+01,9.027868673936569055e-02
3.664000000000000057e+01,1.026675765774643923e-01
3.667999999999999972e+01,8.835768428376930550e-02
3.671999999999999886e+01,1.053791479405172676e-01
3.675999999999999801e+01,9.636377152127534318e-02
3.679999999999999716e+01,9.815958971548421896e-02
3.684000000000000341e+01,9.929296384776895024e-02
3.688000000000000256e+01,1.125614153803332906e-01
3.692000000000000171e+01,1.125905502862797058e-01
3.696000000000000085e+01,9.827713467628969302e-02
3.700000000000000000e+01,9.323038861930642296e-02
3.703999999999999915e+01,1.062761891913844708e-01
3.707999999999999829e+01,1.179976089448502852e-01
3.711999999999999744e+01,1.140525993698876389e-01
3.715999999999999659e+01,1.363640740937948070e-01
3.720000000000000284e+01,1.156489039316910411e-01
3.724000000000000199e+01,1.275889797931430425e-01
3.728000000000000114e+01,1.287168610032403404e-01
3.732000000000000028e+01,1.532328193273240213e-01
3.735999999999999943e+01,1.461957747527191653e-01
3.739999999999999858e+01,1.824050305476260236e-01
3.743999999999999773e+01,1.861786971272565705e-01
3.747999999999999687e+01,1.884073426018279540e-01
3.752000000000000313e+01,2.109350117575504169e-01
3.756000000000000227e+01,2.427293597397321423e-01
3.760000000000000142e+01,2.840110341211043443e-01
3.764000000000000057e+01,3.279399813434659139e-01
3.767999999999999972e+01,4.065100040687421590e-01
3.771999999999999886e+01,4.694136074014318982e-01
3.775999999999999801e+01,5.490858878241434704e-01
3.779999999999999716e+01,6.600895420818135850e-01
3.784000000000000341e+01,7.503518999962084379e-01
3.788000000000000256e+01,7.814803998302742860e-01
3.792000000000000171e+01,8.876283637341092492e-01
3.796000000000000085e+01,9.004421997794421761e-01
3.800000000000000000e+01,9.518687610129548116e-01
3.803999999999999915e+01,9.911592587184625547e-01
3.807999999999999829e+01,1.000000000000000000e+00
3.811999999999999744e+01,9.874375088439636405e-01
3.815999999999999659e+01,9.883339977467192616e-01
3.820000000000000284e+01,9.270075771234791429e-01
3.824000000000000199e+01,8.839943699113257392e-01
3.828000000000000114e+01,7.842744272564962094e-01
3.832000000000000028e+01,6.984547611307000414e-01
3.835999999999999943e+01,6.563227050924458350e-01
3.839999999999999858e+01,5.612349130744912484e-01
3.843999999999999773e+01,4.974785054897265524e-01
3.847999999999999687e+01,4.398997352215963108e-01
3.852000000000000313e+01,3.889398967531729201e-01
3.856000000000000227e+01,3.415099340020632535e-01
3.860000000000000142e+01,3.020227858374890939e-01
3.864000000000000057e+01,3.026929018317172093e-01
3.867999999999999972e+01,2.643080418344936899e-01
3.871999999999999886e+01,2.301150009351666248e-01
3.875999999999999801e+01,2.310043472439529122e-01
3.879999999999999716e+01,2.160066451343265470e-01
3.884000000000000341e+01,2.049801171994232729e-01
3.888000000000000256e+01,1.811555989156690694e-01
3.892000000000000171e+01,1.816017718828464300e-01
3.896000000000000085e+01,1.707944841983433104e-01
3.900000000000000000e+01,1.655029017105124345e-01
3.903999999999999915e+01,1.719051385713088465e-01
3.907999999999999829e+01,1.591106279952945179e-01
3.911999999999999744e+01,1.580099380926865138e-01
3.915999999999999659e+01,1.460970846710283877e-01
3.920000000000000284e+01,1.505116383647296108e-01
3.924000000000000199e+01,1.502921433537251217e-01
3.928000000000000114e+01,1.352888424246898313e-01
3.932000000000000028e+01,1.472040022945801385e-01
3.935999999999999943e+01,1.330823651437956223e-01
3.939999999999999858e+01,1.335229631375847437e-01
3.943999999999999773e+01,1.436715649108211423e-01
3.947999999999999687e+01,1.478622404916389299e-01
3.952000000000000313e+01,1.368278203080793565e-01
3.956000000000000227e+01,1.538150994494903723e-01
3.960000000000000142e+01,1.562392248823278318e-01
3.964000000000000057e+01,1.498370169378633598e-01
3.967999999999999972e+01,1.533634636575246235e-01
3.971999999999999886e+01,1.780715581311239359e-01
3.975999999999999801e+01,1.738744523735019920e-01
3.979999999999999716e+01,1.921828771566466421e-01
3.984000000000000341e+01,1.884261572539394081e-01
3.988000000000000256e+01,1.939361545962801636e-01
3.992000000000000171e+01,2.031966970875180301e-01
3.996000000000000085e+01,1.932605067145133915e-01
4.000000000000000000e+01,2.047266156425145978e-01
4.003999999999999915e+01,2.047186348930090938e-01
4.007999999999999829e+01,2.071373204799086543e-01
4.011999999999999744e+01,2.024948559209129306e-01
4.015999999999999659e+01,2.053539379609586324e-01
4.020000000000000284e+01,2.090951599521864990e-01
4.024000000000000199e+01,1.995971202951217771e-01
4.028000000000000114e+01,2.112807376654477209e-01
4.032000000000000028e+01,2.101663885329433379e-01
4.035999999999999943e+01,2.050799499736632725e-01
4.039999999999999858e+01,2.200719358772339762e-01
4.043999999999999773e+01,2.231485449065092885e-01
4.047999999999999687e+01,2.145304246342203958e-01
4.052000000000000313e+01,2.259907308119507019e-01
4.056000000000000227e+01,2.253150151922123090e-01
4.060000000000000142e+01,2.409667298714646133e-01
4.064000000000000057e+01,2.285958465334300416e-01
4.067999999999999972e+01,2.343175701018979928e-01
4.071999999999999886e+01,2.314336250879211465e-01
4.075999999999999801e+01,2.245775972710632173e-01
4.079999999999999716e+01,2.344902968858263437e-01
4.084000000000000341e+01,2.494774383464938294e-01
4.088000000000000256e+01,2.344561635711368275e-01
4.092000000000000171e+01,2.205376875803139181e-01
4.096000000000000085e+01,2.189750034638373588e-01
4.100000000000000000e+01,1.999807789879773923e-01
4.103999999999999915e+01,2.120973350902808086e-01
4.107999999999999829e+01,2.118572310958370397e-01
4.111999999999999744e+01,1.955094701912279409e-01
4.115999999999999659e+01,1.762928676593404631e-01
4.120000000000000284e+01,1.769340559277514102e-01
4.124000000000000199e+01,1.634534114662399840e-01
4.128000000000000114e+01,1.773325540814212065e-01
4.132000000000000028e+01,1.779724529328254867e-01
4.135999999999999943e+01,1.527962347933697340e-01
4.139999999999999858e+01,1.618198599383653402e-01
4.143999999999999773e+01,1.624584753342681598e-01
4.147999999999999687e+01,1.514023779883432452e-01
4.152000000000000313e+01,1.463033213903101315e-01
4.156000000000000227e+01,1.383354297888932938e-01
4.160000000000000142e+01,1.464743381358618868e-01
4.164000000000000057e+01,1.638799928730149957e-01
4.167999999999999972e+01,1.537043606356907344e-01
4.171999999999999886e+01,1.466173626237644023e-01
4.175999999999999801e+01,1.638011028924215295e-01
4.179999999999999716e+01,1.258226943810665799e-01
4.184000000000000341e+01,1.235886648128384363e-01
4.188000000000000256e+01,1.136315735128265308e-01
4.192000000000000171e+01,1.255181071291979478e-01
4.196000000000000085e+01,1.281370519661731711e-01
4.200000000000000000e+01,1.256806999826324545e-01
4.203999999999999915e+01,9.983535828261037859e-02
4.207999999999999829e+01,1.106169871414184602e-01
4.211999999999999744e+01,9.381733631203319212e-02
4.215999999999999659e+01,9.202126015277785342e-02
4.220000000000000284e+01,9.066606324349443802e-02
4.224000000000000199e+01,9.019304006725580025e-02
4.228000000000000114e+01,8.067308032107817217e-02
4.232000000000000028e+01,8.395022879117203241e-02
4.235999999999999943e+01,6.935456560244082636e-02
4.239999999999999858e+01,7.483735999603359501e-02
4.243999999999999773e+01,7.347968957266154399e-02
4.247999999999999687e+01,6.086861678788162838e-02
4.252000000000000313e+01,7.561735161386765047e-02
4.256000000000000227e+01,7.403780646536745058e-02
4.260000000000000142e+01,6.517650532877693192e-02
4.264000000000000057e+01,5.675609072844260000e-02
4.267999999999999972e+01,5.716114591973550652e-02
4.271999999999999886e+01,6.308196790992091907e-02
4.275999999999999801e+01,8.003473011992877362e-02
4.279999999999999716e+01,6.124228821972409198e-02
4.284000000000000341e+01,5.546761005719547111e-02
4.288000000000000256e+01,6.249004938439074730e-02
4.292000000000000171e+01,5.075709868484700599e-02
4.296000000000000085e+01,7.829889604080104981e-02
4.300000000000000000e+01,6.347608528824115470e-02
4.303999999999999915e+01,5.880263175086351130e-02
4.307999999999999829e+01,6.273400771866619041e-02
4.311999999999999744e+01,6.887145345413150932e-02
4.315999999999999659e+01,5.316445639241187265e-02
4.320000000000000284e+01,5.863916471251356261e-02
4.324000000000000199e+01,6.301024113232195356e-02
4.328000000000000114e+01,6.561574558320158734e-02
4.332000000000000028e+01,6.557309108617545568e-02
4.335999999999999943e+01,7.170815471729806434e-02
4.339999999999999858e+01,6.438336211855413826e-02
4.343999999999999773e+01,7.051763701401148055e-02
4.347999999999999687e+01,7.025275813531332847e-02
4.352000000000000313e+01,8.057853824115415731e-02
4.356000000000000227e+01,8.075416842181080967e-02
4.360000000000000142e+01,8.115005412572905141e-02
4.364000000000000057e+01,8.970948478759688260e-02
4.367999999999999972e+01,8.502971076666603067e-02
4.371999999999999886e+01,9.380900887666270005e-02
4.375999999999999801e+01,1.072215033663113937e-01
4.379999999999999716e+01,1.029818569534972639e-01
4.384000000000000341e+01,9.874182312793999827e-02
4.388000000000000256e+01,1.101673331862842720e-01
4.392000000000000171e+01,1.222543978876890897e-01
4.396000000000000085e+01,1.294868451360033090e-01
4.400000000000000000e+01,1.351743792487407059e-01
4.403999999999999915e+01,1.443918798261482894e-01
4.407999999999999829e+01,1.375017725102107014e-01
4.411999999999999744e+01,1.670180226246242294e-01
4.415999999999999659e+01,1.486535110812776117e-01
4.420000000000000284e+01,1.713289434102351627e-01
4.424000000000000199e+01,1.860607061780455707e-01
4.428000000000000114e+01,2.063082615779374684e-01
4.432000000000000028e+01,1.799989394316768576e-01
4.435999999999999943e+01,1.693551691179913388e-01
4.439999999999999858e+01,1.657717217959470413e-01
4.443999999999999773e+01,1.670421290245172052e-01
4.447999999999999687e+01,1.769173889418989010e-01
4.452000000000000313e+01,1.684785791488034312e-01
4.456000000000000227e+01,1.540819272867511025e-01
4.460000000000000142e+01,1.434358980731629818e-01
4.464000000000000057e+01,1.297004379498380433e-01
4.467999999999999972e+01,1.320718287788872902e-01
4.471999999999999886e+01,1.121575088232573542e-01
4.475999999999999801e+01,9.136022904847529436e-02
4.479999999999999716e+01,8.909691822699360164e-02
4.484000000000000341e+01,1.002926980833443171e-01
4.488000000000000256e+01,7.397813299100162998e-02
4.492000000000000171e+01,8.605576076987396517e-02
4.496000000000000085e+01,7.077280280054649986e-02
4.500000000000000000e+01,7.424446400680831393e-02
4.503999999999999915e+01,6.116723939638892688e-02
4.507999999999999829e+01,6.044587488643071022e-02
4.511999999999999744e+01,6.590225764975743417e-02
4.515999999999999659e+01,5.238264056981354472e-02
4.520000000000000284e+01,6.666416930141284836e-02
4.524000000000000199e+01,5.888064276973762473e-02
4.528000000000000114e+01,4.690446137484895195e-02
4.532000000000000028e+01,5.015255388919925839e-02
4.535999999999999943e+01,5.031122741682321486e-02
4.539999999999999858e+01,4.451207278566911979e-02
4.543999999999999773e+01,4.665584600964876177e-02
4.547999999999999687e+01,4.350373313065414305e-02
4.552000000000000313e+01,4.432290504542299447e-02
4.556000000000000227e+01,3.896360454062997025e-02
4.560000000000000142e+01,3.669300251301284982e-02
4.564000000000000057e+01,4.854344514204236155e-02
4.567999999999999972e+01,4.737536311808794587e-02
4.571999999999999886e+01,4.223528042754592926e-02
4.575999999999999801e+01,4.768589381535279226e-02
4.579999999999999716e+01,4.077992526836913406e-02
4.584000000000000341e+01,3.872783445563113963e-02
4.588000000000000256e+01,2.498110376390641138e-02
4.592000000000000171e+01,4.080070608946825134e-02
4.596000000000000085e+01,3.168685524032467671e-02
4.600000000000000000e+01,3.117788225079234574e-02
4.603999999999999915e+01,3.066855827993715880e-02
4.607999999999999829e+01,3.192405927288168715e-02
4.611999999999999744e+01,2.744239094040014718e-02
4.615999999999999659e+01,2.627007726888856004e-02
4.620000000000000284e+01,2.575935599663694425e-02
4.624000000000000199e+01,2.635152160671791477e-02
4.628000000000000114e+01,2.429557728571348635e-02
4.632000000000000028e+01,1.959152369601300722e-02
4.635999999999999943e+01,2.371300083777037535e-02
4.639999999999999858e+01,2.099407873911982025e-02
4.643999999999999773e+01,8.125054407326359751e-03
4.647999999999999687e+01,2.349849090422221828e-02
4.652000000000000313e+01,1.062877984474086546e-02
4.656000000000000227e+01,2.313312110428654075e-02
4.660000000000000142e+01,2.438412822853915432e-02
4.664000000000000057e+01,1.658827098330425270e-02
4.667999999999999972e+01,1.673536212727649158e-02
4.671999999999999886e+01,1.533758517815545647e-02
4.675999999999999801e+01,2.077952339131232395e-02
4.679999999999999716e+01,9.231311112241116432e-03
4.684000000000000341e+01,7.832518975351148924e-03
4.688000000000000256e+01,1.768638219473996423e-02
4.692000000000000171e+01,1.341850674351026049e-02
4.696000000000000085e+01,2.614010764222045660e-02
4.700000000000000000e+01,1.767927006415903959e-02
4.703999999999999915e+01,2.598726325047493249e-02
4.707999999999999829e+01,1.796705131231382535e-02
4.711999999999999744e+01,1.943432342203528507e-02
4.715999999999999659e+01,1.891544090426431485e-02
4.720000000000000284e+01,1.243876003524116078e-02
4.724000000000000199e+01,2.427544161493398397e-02
4.728000000000000114e+01,2.066650902346362298e-02
4.732000000000000028e+01,7.348782592101799765e-03
4.735999999999999943e+01,1.410959587935733429e-02
4.739999999999999858e+01,1.711908323072424895e-02
4.743999999999999773e+01,2.079018351542443951e-02
4.747999999999999687e+01,1.982737154764839527e-02
4.752000000000000313e+01,1.709905782422673631e-02
4.756000000000000227e+01,2.275500088326356390e-02
4.760000000000000142e+01,1.473051035298598120e-02
4.764000000000000057e+01,2.237162597121952409e-02
4.767999999999999972e+01,1.368454640081801302e-02
4.771999999999999886e+01,2.176630885541469204e-02
4.775999999999999801e+01,1.572634654957145647e-02
4.779999999999999716e+01,5.714418021392604456e-03
4.784000000000000341e+01,1.489844951913817279e-02
4.788000000000000256e+01,1.569757791249448350e-02
4.792000000000000171e+01,1.914414938093234042e-02
4.796000000000000085e+01,2.678269295923243337e-02
4.800000000000000000e+01,0.000000000000000000e+00
4.803999999999999915e+01,1.138890466801909321e-02
4.807999999999999829e+01,8.876736785055589635e-03
4.811999999999999744e+01,1.386624731663667169e-02
4.815999999999999659e+01,9.808918649529848113e-03
4.820000000000000284e+01,2.185849922506992796e-02
4.824000000000000199e+01,2.243412591294318553e-02
4.828000000000000114e+01,1.550744376168834010e-02
4.832000000000000028e+01,2.380508519888222679e-02
4.835999999999999943e+01,6.728019384055309270e-03
4.839999999999999858e+01,1.546633017885406906e-02
4.843999999999999773e+01,1.184810275656684314e-02
4.847999999999999687e+01,3.154685820856658208e-03
4.852000000000000313e+01,2.005600057159897739e-02
4.856000000000000227e+01,5.404497892702276977e-03
4.860000000000000142e+01,1.965743188016129753e-02
4.864000000000000057e+01,1.449312983154966462e-02
4.867999999999999972e+01,1.484469327786042125e-02
4.871999999999999886e+01,1.387206866089267694e-02
4.875999999999999801e+01,1.929789850499280535e-02
4.879999999999999716e+01,8.395551707362785762e-03
4.884000000000000341e+01,2.882476156418319405e-02
4.888000000000000256e+01,2.101086294560467957e-02
4.892000000000000171e+01,1.783024615491888079e-02
4.896000000000000085e+01,1.001574162016693852e-02
4.900000000000000000e+01,2.581015452746641611e-02
4.903999999999999915e+01,2.395251330532279996e-02
4.907999999999999829e+01,2.959656639507085227e-02
4.911999999999999744e+01,2.906220601791928079e-02
4.915999999999999659e+01,3.514695363607178713e-02
4.920000000000000284e+01,1.100277588486648847e-02
4.924000000000000199e+01,1.752822068098134484e-02
4.928000000000000114e+01,2.956954090786053507e-02
4.932000000000000028e+01,2.241428326963155679e-02
4.935999999999999943e+01,1.570002344908846478e-02
4.939999999999999858e+01,2.421010510150961581e-02
4.943999999999999773e+01,2.389401566204733818e-02
4.947999999999999687e+01,2.600474822051400056e-02
4.952000000000000313e+01,2.215772084631731711e-02
4.956000000000000227e+01,2.404722044995281915e-02
4.960000000000000142e+01,2.218543054912011647e-02
4.964000000000000057e+01,2.473628748884885292e-02
4.967999999999999972e+01,1.757838966966441402e-02
4.971999999999999886e+01,1.681896220889495322e-02
4.975999999999999801e+01,2.753288470678727159e-02
4.979999999999999716e+01,3.250969881908407494e-02
4.984000000000000341e+01,3.130811138749157313e-02
4.988000000000000256e+01,1.907389104688348574e-02
4.992000000000000171e+01,4.081900816934083687e-02
4.996000000000000085e+01,2.814292121134927271e-02
5.000000000000000000e+01,2.208595615884048624e-02
5.003999999999999915e+01,3.015010862581925591e-02
5.007999999999999829e+01,2.784357222675462942e-02
5.011999999999999744e+01,2.796386842385033614e-02
5.015999999999999659e+01,4.573563469306795443e-02
5.020000000000000284e+01,2.798296630446532943e-02
5.024000000000000199e+01,2.832306313344680818e-02
5.028000000000000114e+01,3.064870138746318695e-02
5.032000000000000028e+01,2.657529913592223195e-02
5.035999999999999943e+01,2.912102475136926771e-02
5.039999999999999858e+01,3.740329125482721312e-02
5.043999999999999773e+01,3.156387737793932280e-02
5.047999999999999687e+01,4.072817594818958775e-02
5.052000000000000313e+01,3.775661765594752473e-02
5.056000000000000227e+01,3.103378575658440747e-02
5.060000000000000142e+01,3.423978935367039816e-02
5.064000000000000057e+01,4.053457488900462369e-02
5.067999999999999972e+01,4.020967896994503271e-02
5.071999999999999886e+01,4.782779834142834169e-02
5.075999999999999801e+01,4.684041539022216344e-02
5.079999999999999716e+01,3.923335297179048747e-02
5.084000000000000341e+01,5.854494212044991652e-02
5.088000000000000256e+01,4.851022136147543906e-02
5.092000000000000171e+01,6.009862764617193709e-02
5.096000000000000085e+01,5.006336720997038581e-02
5.100000000000000000e+01,4.267560085283890470e-02
5.103999999999999915e+01,6.441295847816207176e-02
5.107999999999999829e+01,6.430600445941393739e-02
5.111999999999999744e+01,5.713808245187282364e-02
5.115999999999999659e+01,6.144353358662470177e-02
5.120000000000000284e+01,7.347136105025138531e-02
5.124000000000000199e+01,6.872975845722202604e-02
5.128000000000000114e+01,6.178142255247330572e-02
5.132000000000000028e+01,5.439152928112759439e-02
5.135999999999999943e+01,5.075237060206542333e-02
5.139999999999999858e+01,5.108459408801773599e-02
5.143999999999999773e+01,3.398545009823635693e-02
5.147999999999999687e+01,3.497909186011248506e-02
5.152000000000000313e+01,4.259188069827099521e-02
5.156000000000000227e+01,3.630365461333025234e-02
5.160000000000000142e+01,2.891193506749397540e-02
5.164000000000000057e+01,4.402594212970548093e-02
5.167999999999999972e+01,3.773694130437087180e-02
5.171999999999999886e+01,3.784644395692441515e-02
5.175999999999999801e+01,3.155692994994122036e-02
5.179999999999999716e+01,3.365174293869969274e-02
5.184000000000000341e+01,2.890624677201720713e-02
5.188000000000000256e+01,2.857343453970597261e-02
5.192000000000000171e+01,2.625454650424840358e-02
5.196000000000000085e+01,2.989287210033246545e-02
5.200000000000000000e+01,3.485482687317352501e-02
5.203999999999999915e+01,2.216477719578124547e-02
5.207999999999999829e+01,3.506951815750356666e-02
5.211999999999999744e+01,2.745384615933047293e-02
5.215999999999999659e+01,1.652822087029797576e-02
5.220000000000000284e+01,3.825808933848051652e-02
5.224000000000000199e+01,3.748172464086137190e-02
5.228000000000000114e+01,3.560187774296752483e-02
5.232000000000000028e+01,2.666108272796458706e-02
5.235999999999999943e+01,2.985562145796337094e-02
5.239999999999999858e+01,3.966932183681284169e-02
5.243999999999999773e+01,1.793026903780118100e-02
5.247999999999999687e+01,2.619895170863128370e-02
5.252000000000000313e+01,3.424674379489007353e-02
5.256000000000000227e+01,3.037935971086072259e-02
5.260000000000000142e+01,3.688213806343690337e-02
5.264000000000000057e+01,2.683615645332992905e-02
5.267999999999999972e+01,2.738098551494899321e-02
5.271999999999999886e+01,3.057333713838508021e-02
5.275999999999999801e+01,3.067639231714543169e-02
5.279999999999999716e+01,2.173268513439570795e-02
5.284000000000000341e+01,2.646884801771259843e-02
5.288000000000000256e+01,2.546795351942265223e-02
5.292000000000000171e+01,3.307205147412099755e-02
5.296000000000000085e+01,3.030550825481724553e-02
5.300000000000000000e+01,3.570266499259741599e-02
5.303999999999999915e+01,2.013813018475649197e-02
5.307999999999999829e+01,3.700845679635714897e-02
5.311999999999999744e+01,4.284620415248870107e-02
5.315999999999999659e+01,3.412102235007473394e-02
5.320000000000000284e+01,3.488342527874168514e-02
5.324000000000000199e+01,1.534608070475968269e-02
5.328000000000000114e+01,2.780230704148337756e-02
5.332000000000000028e+01,2.701948833126910018e-02
5.335999999999999943e+01,3.175261261554436498e-02
5.339999999999999858e+01,2.236410553629404260e-02
5.343999999999999773e+01,3.327488576920115820e-02
5.347999999999999687e+01,3.888991237702656145e-02
5.352000000000000313e+01,2.486713684995415369e-02
5.356000000000000227e+01,3.335011972562383631e-02
5.360000000000000142e+01,3.521346950133046050e-02
5.364000000000000057e+01,2.472036717058125749e-02
5.367999999999999972e+01,2.945167718846884372e-02
5.371999999999999886e+01,2.910788446595327303e-02
5.375999999999999801e+01,2.501287112747361402e-02
5.379999999999999716e+01,3.834874122821534809e-02
5.384000000000000341e+01,2.851646392770904384e-02
5.388000000000000256e+01,2.839242952924616453e-02
5.392000000000000171e+01,3.113658447462584744e-02
5.396000000000000085e+01,2.571658390915635209e-02
5.400000000000000000e+01,2.868094677084893560e-02
5.403999999999999915e+01,2.083339252237170411e-02
5.407999999999999829e+01,2.556249432232643795e-02
5.411999999999999744e+01,2.896749748158019416e-02
5.415999999999999659e+01,2.001605714544116288e-02
5.420000000000000284e+01,2.231739338285265370e-02
5.424000000000000199e+01,2.219139841502346805e-02
5.428000000000000114e+01,2.956718386971611198e-02
5.432000000000000028e+01,2.061488409242458533e-02
5.435999999999999943e+01,2.821088938644047972e-02
5.439999999999999858e+01,2.565692426281657168e-02
5.443999999999999773e+01,3.259056440434703744e-02
5.447999999999999687e+01,3.886205259770653814e-02
5.452000000000000313e+01,4.094103893981859699e-02
5.456000000000000227e+01,2.757453166564968750e-02
5.460000000000000142e+01,3.230086180951635688e-02
5.464000000000000057e+01,4.232250923399386716e-02
5.467999999999999972e+01,2.079144057442020715e-02
5.471999999999999886e+01,2.617908773371548786e-02
5.475999999999999801e+01,3.421429123669048056e-02
5.479999999999999716e+01,2.084653851849744069e-02
5.484000000000000341e+01,2.888133084780106913e-02
5.488000000000000256e+01,3.051715818394620805e-02
5.492000000000000171e+01,2.089978916180644519e-02
5.496000000000000085e+01,2.231456238827542182e-02
5.500000000000000000e+01,3.454083161540095342e-02
5.503999999999999915e+01,2.183379803022933094e-02
5.507999999999999829e+01,2.699896290142515115e-02
5.511999999999999744e+01,3.084004569165652368e-02
5.515999999999999659e+01,2.585505211169777939e-02
5.520000000000000284e+01,2.285568143067787453e-02
5.524000000000000199e+01,3.088845763499293087e-02
5.528000000000000114e+01,2.965386563560297797e-02
5.532000000000000028e+01,2.886037014992886424e-02
5.535999999999999943e+01,2.586020891626060816e-02
5.539999999999999858e+01,2.771408372791967986e-02
5.543999999999999773e+01,2.802323484738846945e-02
5.547999999999999687e+01,2.678766293705631824e-02
5.552000000000000313e+01,2.422801556965442291e-02
5.556000000000000227e+01,2.872887600055398089e-02
5.560000000000000142e+01,3.653924741633670509e-02
5.564000000000000057e+01,2.493249871420484889e-02
5.567999999999999972e+01,2.325466963198397768e-02
5.571999999999999886e+01,2.863735099762233088e-02
5.575999999999999801e+01,3.799148672872665333e-02
5.579999999999999716e+01,2.241233223293357876e-02
5.584000000000000341e+01,3.485514665462258188e-02
5.588000000000000256e+01,2.324725981555957749e-02
5.592000000000000171e+01,4.672204434968951076e-02
5.596000000000000085e+01,3.511378343076519692e-02
5.600000000000000000e+01,4.005385474111618910e-02
5.603999999999999915e+01,3.925692099862791024e-02
5.607999999999999829e+01,4.860956041028695329e-02
5.611999999999999744e+01,3.655926545963014695e-02
5.615999999999999659e+01,3.532048571892442562e-02
5.620000000000000284e+01,4.356934038850938939e-02
5.624000000000000199e+01,4.431601803446939825e-02
5.628000000000000114e+01,3.689857858816904951e-02
5.632000000000000028e+01,3.852748171864450039e-02
5.635999999999999943e+01,4.170073313667010256e-02
5.639999999999999858e+01,1.972005735329854237e-02
5.643999999999999773e+01,2.885041716803374637e-02
5.647999999999999687e+01,4.084900871953716511e-02
5.652000000000000313e+01,3.828472675320984675e-02
5.656000000000000227e+01,2.910086070373977055e-02
5.660000000000000142e+01,3.359692698494597118e-02
5.664000000000000057e+01,3.081146977676342547e-02
5.667999999999999972e+01,2.692260323114717760e-02
5.671999999999999886e+01,2.524003166561099992e-02
5.675999999999999801e+01,3.723739508030894652e-02
5.679999999999999716e+01,3.533383034492723618e-02
5.684000000000000341e+01,4.181467606635952405e-02
5.688000000000000256e+01,3.240877276941659529e-02
5.692000000000000171e+01,3.933057002636498878e-02
5.696000000000000085e+01,3.919149600338207862e-02
5.700000000000000000e+01,3.463931428695675441e-02
5.703999999999999915e+01,4.509095364954147922e-02
5.707999999999999829e+01,4.561331388492208261e-02
5.711999999999999744e+01,2.605663777977334020e-02
5.715999999999999659e+01,4.092071285086609084e-02
5.720000000000000284e+01,3.725028127859966037e-02
5.724000000000000199e+01,3.578615329747638490e-02
5.728000000000000114e+01,4.535420598355070776e-02
5.732000000000000028e+01,4.058004530992519177e-02
5.735999999999999943e+01,3.668830875256145346e-02
5.739999999999999858e+01,3.941581664273121483e-02
5.743999999999999773e+01,3.795087103608427159e-02
5.747999999999999687e+01,3.758899844320905820e-02
5.752000000000000313e+01,3.016626384385504706e-02
5.756000000000000227e+01,3.862994657594056441e-02
5.760000000000000142e+01,2.569071945412045727e-02
5.764000000000000057e+01,3.636055285047582603e-02
5.767999999999999972e+01,3.842499851751875889e-02
5.771999999999999886e+01,2.967758801422247864e-02
5.775999999999999801e+01,3.990565489909585206e-02
5.779999999999999716e+01,3.490892873157645793e-02
5.784000000000000341e+01,3.609016047719137282e-02
5.788000000000000256e+01,3.947770641218085325e-02
5.792000000000000171e+01,4.132056972312671272e-02
5.796000000000000085e+01,3.080705246567874006e-02
5.800000000000000000e+01,3.264960926048844636e-02
5.803999999999999915e+01,3.802236435628028599e-02
5.807999999999999829e+01,4.471884931202751295e-02
5.811999999999999744e+01,4.523706983850427771e-02
5.815999999999999659e+01,3.781185131536708016e-02
5.820000000000000284e+01,3.656459666686939086e-02
5.824000000000000199e+01,2.847713884524472397e-02
5.828000000000000114e+01,3.671740409875324379e-02
5.832000000000000028e+01,3.326323547639803424e-02
5.835999999999999943e+01,4.635743816429649389e-02
5.839999999999999858e+01,3.407709985992941198e-02
5.843999999999999773e+01,4.033095638366958335e-02
5.847999999999999687e+01,3.709685078452015089e-02
5.852000000000000313e+01,4.290912419356698870e-02
5.856000000000000227e+01,3.415855786664574734e-02
5.860000000000000142e+01,3.180660894860030952e-02
5.864000000000000057e+01,4.909209272231753601e-02
5.867999999999999972e+01,3.857592412673751386e-02
5.871999999999999886e+01,4.284295752018342507e-02
5.875999999999999801e+01,4.468273455839791991e-02
5.879999999999999716e+01,3.879973005557145471e-02
5.884000000000000341e+01,5.189222082543015757e-02
5.888000000000000256e+01,4.071341310340497593e-02
5.892000000000000171e+01,3.571258117902957607e-02
5.896000000000000085e+01,5.299695016963212185e-02
5.900000000000000000e+01,4.799584484859384381e-02
5.903999999999999915e+01,4.277395691246655557e-02
5.907999999999999829e+01,4.417134124423024305e-02
5.911999999999999744e+01,4.909894176149163375e-02
5.915999999999999659e+01,4.056694703033490029e-02
5.920000000000000284e+01,4.681816223687761819e-02
5.924000000000000199e+01,5.086277594720417516e-02
5.928000000000000114e+01,4.365426549969729508e-02
5.932000000000000028e+01,4.615408803920086067e-02
5.935999999999999943e+01,5.152219000751397798e-02
5.939999999999999858e+01,4.563716980516213662e-02
5.943999999999999773e+01,3.180873174965910544e-02
5.947999999999999687e+01,4.026550322019700062e-02
5.952000000000000313e+01,5.048732221739422182e-02
5.956000000000000227e+01,4.239532056255222031e-02
5.960000000000000142e+01,5.129300457272059632e-02
5.964000000000000057e+01,4.496592600041154214e-02
5.967999999999999972e+01,4.106583833534438455e-02
5.971999999999999886e+01,4.863926556391532513e-02
5.975999999999999801e+01,4.826928023845084709e-02
5.979999999999999716e+01,5.407728528320440015e-02
5.984000000000000341e+01,3.715853610581250355e-02
5.988000000000000256e+01,4.539341291279736651e-02
5.992000000000000171e+01,4.921523038077062900e-02
5.996000000000000085e+01,4.487299169631405599e-02
