2.003999999999999915e+01,3.543764655625464971e-02
2.007999999999999829e+01,2.612863856193313461e-02
2.012000000000000099e+01,3.348710947431339513e-02
2.016000000000000014e+01,1.554068330020859368e-02
2.019999999999999929e+01,4.097143257317638343e-02
2.023999999999999844e+01,2.643707858403049685e-02
2.028000000000000114e+01,2.455371222905229286e-02
2.032000000000000028e+01,3.793205655849451324e-02
2.035999999999999943e+01,4.528468693715826526e-02
2.039999999999999858e+01,1.648788882934184089e-02
2.044000000000000128e+01,2.484270448932230160e-02
2.048000000000000043e+01,3.259407810369058939e-02
2.051999999999999957e+01,2.206943090563566467e-02
2.055999999999999872e+01,4.026176021839146524e-02
2.060000000000000142e+01,2.451373869076743303e-02
2.064000000000000057e+01,3.045382877603481850e-02
2.067999999999999972e+01,2.695419208616176357e-02
2.071999999999999886e+01,2.465854249004009041e-02
2.076000000000000156e+01,1.031244617111016365e-02
2.080000000000000071e+01,2.247426009303502698e-02
2.083999999999999986e+01,2.861037247452068166e-02
2.087999999999999901e+01,3.675377516840160064e-02
2.092000000000000171e+01,1.858817657316949590e-02
2.096000000000000085e+01,1.146698502969158845e-02
2.100000000000000000e+01,1.559102634262859999e-02
2.103999999999999915e+01,2.493555843219623369e-02
2.107999999999999829e+01,2.925851903882456528e-02
2.112000000000000099e+01,1.811702113247752599e-02
2.116000000000000014e+01,3.207766938147791486e-02
2.119999999999999929e+01,4.904974006876282322e-02
2.123999999999999844e+01,2.424931041461398859e-02
2.128000000000000114e+01,2.374773093653358841e-02
2.132000000000000028e+01,3.328644396563193442e-02
2.135999999999999943e+01,1.571286799989783309e-02
2.139999999999999858e+01,3.187690952471795847e-02
2.144000000000000128e+01,2.655175769614295106e-02
2.148000000000000043e+01,5.155020432859043489e-02
2.151999999999999957e+01,2.794811566312555354e-02
2.155999999999999872e+01,1.237807800534933798e-02
2.160000000000000142e+01,2.211102264953108618e-02
2.164000000000000057e+01,3.545787541953971528e-02
2.167999999999999972e+01,2.068832361594559466e-02
2.171999999999999886e+01,3.343082969202015864e-02
2.176000000000000156e+01,2.247507821313335374e-02
2.180000000000000071e+01,3.059674632273377479e-02
2.183999999999999986e+01,3.008201673071136603e-02
2.187999999999999901e+01,1.872181799613519340e-02
2.192000000000000171e+01,3.246378506661049684e-02
2.196000000000000085e+01,2.029842727797346452e-02
2.200000000000000000e+01,2.761214378973038397e-02
2.203999999999999915e+01,2.086719896825792175e-02
2.207999999999999829e+01,2.556833969692995714e-02
2.212000000000000099e+01,3.729742205969020785e-02
2.216000000000000014e+01,2.793897922549634649e-02
2.219999999999999929e+01,2.580930486424663772e-02
2.223999999999999844e+01,2.287540919149658875e-02
2.228000000000000114e+01,3.199007855126408117e-02
2.232000000000000028e+01,2.222629932598304409e-02
2.235999999999999943e+01,3.133912939745259890e-02
2.239999999999999858e+01,1.956526524760385591e-02
2.244000000000000128e+01,3.148780695407918384e-02
2.248000000000000043e+01,2.794592531020748116e-02
2.251999999999999957e+01,3.303859380610119079e-02
2.255999999999999872e+01,3.069983183867701360e-02
2.260000000000000142e+01,3.177417804729281564e-02
2.264000000000000057e+01,2.581874540191262182e-02
2.267999999999999972e+01,2.709209363981566338e-02
2.271999999999999886e+01,2.896700636981994550e-02
2.276000000000000156e+01,3.345173233077998465e-02
2.280000000000000071e+01,4.034544778642467494e-02
2.283999999999999986e+01,2.695495470829370119e-02
2.287999999999999901e+01,2.983036235538981742e-02
2.292000000000000171e+01,2.587682315832051660e-02
2.296000000000000085e+01,2.533640144504571007e-02
2.300000000000000000e+01,1.736456064459750148e-02
2.303999999999999915e+01,3.590068799992131299e-02
2.307999999999999829e+01,2.129982771681618661e-02
2.312000000000000099e+01,2.115745142991430280e-02
2.316000000000000014e+01,3.326448769828463381e-02
2.319999999999999929e+01,2.006670547898417242e-02
2.323999999999999844e+01,3.940163970040987118e-02
2.328000000000000114e+01,4.005897492793196457e-02
2.332000000000000028e+01,4.473191125840101506e-02
2.335999999999999943e+01,3.394044699081209815e-02
2.339999999999999858e+01,1.812747122359090537e-02
2.344000000000000128e+01,2.741670056082939899e-02
2.348000000000000043e+01,2.987699753263179867e-02
2.351999999999999957e+01,2.490588886179518832e-02
2.355999999999999872e+01,2.796688290839479882e-02
2.360000000000000142e+01,4.809709537759488535e-02
2.364000000000000057e+01,2.022930167261276918e-02
2.367999999999999972e+01,3.714454678292610640e-02
2.371999999999999886e+01,2.554179052264727787e-02
2.376000000000000156e+01,2.980330819895269864e-02
2.380000000000000071e+01,1.940373573520838210e-02
2.383999999999999986e+01,1.723709799873121909e-02
2.387999999999999901e+01,1.145473456622291518e-02
2.392000000000000171e+01,2.816386663245602426e-02
2.396000000000000085e+01,3.382675856380702728e-02
2.400000000000000000e+01,2.764011231260669194e-02
2.403999999999999915e+01,3.089135458244388760e-02
2.407999999999999829e+01,1.707161670600457898e-02
2.412000000000000099e+01,2.152605931949560028e-02
2.416000000000000014e+01,2.738540273797000074e-02
2.419999999999999929e+01,3.545294707748646718e-02
2.423999999999999844e+01,2.825693834169982349e-02
2.428000000000000114e+01,2.527738030000505759e-02
2.432000000000000028e+01,2.330107765914127618e-02
2.435999999999999943e+01,3.257009474706856061e-02
2.439999999999999858e+01,8.902983095466348099e-03
2.444000000000000128e+01,3.584284825237692845e-02
2.448000000000000043e+01,1.920287390345102457e-02
2.451999999999999957e+01,1.682059497708568094e-02
2.455999999999999872e+01,1.584322719765308626e-02
2.460000000000000142e+01,2.751695874544293069e-02
2.464000000000000057e+01,2.031230169149171594e-02
2.467999999999999972e+01,1.792657998497971042e-02
2.471999999999999886e+01,3.040103318340086486e-02
2.476000000000000156e+01,4.287462930646761955e-02
2.480000000000000071e+01,2.120715840915867942e-02
2.483999999999999986e+01,2.142873248567694205e-02
2.487999999999999901e+01,2.807584524433715326e-02
2.492000000000000171e+01,2.668911424578366762e-02
2.496000000000000085e+01,3.433864601381964032e-02
2.500000000000000000e+01,1.507680766922981155e-02
2.503999999999999915e+01,3.838897082743788353e-02
2.507999999999999829e+01,2.615430081137290474e-02
2.512000000000000099e+01,1.833692797795980975e-02
2.516000000000000014e+01,1.774840014791719683e-02
2.519999999999999929e+01,1.414665506167487805e-02
2.523999999999999844e+01,2.399932493163831407e-02
2.528000000000000114e+01,1.577692182884364927e-02
2.532000000000000028e+01,3.125099904440959558e-02
2.535999999999999943e+01,3.146155214213108148e-02
2.539999999999999858e+01,1.600693261527105435e-02
2.544000000000000128e+01,3.328591118032542956e-02
2.548000000000000043e+01,2.264940819076364381e-02
2.551999999999999957e+01,3.269701913354731287e-02
2.555999999999999872e+01,4.414956707813772613e-02
2.560000000000000142e+01,3.230560629141410178e-02
2.564000000000000057e+01,2.588307998420660491e-02
2.567999999999999972e+01,3.833724881193063816e-02
2.571999999999999886e+01,3.331883035443902741e-02
2.576000000000000156e+01,3.211525131532046162e-02
2.580000000000000071e+01,1.243496320704634908e-02
2.583999999999999986e+01,1.243467345234746876e-02
2.587999999999999901e+01,2.468386657817773361e-02
2.592000000000000171e+01,2.588687024467823186e-02
2.596000000000000085e+01,4.556492674454332148e-02
2.600000000000000000e+01,3.371266926593870228e-02
2.603999999999999915e+01,2.226123734715021799e-02
2.607999999999999829e+01,2.185434485706959362e-02
2.612000000000000099e+01,3.088539466616412391e-02
2.616000000000000014e+01,2.063644563199362042e-02
2.619999999999999929e+01,1.580894555606848426e-02
2.623999999999999844e+01,2.604248445495067205e-02
2.628000000000000114e+01,2.402489457946194867e-02
2.632000000000000028e+01,2.903535492853136224e-02
2.635999999999999943e+01,2.360211150581354583e-02
2.639999999999999858e+01,2.459444606464579811e-02
2.644000000000000128e+01,3.301648349155301976e-02
2.648000000000000043e+01,2.717914961040422683e-02
2.651999999999999957e+01,3.218554176364191860e-02
2.655999999999999872e+01,2.574411146373724660e-02
2.660000000000000142e+01,2.633073862775523258e-02
2.664000000000000057e+01,2.169511329146638426e-02
2.667999999999999972e+01,1.083311263673542024e-02
2.671999999999999886e+01,2.105690648113063210e-02
2.676000000000000156e+01,1.340649038844691360e-02
2.680000000000000071e+01,2.021465343790192909e-02
2.683999999999999986e+01,9.349433389133948030e-03
2.687999999999999901e+01,2.077496059906784945e-02
2.692000000000000171e+01,6.494115960529342653e-03
2.696000000000000085e+01,2.012711422213011442e-02
2.700000000000000000e+01,4.239477845333092937e-02
2.703999999999999915e+01,1.284885377806705906e-02
2.707999999999999829e+01,4.395121269148175719e-02
2.712000000000000099e+01,2.524823247148145350e-02
2.716000000000000014e+01,2.180713978323835581e-02
2.719999999999999929e+01,2.358669713764849005e-02
2.723999999999999844e+01,2.034484227514180010e-02
2.728000000000000114e+01,1.208157622991327604e-02
2.732000000000000028e+01,2.028515047601761601e-02
2.735999999999999943e+01,1.985246973940242923e-02
2.739999999999999858e+01,1.198848367705858224e-02
2.744000000000000128e+01,2.420618687702006180e-02
2.748000000000000043e+01,2.899258681964264270e-02
2.751999999999999957e+01,3.819634599661419355e-02
2.755999999999999872e+01,3.032921500226981940e-02
2.760000000000000142e+01,2.728109485159613615e-02
2.764000000000000057e+01,2.041652144875109182e-02
2.767999999999999972e+01,1.375199123724922014e-02
2.771999999999999886e+01,2.516090982275758989e-02
2.776000000000000156e+01,2.733110945609797462e-02
2.780000000000000071e+01,2.327496272845503214e-02
2.783999999999999986e+01,1.560319269008137062e-02
2.787999999999999901e+01,1.495951320986899091e-02
2.792000000000000171e+01,1.531918220803337068e-02
2.796000000000000085e+01,7.042611736402410241e-03
2.800000000000000000e+01,3.009393215190103027e-02
2.803999999999999915e+01,9.163855563981948213e-03
2.807999999999999829e+01,2.237321871810595691e-02
2.812000000000000099e+01,1.630263370451758009e-02
2.816000000000000014e+01,3.011293179827781441e-02
2.819999999999999929e+01,2.665153149737529981e-02
2.823999999999999844e+01,2.017699253908961446e-02
2.828000000000000114e+01,3.016931869281562484e-02
2.832000000000000028e+01,1.485695873582477435e-02
2.835999999999999943e+01,2.504858063020455258e-02
2.839999999999999858e+01,2.519820103767164698e-02
2.844000000000000128e+01,1.711324392661488919e-02
2.848000000000000043e+01,2.549515709854455192e-02
2.851999999999999957e+01,1.058063703539187730e-02
2.855999999999999872e+01,2.779732141996189149e-02
2.860000000000000142e+01,6.254067311958995401e-03
2.864000000000000057e+01,3.310882612781310824e-02
2.867999999999999972e+01,3.224901089511303387e-02
2.871999999999999886e+01,2.415874923558364307e-02
2.876000000000000156e+01,1.928093024765079738e-02
2.880000000000000071e+01,2.384112284995473438e-02
2.883999999999999986e+01,1.755602625962661076e-02
2.887999999999999901e+01,1.689327268907162005e-02
2.892000000000000171e+01,2.325863656574654256e-02
2.896000000000000085e+01,2.721335471194536587e-02
2.900000000000000000e+01,2.474093275254345484e-02
2.903999999999999915e+01,7.808380903096493603e-03
2.907999999999999829e+01,1.557653043866553261e-02
2.912000000000000099e+01,1.631506865982071050e-02
2.916000000000000014e+01,1.223306907588268128e-02
2.919999999999999929e+01,9.957750146423857002e-03
2.923999999999999844e+01,2.495262023151956221e-02
2.928000000000000114e+01,1.323705563331531790e-02
2.932000000000000028e+01,1.417271239733786103e-02
2.935999999999999943e+01,1.028783652724210053e-02
2.939999999999999858e+01,2.226738041521877237e-02
2.944000000000000128e+01,2.018845429603195046e-02
2.948000000000000043e+01,7.264255531332236733e-03
2.951999999999999957e+01,1.783582090499700665e-02
2.955999999999999872e+01,1.796376524247082773e-02
2.960000000000000142e+01,3.415695927945777005e-02
2.964000000000000057e+01,2.363972794089936463e-02
2.967999999999999972e+01,1.753991168321717559e-02
2.971999999999999886e+01,1.264431521315061320e-02
2.976000000000000156e+01,1.819087900632962440e-02
2.980000000000000071e+01,1.751114814827295016e-02
2.983999999999999986e+01,3.189254934256924301e-02
2.987999999999999901e+01,2.157177907114960283e-02
2.992000000000000171e+01,2.249647228161923487e-02
2.996000000000000085e+01,2.743693827139788433e-02
3.000000000000000000e+01,8.880184520841404028e-03
3.003999999999999915e+01,1.622910559877549508e-02
3.007999999999999829e+01,1.293359431458697244e-02
3.012000000000000099e+01,1.244891132369141742e-02
3.016000000000000014e+01,2.059897600379709953e-02
3.019999999999999929e+01,2.453100407927638962e-02
3.023999999999999844e+01,1.842107824081080925e-02
3.028000000000000114e+01,3.474148145391138618e-03
3.032000000000000028e+01,1.162135333130308312e-02
3.035999999999999943e+01,3.101403337524883536e-02
3.039999999999999858e+01,1.947898751356766378e-02
3.044000000000000128e+01,1.838611949644623419e-02
3.048000000000000043e+01,2.612883219435169907e-02
3.051999999999999957e+01,1.780485510369754151e-02
3.055999999999999872e+01,6.266974568501459258e-03
3.060000000000000142e+01,2.264303104518515866e-02
3.064000000000000057e+01,1.732930726284665282e-02
3.067999999999999972e+01,2.004787028464594459e-02
3.071999999999999886e+01,2.236408078520667198e-02
3.076000000000000156e+01,1.403587650495904254e-02
3.080000000000000071e+01,3.040841808011025479e-02
3.083999999999999986e+01,2.709943227187382869e-02
3.087999999999999901e+01,3.142108889781792397e-02
3.092000000000000171e+01,1.947524130668606621e-02
3.096000000000000085e+01,9.536944645077120516e-03
3.100000000000000000e+01,2.188950176425008207e-02
3.103999999999999915e+01,1.556466052334004938e-02
3.107999999999999829e+01,2.530510724715648307e-02
3.112000000000000099e+01,1.616733290881389867e-02
3.116000000000000014e+01,0.000000000000000000e+00
3.119999999999999929e+01,1.134497007505819513e-02
3.123999999999999844e+01,1.445543502523908945e-02
3.128000000000000114e+01,1.816768578524079886e-02
3.132000000000000028e+01,2.428914632345197458e-02
3.135999999999999943e+01,1.595053695492544207e-02
3.139999999999999858e+01,1.644753208790968729e-02
3.144000000000000128e+01,1.714466762656253335e-02
3.148000000000000043e+01,5.389984065722295235e-03
3.151999999999999957e+01,2.154926130324567868e-02
3.155999999999999872e+01,2.124022610034619757e-02
3.160000000000000142e+01,7.073601507276733313e-03
3.164000000000000057e+01,1.760774448770001388e-02
3.167999999999999972e+01,2.733791022663177930e-02
3.171999999999999886e+01,1.939481903912467636e-02
3.176000000000000156e+01,1.707414533342720142e-02
3.180000000000000071e+01,1.153960024323134360e-02
3.183999999999999986e+01,1.343489763742878977e-02
3.187999999999999901e+01,2.195673946835065976e-02
3.192000000000000171e+01,2.123996990337965324e-02
3.196000000000000085e+01,1.650603400882595315e-02
3.200000000000000000e+01,2.221431629243523012e-02
3.203999999999999915e+01,3.374584806768479717e-02
3.207999999999999829e+01,1.394804783256350759e-02
3.211999999999999744e+01,1.142051107403323738e-02
3.215999999999999659e+01,1.913437185997963683e-02
3.220000000000000284e+01,1.178571014588440657e-02
3.224000000000000199e+01,5.440508603220691429e-03
3.228000000000000114e+01,2.058289485371336131e-02
3.232000000000000028e+01,2.849492775492236049e-02
3.235999999999999943e+01,1.029907991724062985e-02
3.239999999999999858e+01,3.367330002189809074e-02
3.243999999999999773e+01,1.909097999856195979e-02
3.247999999999999687e+01,2.398800523469706361e-02
3.252000000000000313e+01,1.020767037596256518e-02
3.256000000000000227e+01,1.731245623835115863e-02
3.260000000000000142e+01,1.919514369548053212e-02
3.264000000000000057e+01,1.866728056806943314e-02
3.267999999999999972e+01,2.657340549547546407e-02
3.271999999999999886e+01,2.001949567877224848e-02
3.275999999999999801e+01,2.892844295158530227e-02
3.279999999999999716e+01,9.721273156992461459e-03
3.284000000000000341e+01,2.204294415758420791e-02
3.288000000000000256e+01,1.749468730525464977e-02
3.292000000000000171e+01,2.302071518644025448e-03
3.296000000000000085e+01,6.387988631378203885e-03
3.300000000000000000e+01,1.087491125385012941e-02
3.303999999999999915e+01,2.319335692749595682e-02
3.307999999999999829e+01,1.844105514872920737e-02
3.311999999999999744e+01,1.408976198228508933e-02
3.315999999999999659e+01,1.736917019913370580e-02
3.320000000000000284e+01,9.803401950599964845e-03
3.324000000000000199e+01,1.328235825167060728e-02
3.328000000000000114e+01,1.696150253137761535e-02
3.332000000000000028e+01,1.722598995552835494e-02
3.335999999999999943e+01,2.953932888419819047e-02
3.339999999999999858e+01,1.453986534025010144e-02
3.343999999999999773e+01,2.062637004018008299e-02
3.347999999999999687e+01,2.048667523480996247e-02
3.352000000000000313e+01,3.677893894103668494e-03
3.356000000000000227e+01,2.341859122574066476e-02
3.360000000000000142e+01,1.926051235365612915e-02
3.364000000000000057e+01,1.369603260423481704e-02
3.367999999999999972e+01,6.725153011671582311e-03
3.371999999999999886e+01,1.863117642722524753e-02
3.375999999999999801e+01,1.848708923333009652e-02
3.379999999999999716e+01,2.235887410145923071e-02
3.384000000000000341e+01,1.839787060831497845e-02
3.388000000000000256e+01,1.403459629533349538e-02
3.392000000000000171e+01,1.388802191742722660e-02
3.396000000000000085e+01,3.944639894865087371e-02
3.400000000000000000e+01,1.941693490777677764e-02
3.403999999999999915e+01,3.131799222886799683e-02
3.407999999999999829e+01,2.273430685449870717e-02
3.411999999999999744e+01,1.696155319291756808e-02
3.415999999999999659e+01,2.143024878556074042e-02
3.420000000000000284e+01,3.192307448683762844e-02
3.424000000000000199e+01,1.249239741753291333e-02
3.428000000000000114e+01,1.374606076926826632e-02
3.432000000000000028e+01,2.443787843014375016e-02
3.435999999999999943e+01,1.484578540538951906e-02
3.439999999999999858e+01,2.192154049494060564e-02
3.443999999999999773e+01,4.295242017000371060e-03
3.447999999999999687e+01,1.920195058856768305e-02
3.452000000000000313e+01,1.743959847967264248e-02
3.456000000000000227e+01,2.170138578716587080e-02
3.460000000000000142e+01,2.716751905405885917e-02
3.464000000000000057e+01,1.415717180888054379e-02
3.467999999999999972e+01,2.122870101529387987e-02
3.471999999999999886e+01,2.307818662878038593e-02
3.475999999999999801e+01,5.447070980450685086e-03
3.479999999999999716e+01,1.733659909819842970e-02
3.484000000000000341e+01,3.444697478983523020e-02
3.488000000000000256e+01,2.183468902847561857e-02
3.492000000000000171e+01,1.022593272960932269e-02
3.496000000000000085e+01,1.990400874449526486e-02
3.500000000000000000e+01,1.612623281671395764e-02
3.503999999999999915e+01,2.359405274777577610e-02
3.507999999999999829e+01,2.041756959108394567e-02
3.511999999999999744e+01,2.487183849323759341e-02
3.515999999999999659e+01,2.490737426047281988e-02
3.520000000000000284e+01,1.650768251766507669e-02
3.524000000000000199e+01,1.292719914976389259e-02
3.528000000000000114e+01,8.542831617916794851e-03
3.532000000000000028e+01,3.428159560807957085e-02
3.535999999999999943e+01,2.105977111415028094e-02
3.539999999999999858e+01,2.069014995054658732e-02
3.543999999999999773e+01,8.069636843215969094e-03
3.547999999999999687e+01,1.713761903510383974e-02
3.552000000000000313e+01,1.415553612212076644e-02
3.556000000000000227e+01,7.959679038964651704e-03
3.560000000000000142e+01,1.963664971875836440e-02
3.564000000000000057e+01,1.705448592114013756e-02
3.567999999999999972e+01,2.571793452948425290e-02
3.571999999999999886e+01,2.192967366300023827e-02
3.575999999999999801e+01,4.043238964649724376e-02
3.579999999999999716e+01,2.419184870183230598e-02
3.584000000000000341e+01,2.281177016829720114e-02
3.588000000000000256e+01,2.785751472051566785e-02
3.592000000000000171e+01,2.527134946006427685e-02
3.596000000000000085e+01,2.449203963303885068e-02
3.600000000000000000e+01,2.692535966689620433e-02
3.603999999999999915e+01,3.799357939841278842e-02
3.607999999999999829e+01,2.596638612815884220e-02
3.611999999999999744e+01,2.217244508302210551e-02
3.615999999999999659e+01,3.504639765676856311e-02
3.620000000000000284e+01,2.281669262666948320e-02
3.624000000000000199e+01,3.026725484083333390e-02
3.628000000000000114e+01,3.751643305732296069e-02
3.632000000000000028e+01,3.793701088495610857e-02
3.635999999999999943e+01,4.578754806101213715e-02
3.639999999999999858e+01,4.741196122799953838e-02
3.643999999999999773e+01,3.799045692892975834e-02
3.647999999999999687e+01,3.820798755599347923e-02
3.652000000000000313e+01,3.661754222682491594e-02
3.656000000000000227e+01,4.366201003984996470e-02
3.660000000000000142e+01,3.785314158940382423e-02
3.664000000000000057e+01,3.425279569462976598e-02
3.667999999999999972e+01,4.169726329022600125e-02
3.671999999999999886e+01,3.146860323375224450e-02
3.675999999999999801e+01,5.116228715984071779e-02
3.679999999999999716e+01,2.948552258726359551e-02
3.684000000000000341e+01,5.480120955524680343e-02
3.688000000000000256e+01,5.300500879603893545e-02
3.692000000000000171e+01,5.663053415932348816e-02
3.696000000000000085e+01,5.664067200832648835e-02
3.700000000000000000e+01,4.942057750885517353e-02
3.703999999999999915e+01,5.545437828263436592e-02
3.707999999999999829e+01,5.927856803797868640e-02
3.711999999999999744e+01,5.567170377696756267e-02
3.715999999999999659e+01,6.250719110526811728e-02
3.720000000000000284e+01,7.054709161564026720e-02
3.724000000000000199e+01,6.894686873711609876e-02
3.728000000000000114e+01,6.513704001113169995e-02
3.732000000000000028e+01,7.016296884751102581e-02
3.735999999999999943e+01,7.659413977320771172e-02
3.739999999999999858e+01,7.338519144678787298e-02
3.743999999999999773e+01,7.097901296667738502e-02
3.747999999999999687e+01,7.640447233338042154e-02
3.752000000000000313e+01,8.705084856503424173e-02
3.756000000000000227e+01,9.327855371346688296e-02
3.760000000000000142e+01,7.922243194606079508e-02
3.764000000000000057e+01,7.641197326016975488e-02
3.767999999999999972e+01,1.017164594091309049e-01
3.771999999999999886e+01,1.183849584318650561e-01
3.775999999999999801e+01,1.179828310029959887e-01
3.779999999999999716e+01,1.300313194152176444e-01
3.784000000000000341e+01,1.446900109498920062e-01
3.788000000000000256e+01,1.501102451837211249e-01
3.792000000000000171e+01,1.782231616549908026e-01
3.796000000000000085e+01,1.633590614555207321e-01
3.800000000000000000e+01,1.782165125281903462e-01
3.803999999999999915e+01,2.155658241704193068e-01
3.807999999999999829e+01,2.316271974548191337e-01
3.811999999999999744e+01,2.494954820191724043e-01
3.815999999999999659e+01,2.723838752251297457e-01
3.820000000000000284e+01,3.087270184664570594e-01
3.824000000000000199e+01,3.354300641737619770e-01
3.828000000000000114e+01,3.667515720843237959e-01
3.832000000000000028e+01,4.044989661665312486e-01
3.835999999999999943e+01,4.591151355188102801e-01
3.839999999999999858e+01,4.689468766423001700e-01
3.843999999999999773e+01,5.165331712327135838e-01
3.847999999999999687e+01,5.639181387061750206e-01
3.852000000000000313e+01,5.689285782990241014e-01
3.856000000000000227e+01,6.195257405095544456e-01
3.860000000000000142e+01,6.305599236943859598e-01
3.864000000000000057e+01,7.096732058574781732e-01
3.867999999999999972e+01,7.873802174517977592e-01
3.871999999999999886e+01,8.448034310877371444e-01
3.875999999999999801e+01,8.921849110932564830e-01
3.879999999999999716e+01,9.867597180853546757e-01
3.884000000000000341e+01,1.000000000000000000e+00
3.888000000000000256e+01,9.915507146997836196e-01
3.892000000000000171e+01,9.822976393473615842e-01
3.896000000000000085e+01,8.899026190858780883e-01
3.900000000000000000e+01,8.376720640156387621e-01
3.903999999999999915e+01,7.535098825735524475e-01
3.907999999999999829e+01,6.765769060346795705e-01
3.911999999999999744e+01,6.165127244155826913e-01
3.915999999999999659e+01,5.650835231613510201e-01
3.920000000000000284e+01,5.279123968792273081e-01
3.924000000000000199e+01,4.867242924910021307e-01
3.928000000000000114e+01,4.389084890148129969e-01
3.932000000000000028e+01,4.276423131350399753e-01
3.935999999999999943e+01,4.015146246465878810e-01
3.939999999999999858e+01,3.886408924488883310e-01
3.943999999999999773e+01,3.741600845616540605e-01
3.947999999999999687e+01,3.665068423786509988e-01
3.952000000000000313e+01,3.217005422020247085e-01
3.956000000000000227e+01,3.395510959875617796e-01
3.960000000000000142e+01,3.300890076006985918e-01
3.964000000000000057e+01,3.077736615491804550e-01
3.967999999999999972e+01,2.930891854547322817e-01
3.971999999999999886e+01,2.842281574173551872e-01
3.975999999999999801e+01,2.502635638194832257e-01
3.979999999999999716e+01,2.496354139009115125e-01
3.984000000000000341e+01,2.321375160793400783e-01
3.988000000000000256e+01,2.435579190552071005e-01
3.992000000000000171e+01,2.381085761964642500e-01
3.996000000000000085e+01,2.169944371601025546e-01
4.000000000000000000e+01,2.181713845983868361e-01
4.003999999999999915e+01,2.020769397637142417e-01
4.007999999999999829e+01,2.084744082425434852e-01
4.011999999999999744e+01,1.825386287318573053e-01
4.015999999999999659e+01,1.724675471776856983e-01
4.020000000000000284e+01,1.770562159914276235e-01
4.024000000000000199e+01,1.579471050482760819e-01
4.028000000000000114e+01,1.547026951642238857e-01
4.032000000000000028e+01,1.476421598678000491e-01
4.035999999999999943e+01,1.558438533874675069e-01
4.039999999999999858e+01,1.405485960574873738e-01
4.043999999999999773e+01,1.334867026456791061e-01
4.047999999999999687e+01,1.342565246453058247e-01
4.052000000000000313e+01,1.143409456843934024e-01
4.056000000000000227e+01,1.064744043830914699e-01
4.060000000000000142e+01,1.064395815958092684e-01
4.064000000000000057e+01,1.037935902925109788e-01
4.067999999999999972e+01,9.853643150739145595e-02
4.071999999999999886e+01,8.584831178346212510e-02
4.075999999999999801e+01,8.480758534918610148e-02
4.079999999999999716e+01,8.959033489524480254e-02
4.084000000000000341e+01,7.167944404966425376e-02
4.088000000000000256e+01,7.023574408750521414e-02
4.092000000000000171e+01,7.662377091292565945e-02
4.096000000000000085e+01,8.481878244614111939e-02
4.100000000000000000e+01,8.096387055919389286e-02
4.103999999999999915e+01,7.489945003911205323e-02
4.107999999999999829e+01,7.827335860711726045e-02
4.111999999999999744e+01,6.598250098915710293e-02
4.115999999999999659e+01,7.035966626444915828e-02
4.120000000000000284e+01,5.786711879936989184e-02
4.124000000000000199e+01,6.545661739385434663e-02
4.128000000000000114e+01,5.878712733241513860e-02
4.132000000000000028e+01,6.175679733469870841e-02
4.135999999999999943e+01,6.753758623905661840e-02
4.139999999999999858e+01,6.106763729473550090e-02
4.143999999999999773e+01,5.278983960016120358e-02
4.147999999999999687e+01,6.278667123612656498e-02
4.152000000000000313e+01,6.495091307624921428e-02
4.156000000000000227e+01,5.104875056561906238e-02
4.160000000000000142e+01,5.421627186531752934e-02
4.164000000000000057e+01,4.352646335777879405e-02
4.167999999999999972e+01,5.191458843361844433e-02
4.171999999999999886e+01,4.604373622967883328e-02
4.175999999999999801e+01,5.182030317026623673e-02
4.179999999999999716e+01,5.237500957043340205e-02
4.184000000000000341e+01,5.915486838093601818e-02
4.188000000000000256e+01,4.926585680284744501e-02
4.192000000000000171e+01,3.174509054133171221e-02
4.196000000000000085e+01,4.454845224865382203e-02
4.200000000000000000e+01,4.630604024301699512e-02
4.203999999999999915e+01,4.143600050886781655e-02
4.207999999999999829e+01,5.042246066793096976e-02
4.211999999999999744e+01,4.193675756170878177e-02
4.215999999999999659e+01,5.393477384246619932e-02
4.220000000000000284e+01,3.339877114137965869e-02
4.224000000000000199e+01,4.318690364849566560e-02
4.228000000000000114e+01,5.839690086022770316e-02
4.232000000000000028e+01,4.990917209320374498e-02
4.235999999999999943e+01,5.507712568829091493e-02
4.239999999999999858e+01,5.181003792842636679e-02
4.243999999999999773e+01,6.360440799232471021e-02
4.247999999999999687e+01,5.491425254170251985e-02
4.252000000000000313e+01,4.923607075527436372e-02
4.256000000000000227e+01,5.319708109261243878e-02
4.260000000000000142e+01,4.370243598432415472e-02
4.264000000000000057e+01,3.641646856095082097e-02
4.267999999999999972e+01,4.037629452765643945e-02
4.271999999999999886e+01,5.176624427978231829e-02
4.275999999999999801e+01,5.472116198471112247e-02
4.279999999999999716e+01,5.486414224968520770e-02
4.284000000000000341e+01,4.637126776538614409e-02
4.288000000000000256e+01,3.406233405719234081e-02
4.292000000000000171e+01,5.408580084317499842e-02
4.296000000000000085e+01,4.599341324726938240e-02
4.300000000000000000e+01,3.288002090725802851e-02
4.303999999999999915e+01,5.370563032773575940e-02
4.307999999999999829e+01,5.023105910776377858e-02
4.311999999999999744e+01,4.956765229444406312e-02
4.315999999999999659e+01,4.709644120125405786e-02
4.320000000000000284e+01,5.486691309034746888e-02
4.324000000000000199e+01,6.625185157054198914e-02
4.328000000000000114e+01,5.574651182685313316e-02
4.332000000000000028e+01,5.206883707011098622e-02
4.335999999999999943e+01,5.401387971171458385e-02
4.339999999999999858e+01,7.081958022729381574e-02
4.343999999999999773e+01,5.388634519827680686e-02
4.347999999999999687e+01,6.245748294632228609e-02
4.352000000000000313e+01,6.460185600153453556e-02
4.356000000000000227e+01,5.831121769344875527e-02
4.360000000000000142e+01,8.073815159246605644e-02
4.364000000000000057e+01,6.038904044689266670e-02
4.367999999999999972e+01,6.213028615143496164e-02
4.371999999999999886e+01,6.387116498903012973e-02
4.375999999999999801e+01,6.842322478039679357e-02
4.379999999999999716e+01,7.839718857578771571e-02
4.384000000000000341e+01,7.853037485398335626e-02
4.388000000000000256e+01,7.926567271340961840e-02
4.392000000000000171e+01,9.265256941622014575e-02
4.396000000000000085e+01,8.595662841065544735e-02
4.400000000000000000e+01,9.532630941478657804e-02
4.403999999999999915e+01,1.083104776939178143e-01
4.407999999999999829e+01,9.096974807349364478e-02
4.411999999999999744e+01,8.808804540162236407e-02
4.415999999999999659e+01,1.068950624492742002e-01
4.420000000000000284e+01,1.040126498299925456e-01
4.424000000000000199e+01,1.019331828701620368e-01
4.428000000000000114e+01,1.036690341609673854e-01
4.432000000000000028e+01,1.025929873112261526e-01
4.435999999999999943e+01,1.328452543343497660e-01
4.439999999999999858e+01,1.414080968615146483e-01
4.443999999999999773e+01,1.513763645305034600e-01
4.447999999999999687e+01,1.472865510496306485e-01
4.452000000000000313e+01,1.468112372540973931e-01
4.456000000000000227e+01,1.515570223418264695e-01
4.460000000000000142e+01,1.474661734143942748e-01
4.464000000000000057e+01,1.811300382541028153e-01
4.467999999999999972e+01,1.786451023636669577e-01
4.471999999999999886e+01,1.882093116891164764e-01
4.475999999999999801e+01,1.764857553672938284e-01
4.479999999999999716e+01,1.840410380665217227e-01
4.484000000000000341e+01,1.958133030360467430e-01
4.488000000000000256e+01,2.140116237851896197e-01
4.492000000000000171e+01,2.147378536626937118e-01
4.496000000000000085e+01,2.236975643223992338e-01
4.500000000000000000e+01,2.282387962591446717e-01
4.503999999999999915e+01,2.554728945200319123e-01
4.507999999999999829e+01,2.608167610958087579e-01
4.511999999999999744e+01,2.780089584589545137e-01
4.515999999999999659e+01,2.837538142696107157e-01
4.520000000000000284e+01,2.605795745314319345e-01
4.524000000000000199e+01,2.681311971070090006e-01
4.528000000000000114e+01,2.660429041668750383e-01
4.532000000000000028e+01,2.561221196794188915e-01
4.535999999999999943e+01,2.512216299886580462e-01
4.539999999999999858e+01,2.184061737723670682e-01
4.543999999999999773e+01,2.135050382542828806e-01
4.547999999999999687e+01,1.929392492774831547e-01
4.552000000000000313e+01,1.868325234460596063e-01
4.556000000000000227e+01,1.757048590590072068e-01
4.560000000000000142e+01,1.609620305437828858e-01
4.564000000000000057e+01,1.484279572780948520e-01
4.567999999999999972e+01,1.332828458049545861e-01
4.571999999999999886e+01,1.301869054025735495e-01
4.575999999999999801e+01,1.327137444502353159e-01
4.579999999999999716e+01,1.161619172148194712e-01
4.584000000000000341e+01,1.241103999216384007e-01
4.588000000000000256e+01,1.200090853800788587e-01
4.592000000000000171e+01,1.143008626885667067e-01
4.596000000000000085e+01,1.186335695683236879e-01
4.600000000000000000e+01,9.183812910801904261e-02
4.603999999999999915e+01,8.351826064694448104e-02
4.607999999999999829e+01,9.226819182603328284e-02
4.611999999999999744e+01,9.639884846915455774e-02
4.615999999999999659e+01,8.687311693953410352e-02
4.620000000000000284e+01,9.220811567753606219e-02
4.624000000000000199e+01,8.509167693398210497e-02
4.628000000000000114e+01,9.404091914923631834e-02
4.632000000000000028e+01,8.853047824666475385e-02
4.635999999999999943e+01,8.121231579981905147e-02
4.639999999999999858e+01,8.353344475945508052e-02
4.643999999999999773e+01,7.581303865410171650e-02
4.647999999999999687e+01,7.813357556455184649e-02
4.652000000000000313e+01,7.442907488772212976e-02
4.656000000000000227e+01,6.570366151013731781e-02
4.660000000000000142e+01,6.822414287373684827e-02
4.664000000000000057e+01,5.026020627909080773e-02
4.667999999999999972e+01,6.342381877015082492e-02
4.671999999999999886e+01,4.385270437293056767e-02
4.675999999999999801e+01,6.665532827590109344e-02
4.679999999999999716e+01,6.194467139109664788e-02
4.684000000000000341e+01,4.377846868533075142e-02
4.688000000000000256e+01,4.790353033574254460e-02
4.692000000000000171e+01,4.439696657709624877e-02
4.696000000000000085e+01,5.193548209692272488e-02
4.700000000000000000e+01,5.987536509472006496e-02
4.703999999999999915e+01,3.628547810059257889e-02
4.707999999999999829e+01,4.261820191132481561e-02
4.711999999999999744e+01,4.834817245028295157e-02
4.715999999999999659e+01,3.560198618018967781e-02
4.720000000000000284e+01,4.655284593309565178e-02
4.724000000000000199e+01,3.963002525673813004e-02
4.728000000000000114e+01,3.973579672309340838e-02
4.732000000000000028e+01,3.220995312234010977e-02
4.735999999999999943e+01,4.034816886272659525e-02
4.739999999999999858e+01,3.663745142460884952e-02
4.743999999999999773e+01,3.272563852920848393e-02
4.747999999999999687e+01,3.885479450448540290e-02
4.752000000000000313e+01,3.032347361731917851e-02
4.756000000000000227e+01,2.239435945731912958e-02
4.760000000000000142e+01,2.972766130269671042e-02
4.764000000000000057e+01,2.762193342033144455e-02
4.767999999999999972e+01,1.888872363094194068e-02
4.771999999999999886e+01,1.979483937646750458e-02
4.775999999999999801e+01,2.210646610199793957e-02
4.779999999999999716e+01,2.180710943240864522e-02
4.784000000000000341e+01,2.391738966354398088e-02
4.788000000000000256e+01,1.458039866744639812e-02
4.792000000000000171e+01,2.070665672075200706e-02
4.796000000000000085e+01,2.763595661363932310e-02
4.800000000000000000e+01,2.733530856166411366e-02
4.803999999999999915e+01,1.799729066482751855e-02
4.807999999999999829e+01,2.532747457696982174e-02
4.811999999999999744e+01,2.362029071264062571e-02
4.815999999999999659e+01,1.910130799048026171e-02
4.820000000000000284e+01,1.076640359235379180e-02
4.824000000000000199e+01,2.432114917210148608e-02
4.828000000000000114e+01,1.839564304792658950e-02
4.832000000000000028e+01,2.231030274205701713e-02
4.835999999999999943e+01,2.281069443793306423e-02
4.839999999999999858e+01,1.588032376043015462e-02
4.843999999999999773e+01,1.356867797170196663e-02
4.847999999999999687e+01,6.637818664508405089e-03
4.852000000000000313e+01,2.260074042688354351e-02
4.856000000000000227e+01,2.048919111796263307e-02
4.860000000000000142e+01,1.918070019574259766e-02
4.864000000000000057e+01,1.244970080997312260e-02
4.867999999999999972e+01,1.274732976373981613e-02
4.871999999999999886e+01,1.545461837052010227e-02
4.875999999999999801e+01,1.816167041891726674e-02
4.879999999999999716e+01,6.208278699109656684e-03
4.884000000000000341e+01,1.554207815870256928e-02
4.888000000000000256e+01,1.824842673711981472e-02
4.892000000000000171e+01,1.954876950067184135e-02
4.896000000000000085e+01,8.196920337458763958e-03
4.900000000000000000e+01,1.050092521271877612e-02
4.903999999999999915e+01,2.465336222645303846e-02
4.907999999999999829e+01,1.269835079478644560e-02
4.911999999999999744e+01,1.982146530675921864e-02
4.915999999999999659e+01,2.031713617692103638e-02
4.920000000000000284e+01,1.940680847158227779e-02
4.924000000000000199e+01,8.655842865366787306e-03
4.928000000000000114e+01,1.617970825770657581e-02
4.932000000000000028e+01,1.627283506315126832e-02
4.935999999999999943e+01,2.018141146199065386e-02
4.939999999999999858e+01,1.565512748999496259e-02
4.943999999999999773e+01,2.839955480100446114e-02
4.947999999999999687e+01,1.222499722203891637e-02
4.952000000000000313e+01,7.095585110023141379e-03
4.956000000000000227e+01,1.381461858101597565e-02
4.960000000000000142e+01,1.229962162261444107e-02
4.964000000000000057e+01,8.976987923924886759e-03
4.967999999999999972e+01,1.288383319011125738e-02
4.971999999999999886e+01,7.954176818090226073e-03
4.975999999999999801e+01,1.286472349539278560e-02
4.979999999999999716e+01,4.520625652626224233e-03
4.984000000000000341e+01,1.525467236900823233e-02
4.988000000000000256e+01,1.193077755184714095e-02
4.992000000000000171e+01,1.202069726587815315e-02
4.996000000000000085e+01,1.331536007017042160e-02
5.000000000000000000e+01,1.501146791705490653e-02
5.003999999999999915e+01,2.047164055778205160e-03
5.007999999999999829e+01,1.458740361373110292e-02
5.011999999999999744e+01,1.447548123657245098e-02
5.015999999999999659e+01,9.744388777136453808e-03
5.020000000000000284e+01,1.083701533384890878e-02
5.024000000000000199e+01,1.373686653158519809e-02
5.028000000000000114e+01,1.422662322475472946e-02
5.032000000000000028e+01,9.695564431494737775e-03
5.035999999999999943e+01,2.163194162585990038e-02
5.039999999999999858e+01,1.569472009236274126e-02
5.043999999999999773e+01,1.925139388497234790e-03
5.047999999999999687e+01,1.466423629814067944e-02
5.052000000000000313e+01,8.525613730176809235e-03
5.056000000000000227e+01,1.282968920683349133e-02
5.060000000000000142e+01,1.231378120689120663e-02
5.064000000000000057e+01,1.521170635365018051e-02
5.067999999999999972e+01,8.068206060084707684e-03
5.071999999999999886e+01,1.960122353702474160e-02
5.075999999999999801e+01,1.426477544618694540e-02
5.079999999999999716e+01,1.856773252327546114e-02
5.084000000000000341e+01,1.363256737868329474e-02
5.088000000000000256e+01,1.070546819270014154e-02
5.092000000000000171e+01,1.460623049070451478e-02
5.096000000000000085e+01,1.248206999706868991e-02
5.100000000000000000e+01,6.742884991579340542e-03
5.103999999999999915e+01,1.646702970269943792e-02
5.107999999999999829e+01,7.715118955873507926e-03
5.111999999999999744e+01,1.101251889612529095e-02
5.115999999999999659e+01,2.394933331205802846e-02
5.120000000000000284e+01,1.158205317678621428e-02
5.124000000000000199e+01,2.130532535447595896e-02
5.128000000000000114e+01,1.456079494985419200e-02
5.132000000000000028e+01,1.645155930536324612e-02
5.135999999999999943e+01,1.573143230910329163e-02
5.139999999999999858e+01,1.782268379785067330e-02
5.143999999999999773e+01,1.107747811877352051e-02
5.147999999999999687e+01,1.638159243452870159e-02
5.152000000000000313e+01,1.064017917572348745e-02
5.156000000000000227e+01,1.293159257082089446e-02
5.160000000000000142e+01,1.421871898304684877e-02
5.164000000000000057e+01,9.681764955412706236e-03
5.167999999999999972e+01,1.980485810964333418e-02
5.171999999999999886e+01,1.245603620537707318e-02
5.175999999999999801e+01,1.293922135552216107e-02
5.179999999999999716e+01,1.563132102122619105e-02
5.184000000000000341e+01,1.350346927037485677e-02
5.188000000000000256e+01,8.162265300890874861e-03
5.192000000000000171e+01,2.430915691428465336e-02
5.196000000000000085e+01,1.655774701943988139e-02
5.200000000000000000e+01,1.201938066345876674e-02
5.203999999999999915e+01,1.330478089659384820e-02
5.207999999999999829e+01,2.483209370329168483e-02
5.211999999999999744e+01,1.286275867946277789e-02
5.215999999999999659e+01,8.323791511062782894e-03
5.220000000000000284e+01,1.001024460949079438e-02
5.224000000000000199e+01,1.591387130428205399e-02
5.228000000000000114e+01,1.438683594260462342e-02
5.232000000000000028e+01,1.647450193428235191e-02
5.235999999999999943e+01,1.313975564254111703e-02
5.239999999999999858e+01,2.466589991863983589e-02
5.243999999999999773e+01,2.333911747246818560e-02
5.247999999999999687e+01,2.562704051643151931e-02
5.252000000000000313e+01,8.434821481137239757e-03
5.256000000000000227e+01,1.514061182143162758e-02
5.260000000000000142e+01,2.044049149279637823e-02
5.264000000000000057e+01,1.851054318591306355e-02
5.267999999999999972e+01,2.019530554013941603e-02
5.271999999999999886e+01,1.886756216429315985e-02
5.275999999999999801e+01,1.673638656769496288e-02
5.279999999999999716e+01,1.661332657106357261e-02
5.284000000000000341e+01,1.227281532414850954e-02
5.288000000000000256e+01,7.329699729532326326e-03
5.292000000000000171e+01,4.997177148865722049e-03
5.296000000000000085e+01,1.089834218939097175e-02
5.300000000000000000e+01,1.880762800085771305e-02
5.303999999999999915e+01,2.310194204441358076e-02
5.307999999999999829e+01,2.197386242005957419e-02
5.311999999999999744e+01,1.241101860500100004e-02
5.315999999999999659e+01,9.676094188847286434e-03
5.320000000000000284e+01,1.557651313998710367e-02
5.324000000000000199e+01,2.207928567397625386e-02
5.328000000000000114e+01,1.211430733540155673e-02
5.332000000000000028e+01,1.540364518742279656e-02
5.335999999999999943e+01,1.387307092229680960e-02
5.339999999999999858e+01,1.475227731099377007e-02
5.343999999999999773e+01,1.482806906025304836e-02
5.347999999999999687e+01,1.972354077731689609e-02
5.352000000000000313e+01,2.903704395544840638e-02
5.356000000000000227e+01,1.846878240245907257e-02
5.360000000000000142e+01,1.352350300172307923e-02
5.364000000000000057e+01,8.176463673456068823e-03
5.367999999999999972e+01,2.632581313730450803e-02
5.371999999999999886e+01,1.756453504050265596e-02
5.375999999999999801e+01,1.824191387158760266e-02
5.379999999999999716e+01,1.349691765027180752e-02
5.384000000000000341e+01,9.956764836127646179e-03
5.388000000000000256e+01,1.163795187266957951e-02
5.392000000000000171e+01,2.336027428527603228e-02
5.396000000000000085e+01,1.821321386570086756e-02
5.400000000000000000e+01,2.792708538176359376e-02
5.403999999999999915e+01,1.012786329933767701e-02
5.407999999999999829e+01,2.425968071054783806e-02
5.411999999999999744e+01,1.750562401703660564e-02
5.415999999999999659e+01,2.982982357572860899e-02
5.420000000000000284e+01,2.548547127787464950e-02
5.424000000000000199e+01,2.174349841774392972e-02
5.428000000000000114e+01,1.378411153834773785e-02
5.432000000000000028e+01,2.168978872047900783e-02
5.435999999999999943e+01,2.236568239474516842e-02
5.439999999999999858e+01,1.641426790673898573e-02
5.443999999999999773e+01,1.347513527302247882e-02
5.447999999999999687e+01,1.113838828219886404e-02
5.452000000000000313e+01,1.342052337778266990e-02
5.456000000000000227e+01,1.871494343024094134e-02
5.460000000000000142e+01,2.159938067118727725e-02
5.464000000000000057e+01,2.127053705295274891e-02
5.467999999999999972e+01,1.813006315066412882e-02
5.471999999999999886e+01,2.342414714461130837e-02
5.475999999999999801e+01,1.707031302239130771e-02
5.479999999999999716e+01,1.995433794666085295e-02
5.484000000000000341e+01,1.842013855992836319e-02
5.488000000000000256e+01,2.993947092692899811e-02
5.492000000000000171e+01,1.796222785704946687e-02
5.496000000000000085e+01,1.944016815022486799e-02
5.500000000000000000e+01,2.192215707175945716e-02
5.503999999999999915e+01,2.179334978746064536e-02
5.507999999999999829e+01,1.162323082428203327e-02
5.511999999999999744e+01,2.474871311377118202e-02
5.515999999999999659e+01,2.261144176065505579e-02
5.520000000000000284e+01,1.706007925662132371e-02
5.524000000000000199e+01,1.934081378195979042e-02
5.528000000000000114e+01,2.001488215896444697e-02
5.532000000000000028e+01,2.189383220835381533e-02
5.535999999999999943e+01,1.553890075242195246e-02
5.539999999999999858e+01,2.404493742895134206e-02
5.543999999999999773e+01,2.170637265249170805e-02
5.547999999999999687e+01,2.639661202871002726e-02
5.552000000000000313e+01,1.702905569287347862e-02
5.556000000000000227e+01,2.051422392161826591e-02
5.560000000000000142e+01,2.741335353723824142e-02
5.564000000000000057e+01,3.009510429622121175e-02
5.567999999999999972e+01,2.233390934831681190e-02
5.571999999999999886e+01,2.581884493804562433e-02
5.575999999999999801e+01,1.845918734834493466e-02
5.579999999999999716e+01,1.752586787348394196e-02
5.584000000000000341e+01,1.438342241762050402e-02
5.588000000000000256e+01,2.590113273409175992e-02
5.592000000000000171e+01,1.813961364834220866e-02
5.596000000000000085e+01,2.323082946912353661e-02
5.600000000000000000e+01,3.314179041199138975e-02
5.603999999999999915e+01,2.598259753034909067e-02
5.607999999999999829e+01,2.906542064176480256e-02
5.611999999999999744e+01,3.415644519132818996e-02
5.615999999999999659e+01,2.057072085523846752e-02
5.620000000000000284e+01,2.064103671271321980e-02
5.624000000000000199e+01,3.035089838862773878e-02
5.628000000000000114e+01,1.977741611774613481e-02
5.632000000000000028e+01,2.265915237254783471e-02
5.635999999999999943e+01,2.734827150020108233e-02
5.639999999999999858e+01,2.139363876601000150e-02
5.643999999999999773e+01,2.708680472589329938e-02
5.647999999999999687e+01,2.293951997418618508e-02
5.652000000000000313e+01,2.019797269117835220e-02
5.656000000000000227e+01,3.211659876181942319e-02
5.660000000000000142e+01,1.732549650431270891e-02
5.664000000000000057e+01,2.201436416002824220e-02
5.667999999999999972e+01,1.385041471813847763e-02
5.671999999999999886e+01,2.155159138947317782e-02
5.675999999999999801e+01,2.282634568650385165e-02
5.679999999999999716e+01,2.189199882321084256e-02
5.684000000000000341e+01,3.461370870060152816e-02
5.688000000000000256e+01,2.725291491458636112e-02
5.692000000000000171e+01,2.410941572574368599e-02
5.696000000000000085e+01,2.538403693873454367e-02
5.700000000000000000e+01,2.906853188309408212e-02
5.703999999999999915e+01,2.753156031530999692e-02
5.707999999999999829e+01,2.940858839961433407e-02
5.711999999999999744e+01,2.726910066296088161e-02
5.715999999999999659e+01,3.175681097424147559e-02
5.720000000000000284e+01,2.339171763245102148e-02
5.724000000000000199e+01,3.892475466705869885e-02
5.728000000000000114e+01,2.975632865949252512e-02
5.732000000000000028e+01,2.902252777083395505e-02
5.735999999999999943e+01,2.869036221663883238e-02
5.739999999999999858e+01,2.193179083525883047e-02
5.743999999999999773e+01,2.662021923236097820e-02
5.747999999999999687e+01,3.371853377117117745e-02
5.752000000000000313e+01,2.896817678279994465e-02
5.756000000000000227e+01,3.285327588897202916e-02
5.760000000000000142e+01,2.930785048660400349e-02
5.764000000000000057e+01,3.078303737878165455e-02
5.767999999999999972e+01,2.643429999453702356e-02
5.771999999999999886e+01,3.554081733279893657e-02
5.775999999999999801e+01,2.536815284180787833e-02
5.779999999999999716e+01,3.648291118988657156e-02
5.784000000000000341e+01,3.052756225222788902e-02
5.788000000000000256e+01,3.401097676453607860e-02
5.792000000000000171e+01,2.805562733720410803e-02
5.796000000000000085e+01,2.732172324844326858e-02
5.800000000000000000e+01,3.562493617130219753e-02
5.803999999999999915e+01,3.328443963430988833e-02
5.807999999999999829e+01,2.773075117890255042e-02
5.811999999999999744e+01,3.021005898536994680e-02
5.815999999999999659e+01,2.786957877808429046e-02
5.820000000000000284e+01,3.155384919640351338e-02
5.824000000000000199e+01,3.423400430821319645e-02
5.828000000000000114e+01,2.446303323114758926e-02
5.832000000000000028e+01,3.919269476514173484e-02
5.835999999999999943e+01,2.821679732789578871e-02
5.839999999999999858e+01,2.828627494887892696e-02
5.843999999999999773e+01,2.694999289339538792e-02
5.847999999999999687e+01,3.947063475105453551e-02
5.852000000000000313e+01,3.552366121568845819e-02
5.856000000000000227e+01,2.555196138572303835e-02
5.860000000000000142e+01,3.224873535800889396e-02
5.864000000000000057e+01,2.428531997404819939e-02
5.867999999999999972e+01,3.459697862445641758e-02
5.871999999999999886e+01,3.948638942844310412e-02
5.875999999999999801e+01,3.513788278134949428e-02
5.879999999999999716e+01,3.721579181371694606e-02
5.884000000000000341e+01,3.387145610224766290e-02
5.888000000000000256e+01,3.594941428629948310e-02
5.892000000000000171e+01,3.842904813841780537e-02
5.896000000000000085e+01,3.167076971043069483e-02
5.900000000000000000e+01,3.495375800126700183e-02
5.903999999999999915e+01,3.522440396483307590e-02
5.907999999999999829e+01,4.392972055188466840e-02
5.911999999999999744e+01,3.295424093137970523e-02
5.915999999999999659e+01,3.523322849393362155e-02
5.920000000000000284e+01,3.931967235718059756e-02
5.924000000000000199e+01,3.657810842527851186e-02
5.928000000000000114e+01,3.986132304224494771e-02
5.932000000000000028e+01,3.551323285058826523e-02
5.935999999999999943e+01,3.076353062127872712e-02
5.939999999999999858e+01,3.826417792786792477e-02
5.943999999999999773e+01,3.692857490562299894e-02
5.947999999999999687e+01,3.619548680063990054e-02
5.952000000000000313e+01,2.763027428754259371e-02
5.956000000000000227e+01,3.071294113572579920e-02
5.960000000000000142e+01,2.917668197164031280e-02
5.964000000000000057e+01,3.446850974604184076e-02
5.967999999999999972e+01,3.935873375635001031e-02
5.971999999999999886e+01,3.481024036579084824e-02
5.975999999999999801e+01,3.970055903236126282e-02
5.979999999999999716e+01,4.539422566021919514e-02
5.984000000000000341e+01,3.883763120327082818e-02
5.988000000000000256e+01,3.830583080811532370e-02
5.992000000000000171e+01,4.058562918149191678e-02
5.996000000000000085e+01,3.804568607988830647e-02
