2.003999999999999915e+01,9.501559110416064879e-02
2.007999999999999829e+01,1.827516805145554535e-01
2.012000000000000099e+01,1.851504572191223774e-01
2.016000000000000014e+01,1.084863314566230225e-01
2.019999999999999929e+01,2.275783746266536178e-01
2.023999999999999844e+01,1.207863733424065222e-01
2.028000000000000114e+01,2.386128221928556781e-01
2.032000000000000028e+01,1.142417703996417983e-01
2.035999999999999943e+01,1.680585542907041818e-01
2.039999999999999858e+01,2.770847799011584289e-01
2.044000000000000128e+01,1.137963534099269841e-01
2.048000000000000043e+01,1.701068620149059907e-01
2.051999999999999957e+01,1.059433959529227920e-01
2.055999999999999872e+01,1.885957370583248582e-01
2.060000000000000142e+01,8.050073875635868625e-02
2.064000000000000057e+01,1.330252496934270501e-01
2.067999999999999972e+01,2.131518231509669792e-01
2.071999999999999886e+01,4.480651067050280684e-02
2.076000000000000156e+01,1.111187282904595869e-01
2.080000000000000071e+01,1.485633434944611253e-01
2.083999999999999986e+01,1.157292659412546415e-01
2.087999999999999901e+01,9.167403833372710087e-02
2.092000000000000171e+01,1.240831635195189381e-01
2.096000000000000085e+01,1.150758794179397304e-01
2.100000000000000000e+01,2.039440452539434678e-01
2.103999999999999915e+01,1.861419634390108768e-01
2.107999999999999829e+01,1.758638613139002493e-01
2.112000000000000099e+01,2.182854785378328388e-01
2.116000000000000014e+01,9.756718317440166155e-02
2.119999999999999929e+01,2.202906140152380843e-01
2.123999999999999844e+01,2.514023876740101304e-01
2.128000000000000114e+01,1.457267690268333193e-01
2.132000000000000028e+01,7.418932660791984976e-03
2.135999999999999943e+01,4.102458069974444788e-02
2.139999999999999858e+01,9.470304251198133350e-02
2.144000000000000128e+01,1.559055044230760467e-01
2.148000000000000043e+01,2.058087447875538711e-01
2.151999999999999957e+01,1.226892512347378811e-01
2.155999999999999872e+01,8.850485719271392049e-02
2.160000000000000142e+01,1.697642894222694543e-01
2.164000000000000057e+01,1.242754025085927999e-01
2.167999999999999972e+01,1.691327145176418634e-01
2.171999999999999886e+01,3.018264645286675152e-01
2.176000000000000156e+01,2.036167298800638237e-01
2.180000000000000071e+01,2.597521622618953474e-01
2.183999999999999986e+01,2.355699058246086552e-01
2.187999999999999901e+01,1.674615290679583035e-01
2.192000000000000171e+01,1.646017329558624454e-01
2.196000000000000085e+01,9.020842598712820737e-02
2.200000000000000000e+01,1.387882575319398237e-01
2.203999999999999915e+01,1.120699379728249678e-01
2.207999999999999829e+01,1.441682377735404022e-05
2.212000000000000099e+01,1.025383973685999595e-01
2.216000000000000014e+01,1.285093520182978566e-01
2.219999999999999929e+01,9.800538854789940524e-02
2.223999999999999844e+01,5.871200980504617112e-02
2.228000000000000114e+01,1.988614571888715210e-01
2.232000000000000028e+01,1.545380706462173570e-01
2.235999999999999943e+01,1.604047105619788860e-01
2.239999999999999858e+01,2.139516160154064373e-01
2.244000000000000128e+01,1.507893004326933684e-01
2.248000000000000043e+01,1.666792947782318457e-01
2.251999999999999957e+01,1.725250081308004613e-01
2.255999999999999872e+01,1.946789562364750759e-01
2.260000000000000142e+01,1.917300487540029574e-01
2.264000000000000057e+01,1.448550640379099863e-01
2.267999999999999972e+01,2.937363888499287534e-01
2.271999999999999886e+01,2.004203490785260722e-01
2.276000000000000156e+01,2.476458332253489159e-01
2.280000000000000071e+01,1.405156689187746499e-01
2.283999999999999986e+01,2.316515863994139113e-01
2.287999999999999901e+01,1.094524250341393501e-01
2.292000000000000171e+01,1.666961260782743037e-01
2.296000000000000085e+01,1.674649520880557574e-01
2.300000000000000000e+01,1.820322746068999964e-01
2.303999999999999915e+01,1.664772401051389517e-01
2.307999999999999829e+01,1.559365354883130161e-01
2.312000000000000099e+01,1.654687421546115478e-01
2.316000000000000014e+01,2.277007838211579649e-01
2.319999999999999929e+01,1.619297131894189834e-01
2.323999999999999844e+01,2.266611409342752514e-01
2.328000000000000114e+01,9.060632845202142016e-02
2.332000000000000028e+01,2.406593365637141602e-01
2.335999999999999943e+01,1.761224114473295133e-01
2.339999999999999858e+01,1.718146245024776975e-01
2.344000000000000128e+01,2.691470706057482176e-01
2.348000000000000043e+01,2.748679865165111202e-01
2.351999999999999957e+01,1.463114002993062823e-01
2.355999999999999872e+01,8.049372451273380247e-02
2.360000000000000142e+01,1.389041595407443652e-01
2.364000000000000057e+01,7.307615199747544144e-02
2.367999999999999972e+01,2.870815774861397163e-01
2.371999999999999886e+01,1.961456153726624796e-01
2.376000000000000156e+01,1.077142585061032082e-01
2.380000000000000071e+01,1.460207869808994308e-01
2.383999999999999986e+01,1.529501221942920208e-01
2.387999999999999901e+01,1.874817013418101919e-01
2.392000000000000171e+01,1.404408279948764493e-01
2.396000000000000085e+01,1.649230589147516191e-01
2.400000000000000000e+01,1.492439344844373184e-01
2.403999999999999915e+01,2.151269716099507290e-01
2.407999999999999829e+01,2.006924469059049587e-01
2.412000000000000099e+01,1.749588503215067092e-01
2.416000000000000014e+01,1.718079871680895376e-01
2.419999999999999929e+01,1.435543591333543201e-01
2.423999999999999844e+01,1.629811009491365092e-01
2.428000000000000114e+01,1.384818585057960572e-01
2.432000000000000028e+01,6.629198928837309879e-02
2.435999999999999943e+01,2.375440254212021762e-01
2.439999999999999858e+01,1.678536738069882350e-01
2.444000000000000128e+01,1.960389671500357145e-01
2.448000000000000043e+01,2.204544985870258433e-01
2.451999999999999957e+01,1.658073747330429948e-01
2.455999999999999872e+01,5.719522973995456311e-02
2.460000000000000142e+01,1.343004503694919805e-01
2.464000000000000057e+01,1.273234961342304683e-01
2.467999999999999972e+01,1.328902520559915312e-01
2.471999999999999886e+01,1.434714308371864699e-01
2.476000000000000156e+01,1.440084556149705541e-01
2.480000000000000071e+01,1.846965924254029001e-01
2.483999999999999986e+01,1.739294871588433766e-01
2.487999999999999901e+01,1.054327341119129513e-01
2.492000000000000171e+01,1.799873906258438738e-01
2.496000000000000085e+01,1.604208376626630184e-01
2.500000000000000000e+01,2.675922380709570558e-01
2.503999999999999915e+01,2.028397746964761827e-01
2.507999999999999829e+01,1.983165447356957933e-01
2.512000000000000099e+01,2.301798001662994642e-01
2.516000000000000014e+01,1.327851728202725790e-01
2.519999999999999929e+01,1.960103132277372928e-01
2.523999999999999844e+01,8.354695640815092139e-02
2.528000000000000114e+01,2.233097282547093498e-01
2.532000000000000028e+01,1.422082700180084813e-01
2.535999999999999943e+01,1.112970083150235240e-01
2.539999999999999858e+01,1.280661822250064585e-01
2.544000000000000128e+01,1.573791093777548167e-01
2.548000000000000043e+01,3.109202539256066267e-01
2.551999999999999957e+01,1.570103497280789517e-01
2.555999999999999872e+01,1.009761539825919235e-01
2.560000000000000142e+01,1.415627873626059685e-01
2.564000000000000057e+01,2.386140411210807555e-01
2.567999999999999972e+01,2.277404286842085179e-01
2.571999999999999886e+01,2.181166510159080196e-01
2.576000000000000156e+01,1.758609073401881384e-01
2.580000000000000071e+01,2.452845832588396169e-01
2.583999999999999986e+01,1.779211253860032704e-01
2.587999999999999901e+01,9.925869541032406040e-02
2.592000000000000171e+01,1.950197715425166234e-01
2.596000000000000085e+01,1.577583654688627657e-01
2.600000000000000000e+01,2.020592320668994080e-01
2.603999999999999915e+01,2.212574380964694165e-01
2.607999999999999829e+01,2.354310913325995125e-01
2.612000000000000099e+01,2.157179173761352708e-01
2.616000000000000014e+01,1.269812338568748200e-01
2.619999999999999929e+01,1.323556502897570708e-01
2.623999999999999844e+01,1.389799309709311426e-01
2.628000000000000114e+01,1.129722751244025547e-01
2.632000000000000028e+01,4.178386907574636877e-02
2.635999999999999943e+01,1.575678100214369104e-01
2.639999999999999858e+01,2.532686371845356832e-01
2.644000000000000128e+01,2.209665357306747624e-01
2.648000000000000043e+01,2.438742206821485348e-01
2.651999999999999957e+01,2.592476145961402634e-01
2.655999999999999872e+01,1.767352449572178186e-01
2.660000000000000142e+01,1.795498267876766418e-01
2.664000000000000057e+01,2.011826378620700517e-01
2.667999999999999972e+01,2.152811669696640118e-01
2.671999999999999886e+01,8.882796739189528779e-02
2.676000000000000156e+01,1.756996509635850301e-01
2.680000000000000071e+01,8.311828096475115668e-02
2.683999999999999986e+01,1.737446403896829306e-01
2.687999999999999901e+01,1.966024126641006120e-01
2.692000000000000171e+01,1.617306528093536977e-01
2.696000000000000085e+01,1.795589433835689253e-01
2.700000000000000000e+01,1.710297462192045259e-01
2.703999999999999915e+01,2.039066696712575899e-01
2.707999999999999829e+01,1.527015565864222879e-01
2.712000000000000099e+01,1.868234244506872255e-01
2.716000000000000014e+01,2.510574853864933620e-01
2.719999999999999929e+01,1.659556736895164419e-01
2.723999999999999844e+01,1.297892835125690203e-01
2.728000000000000114e+01,9.361793494914093239e-02
2.732000000000000028e+01,1.892041976589265151e-01
2.735999999999999943e+01,1.116118465166275747e-01
2.739999999999999858e+01,1.381697161102690141e-01
2.744000000000000128e+01,2.199374265333418066e-01
2.748000000000000043e+01,2.000547807772972697e-01
2.751999999999999957e+01,1.362463344434552692e-01
2.755999999999999872e+01,1.828625258872851600e-01
2.760000000000000142e+01,2.231993691149506409e-01
2.764000000000000057e+01,2.120811290025723661e-01
2.767999999999999972e+01,2.185262954993569817e-01
2.771999999999999886e+01,1.383796985535654667e-01
2.776000000000000156e+01,1.535991715932823187e-01
2.780000000000000071e+01,1.399514390594132907e-01
2.783999999999999986e+01,1.162597271327748677e-01
2.787999999999999901e+01,1.728755128641405736e-01
2.792000000000000171e+01,1.692520599696883121e-01
2.796000000000000085e+01,1.104088970939280795e-01
2.800000000000000000e+01,9.924631722972973580e-02
2.803999999999999915e+01,1.847047048189449925e-01
2.807999999999999829e+01,1.145528616930836519e-01
2.812000000000000099e+01,6.949373968602141904e-02
2.816000000000000014e+01,1.260751183122231778e-01
2.819999999999999929e+01,1.312014453457699681e-01
2.823999999999999844e+01,8.612760464854314624e-02
2.828000000000000114e+01,1.866151271849332272e-01
2.832000000000000028e+01,1.729035252211934270e-01
2.835999999999999943e+01,1.491479733444034950e-01
2.839999999999999858e+01,2.144841197648044984e-01
2.844000000000000128e+01,8.781848964708227623e-02
2.848000000000000043e+01,2.171438143917893415e-01
2.851999999999999957e+01,1.105465113363735402e-01
2.855999999999999872e+01,1.733533376782557256e-01
2.860000000000000142e+01,1.495684504663168657e-01
2.864000000000000057e+01,1.057005764613443977e-01
2.867999999999999972e+01,1.735122853230331996e-01
2.871999999999999886e+01,1.145760764192010617e-01
2.876000000000000156e+01,1.748487444826300197e-01
2.880000000000000071e+01,1.937054477221425708e-01
2.883999999999999986e+01,1.548327276806824027e-01
2.887999999999999901e+01,1.837187460468955313e-01
2.892000000000000171e+01,1.511107008848486810e-01
2.896000000000000085e+01,1.498698324337334464e-01
2.900000000000000000e+01,1.059581289028451168e-01
2.903999999999999915e+01,2.854104905323223695e-01
2.907999999999999829e+01,2.076072690075004279e-01
2.912000000000000099e+01,1.323089565974687465e-01
2.916000000000000014e+01,1.850037149908730361e-01
2.919999999999999929e+01,1.548714386281462296e-01
2.923999999999999844e+01,1.761844603574018731e-01
2.928000000000000114e+01,1.221997414311262048e-01
2.932000000000000028e+01,2.376191949878914134e-01
2.935999999999999943e+01,1.924089640182030936e-01
2.939999999999999858e+01,2.074282113706482078e-01
2.944000000000000128e+01,1.960901093124254313e-01
2.948000000000000043e+01,1.747081208359312077e-01
2.951999999999999957e+01,2.185751438614214059e-01
2.955999999999999872e+01,1.444784679019437690e-01
2.960000000000000142e+01,2.071590588497479180e-01
2.964000000000000057e+01,1.644247712900228087e-01
2.967999999999999972e+01,2.333701232887254173e-01
2.971999999999999886e+01,2.659190889967769089e-01
2.976000000000000156e+01,2.746204866239448927e-01
2.980000000000000071e+01,3.711587803225676052e-01
2.983999999999999986e+01,2.844795480110098862e-01
2.987999999999999901e+01,3.446166512341067856e-01
2.992000000000000171e+01,1.939288379097499349e-01
2.996000000000000085e+01,2.753893130616522633e-01
3.000000000000000000e+01,3.292375889560663627e-01
3.003999999999999915e+01,2.751612458312378551e-01
3.007999999999999829e+01,2.399033269700229232e-01
3.012000000000000099e+01,2.159345450748337003e-01
3.016000000000000014e+01,2.321171790801652979e-01
3.019999999999999929e+01,1.265715056006297135e-01
3.023999999999999844e+01,2.782717683552436982e-01
3.028000000000000114e+01,1.024431467099331389e-01
3.032000000000000028e+01,1.688018867035961379e-01
3.035999999999999943e+01,1.523336577035773187e-01
3.039999999999999858e+01,2.500548722684785008e-01
3.044000000000000128e+01,1.771074107803570219e-01
3.048000000000000043e+01,0.000000000000000000e+00
3.051999999999999957e+01,1.918230032121550355e-01
3.055999999999999872e+01,1.665467181885385561e-01
3.060000000000000142e+01,6.346300415410320583e-02
3.064000000000000057e+01,2.176252490305241871e-01
3.067999999999999972e+01,1.371198701552487909e-01
3.071999999999999886e+01,1.168440444352396163e-01
3.076000000000000156e+01,9.656345761609938516e-02
3.080000000000000071e+01,2.406676008069763284e-01
3.083999999999999986e+01,1.839859323605029795e-01
3.087999999999999901e+01,1.473776151252671474e-01
3.092000000000000171e+01,2.224490077462502047e-01
3.096000000000000085e+01,3.399051582240780744e-02
3.100000000000000000e+01,1.015231216242476753e-01
3.103999999999999915e+01,1.364240607511980063e-01
3.107999999999999829e+01,1.512421514130264100e-01
3.112000000000000099e+01,1.133504744279505150e-01
3.116000000000000014e+01,1.733348233688105366e-01
3.119999999999999929e+01,1.956679883286245869e-01
3.123999999999999844e+01,1.489779317198193509e-01
3.128000000000000114e+01,2.139676053762699648e-01
3.132000000000000028e+01,9.573983692635512632e-02
3.135999999999999943e+01,8.166251371177864204e-02
3.139999999999999858e+01,2.256955465512306969e-01
3.144000000000000128e+01,2.304319998846710293e-01
3.148000000000000043e+01,1.573610740960481036e-01
3.151999999999999957e+01,2.511846823239338167e-01
3.155999999999999872e+01,1.655555068341073299e-01
3.160000000000000142e+01,1.677633294609172654e-01
3.164000000000000057e+01,2.214165862399504192e-01
3.167999999999999972e+01,8.557801335060589987e-02
3.171999999999999886e+01,2.684746587155035225e-01
3.176000000000000156e+01,1.150583324248234812e-01
3.180000000000000071e+01,2.289270835611279531e-01
3.183999999999999986e+01,1.683625932302535433e-01
3.187999999999999901e+01,4.253956239612043111e-02
3.192000000000000171e+01,1.501198127483197309e-01
3.196000000000000085e+01,2.100098694515376285e-01
3.200000000000000000e+01,1.682498262224260133e-01
3.203999999999999915e+01,1.453083183727913730e-01
3.207999999999999829e+01,1.010291371555924744e-01
3.211999999999999744e+01,8.686243020109972457e-02
3.215999999999999659e+01,2.546488726763635468e-01
3.220000000000000284e+01,1.300432242377691505e-01
3.224000000000000199e+01,2.476250462863407442e-01
3.228000000000000114e+01,2.334396260152433178e-01
3.232000000000000028e+01,1.878774932289277999e-01
3.235999999999999943e+01,2.113291777318445086e-01
3.239999999999999858e+01,1.670125880228017223e-01
3.243999999999999773e+01,1.578280170946695371e-01
3.247999999999999687e+01,1.185216243162120070e-01
3.252000000000000313e+01,1.570132290571380207e-01
3.256000000000000227e+01,1.453049109757233448e-01
3.260000000000000142e+01,1.373565808906579144e-01
3.264000000000000057e+01,1.921476759974714843e-01
3.267999999999999972e+01,1.954839734907470039e-01
3.271999999999999886e+01,2.352071872328378166e-01
3.275999999999999801e+01,1.306143699252098334e-01
3.279999999999999716e+01,1.176232635469679211e-01
3.284000000000000341e+01,7.702011891585569536e-02
3.288000000000000256e+01,7.280389960424137052e-02
3.292000000000000171e+01,1.300722397639912375e-01
3.296000000000000085e+01,1.158076926765412573e-01
3.300000000000000000e+01,1.605179464073766826e-01
3.303999999999999915e+01,2.240467922094566133e-01
3.307999999999999829e+01,1.947097704657832218e-01
3.311999999999999744e+01,2.218377931549879722e-01
3.315999999999999659e+01,9.084610993487376995e-02
3.320000000000000284e+01,1.003965424950329088e-01
3.324000000000000199e+01,1.626473815084524266e-01
3.328000000000000114e+01,1.006603244592284702e-01
3.332000000000000028e+01,9.011879680439739693e-02
3.335999999999999943e+01,8.082753704323919486e-02
3.339999999999999858e+01,7.027678425500526183e-02
3.343999999999999773e+01,1.074069228815467819e-01
3.347999999999999687e+01,1.068860067842708900e-01
3.352000000000000313e+01,6.243963025980014264e-02
3.356000000000000227e+01,1.422219291999113344e-01
3.360000000000000142e+01,1.567457851466024787e-01
3.364000000000000057e+01,1.198148979038524686e-01
3.367999999999999972e+01,1.895443506097603537e-01
3.371999999999999886e+01,1.375456953858213427e-01
3.375999999999999801e+01,5.668017247122843216e-02
3.379999999999999716e+01,8.749452268514434916e-02
3.384000000000000341e+01,1.471665630773960343e-01
3.388000000000000256e+01,1.315411235962447023e-01
3.392000000000000171e+01,9.332323346617096838e-02
3.396000000000000085e+01,1.117990785327950022e-02
3.400000000000000000e+01,9.718613844668914925e-02
3.403999999999999915e+01,2.145598337452075677e-01
3.407999999999999829e+01,1.587552961603160284e-01
3.411999999999999744e+01,1.543963333232306057e-01
3.415999999999999659e+01,1.010924199648416955e-01
3.420000000000000284e+01,1.619781656000878756e-01
3.424000000000000199e+01,8.356749046627012789e-02
3.428000000000000114e+01,1.155818340787999471e-01
3.432000000000000028e+01,3.967180131285029387e-02
3.435999999999999943e+01,1.080685948722529544e-01
3.439999999999999858e+01,9.740329325534248517e-02
3.443999999999999773e+01,1.268896501797156517e-01
3.447999999999999687e+01,1.099408379125705743e-01
3.452000000000000313e+01,1.883584788672798827e-01
3.456000000000000227e+01,1.676359282090025549e-01
3.460000000000000142e+01,1.514626675595569238e-02
3.464000000000000057e+01,2.340970160539209144e-01
3.467999999999999972e+01,2.296743027151462724e-01
3.471999999999999886e+01,1.888554865445553066e-01
3.475999999999999801e+01,1.430126096650628509e-01
3.479999999999999716e+01,1.875166755042803057e-01
3.484000000000000341e+01,1.504489079231425275e-01
3.488000000000000256e+01,1.685914029581830897e-01
3.492000000000000171e+01,1.465731617171317225e-01
3.496000000000000085e+01,1.684712532797126572e-01
3.500000000000000000e+01,8.871941498526483838e-02
3.503999999999999915e+01,9.178524345029286102e-02
3.507999999999999829e+01,3.837688398518485089e-02
3.511999999999999744e+01,6.151178784384476322e-02
3.515999999999999659e+01,7.083848251084184922e-02
3.520000000000000284e+01,1.780414321385146437e-01
3.524000000000000199e+01,1.785749391383438800e-01
3.528000000000000114e+01,1.213793879521804092e-01
3.532000000000000028e+01,1.733540328775928230e-01
3.535999999999999943e+01,1.425019922681584894e-01
3.539999999999999858e+01,1.091356904209736661e-01
3.543999999999999773e+01,1.234503933720977747e-01
3.547999999999999687e+01,1.854461033892022548e-01
3.552000000000000313e+01,1.018710572316557650e-01
3.556000000000000227e+01,1.111527600669820898e-01
3.560000000000000142e+01,1.856838190902370123e-01
3.564000000000000057e+01,1.535454581623554027e-01
3.567999999999999972e+01,1.264221414356757889e-01
3.571999999999999886e+01,2.059592803088589885e-01
3.575999999999999801e+01,1.072987551639615206e-01
3.579999999999999716e+01,1.579646643573997811e-01
3.584000000000000341e+01,1.446271391411869112e-01
3.588000000000000256e+01,9.865822163823639857e-02
3.592000000000000171e+01,8.405687542091701270e-02
3.596000000000000085e+01,9.956822116268952694e-02
3.600000000000000000e+01,1.037811685223025832e-01
3.603999999999999915e+01,1.180287068689933050e-01
3.607999999999999829e+01,1.536047728183191907e-01
3.611999999999999744e+01,1.603141048695615467e-01
3.615999999999999659e+01,1.381567052903910353e-01
3.620000000000000284e+01,1.448571296821263843e-01
3.624000000000000199e+01,1.076322478482734241e-01
3.628000000000000114e+01,7.291268104226321378e-02
3.632000000000000028e+01,1.900293412427269679e-01
3.635999999999999943e+01,1.578106481069947165e-01
3.639999999999999858e+01,1.155484608600196722e-01
3.643999999999999773e+01,2.175932178572725362e-01
3.647999999999999687e+01,2.004197865823754421e-01
3.652000000000000313e+01,1.154783146655993797e-01
3.656000000000000227e+01,9.327649017242904683e-02
3.660000000000000142e+01,1.840095791389249613e-01
3.664000000000000057e+01,1.605440152807928456e-01
3.667999999999999972e+01,1.333093811561618658e-01
3.671999999999999886e+01,1.248935477284779938e-01
3.675999999999999801e+01,1.905113074106407345e-01
3.679999999999999716e+01,9.173515957046815550e-02
3.684000000000000341e+01,1.849514792312008660e-01
3.688000000000000256e+01,8.993114561495435533e-02
3.692000000000000171e+01,1.730995864986467347e-01
3.696000000000000085e+01,2.110878803806127968e-01
3.700000000000000000e+01,1.511910025717141393e-01
3.703999999999999915e+01,1.314459307026936696e-01
3.707999999999999829e+01,1.066769296496712510e-01
3.711999999999999744e+01,1.283341470429172348e-01
3.715999999999999659e+01,1.462223213817127332e-01
3.720000000000000284e+01,8.379367768693268825e-02
3.724000000000000199e+01,1.292804573577113481e-01
3.728000000000000114e+01,1.358615161391777959e-01
3.732000000000000028e+01,1.073015010816323334e-01
3.735999999999999943e+01,1.276774812647992474e-01
3.739999999999999858e+01,2.107931564926560364e-01
3.743999999999999773e+01,1.583772371477328855e-01
3.747999999999999687e+01,1.599168462233724886e-01
3.752000000000000313e+01,1.413739719288710228e-01
3.756000000000000227e+01,1.629829330539667720e-01
3.760000000000000142e+01,9.423604606851626597e-02
3.764000000000000057e+01,1.497180658500575912e-01
3.767999999999999972e+01,1.349223475637502945e-01
3.771999999999999886e+01,1.841212240577082271e-01
3.775999999999999801e+01,1.391996167291731090e-01
3.779999999999999716e+01,1.557628455278255719e-01
3.784000000000000341e+01,1.058129901119411326e-01
3.788000000000000256e+01,1.926408710111702227e-01
3.792000000000000171e+01,1.100553815060038992e-01
3.796000000000000085e+01,1.617378696628734569e-01
3.800000000000000000e+01,1.920830200674400745e-01
3.803999999999999915e+01,1.007003074505938983e-01
3.807999999999999829e+01,1.536246320524729814e-01
3.811999999999999744e+01,1.513298226613984665e-01
3.815999999999999659e+01,3.609132821139145880e-02
3.820000000000000284e+01,1.442174182183362796e-01
3.824000000000000199e+01,1.607328148032561854e-01
3.828000000000000114e+01,1.232839680601143517e-01
3.832000000000000028e+01,8.206614402497135197e-02
3.835999999999999943e+01,1.462540436617464912e-01
3.839999999999999858e+01,1.753009306866180339e-01
3.843999999999999773e+01,7.132604301889614029e-02
3.847999999999999687e+01,2.597342433633577641e-01
3.852000000000000313e+01,1.181042632596360498e-01
3.856000000000000227e+01,1.471338610650926304e-01
3.860000000000000142e+01,1.698847342638236113e-01
3.864000000000000057e+01,1.110639894709144204e-01
3.867999999999999972e+01,2.668236851875372406e-01
3.871999999999999886e+01,6.117317193908657080e-02
3.875999999999999801e+01,1.278276570691576075e-01
3.879999999999999716e+01,1.417728099450957790e-01
3.884000000000000341e+01,1.230867383419272792e-01
3.888000000000000256e+01,5.796574699101585820e-02
3.892000000000000171e+01,1.133090901899289626e-01
3.896000000000000085e+01,1.673932555679918666e-01
3.900000000000000000e+01,1.135533098850454448e-01
3.903999999999999915e+01,1.638642448302091159e-01
3.907999999999999829e+01,1.501719290470470980e-01
3.911999999999999744e+01,1.113776942237311857e-01
3.915999999999999659e+01,1.516367149473424880e-01
3.920000000000000284e+01,2.245183744997909792e-01
3.924000000000000199e+01,2.333967923945957923e-01
3.928000000000000114e+01,1.481548126383938069e-01
3.932000000000000028e+01,1.143587024271868202e-01
3.935999999999999943e+01,2.160855308406993414e-01
3.939999999999999858e+01,1.873004021741342950e-01
3.943999999999999773e+01,1.484719517392986687e-01
3.947999999999999687e+01,1.385015112243652979e-01
3.952000000000000313e+01,1.573890828970045952e-01
3.956000000000000227e+01,2.227030113438248360e-01
3.960000000000000142e+01,2.428369424551836964e-01
3.964000000000000057e+01,2.290848128466400346e-01
3.967999999999999972e+01,2.228577173947864920e-01
3.971999999999999886e+01,3.872902656145614242e-01
3.975999999999999801e+01,2.191749404955249392e-01
3.979999999999999716e+01,3.986575683670330328e-01
3.984000000000000341e+01,3.384535654065928267e-01
3.988000000000000256e+01,3.610675035937814803e-01
3.992000000000000171e+01,4.526956876599615986e-01
3.996000000000000085e+01,5.970246591480777854e-01
4.000000000000000000e+01,5.154707064112357129e-01
4.003999999999999915e+01,6.397131001252602811e-01
4.007999999999999829e+01,6.610509703822234906e-01
4.011999999999999744e+01,6.886590181460445770e-01
4.015999999999999659e+01,6.848907978581019185e-01
4.020000000000000284e+01,6.572756013513240125e-01
4.024000000000000199e+01,6.284012995891572473e-01
4.028000000000000114e+01,5.317591703461558295e-01
4.032000000000000028e+01,5.367582311083066715e-01
4.035999999999999943e+01,4.865382848670614102e-01
4.039999999999999858e+01,4.312945976584809382e-01
4.043999999999999773e+01,4.325163698665143164e-01
4.047999999999999687e+01,3.847935498452119130e-01
4.052000000000000313e+01,3.533799827611525113e-01
4.056000000000000227e+01,2.818059991425673760e-01
4.060000000000000142e+01,2.052082858950005362e-01
4.064000000000000057e+01,1.775467538371419129e-01
4.067999999999999972e+01,3.305839726286863844e-01
4.071999999999999886e+01,2.552285448249250188e-01
4.075999999999999801e+01,2.990826742896299795e-01
4.079999999999999716e+01,2.927373480721556231e-01
4.084000000000000341e+01,2.123498181501871640e-01
4.088000000000000256e+01,1.846631278065802018e-01
4.092000000000000171e+01,1.895991738016495898e-01
4.096000000000000085e+01,2.171189056493879610e-01
4.100000000000000000e+01,1.768708508343637131e-01
4.103999999999999915e+01,2.094017501757398647e-01
4.107999999999999829e+01,2.783200397091044054e-01
4.111999999999999744e+01,1.238652317007090664e-01
4.115999999999999659e+01,2.015593471163643902e-01
4.120000000000000284e+01,2.717200037296790271e-01
4.124000000000000199e+01,2.439957290252211253e-01
4.128000000000000114e+01,1.171316436764517216e-01
4.132000000000000028e+01,1.559077663292990079e-01
4.135999999999999943e+01,1.557783993952442658e-01
4.139999999999999858e+01,1.669388089103479578e-01
4.143999999999999773e+01,2.006829314901689698e-01
4.147999999999999687e+01,1.265030836045635543e-01
4.152000000000000313e+01,1.401607962179239053e-01
4.156000000000000227e+01,2.077742685542566525e-01
4.160000000000000142e+01,1.247978030250441600e-01
4.164000000000000057e+01,1.823639317546187355e-01
4.167999999999999972e+01,1.031438246902956768e-01
4.171999999999999886e+01,1.807797771448284851e-01
4.175999999999999801e+01,2.019419203702291499e-01
4.179999999999999716e+01,1.038861769236815169e-01
4.184000000000000341e+01,2.153915267558104973e-01
4.188000000000000256e+01,1.461897963350546614e-01
4.192000000000000171e+01,1.811391098146977463e-01
4.196000000000000085e+01,1.721634413456600288e-01
4.200000000000000000e+01,2.322021366744899395e-01
4.203999999999999915e+01,1.278472215458440475e-01
4.207999999999999829e+01,1.640349256203631756e-01
4.211999999999999744e+01,2.165319733389519663e-01
4.215999999999999659e+01,2.163198792877453480e-01
4.220000000000000284e+01,2.098292647201746852e-01
4.224000000000000199e+01,2.886664882812222110e-01
4.228000000000000114e+01,3.047555241218079525e-01
4.232000000000000028e+01,2.606061376980225996e-01
4.235999999999999943e+01,3.544896231626770700e-01
4.239999999999999858e+01,3.115869136515066473e-01
4.243999999999999773e+01,4.456184099846197677e-01
4.247999999999999687e+01,5.118822035587862196e-01
4.252000000000000313e+01,6.346115744684408533e-01
4.256000000000000227e+01,9.104324077354063460e-01
4.260000000000000142e+01,8.461762391029207242e-01
4.264000000000000057e+01,9.739128667835890152e-01
4.267999999999999972e+01,1.000000000000000000e+00
4.271999999999999886e+01,9.244376410198246186e-01
4.275999999999999801e+01,8.363223852996262142e-01
4.279999999999999716e+01,8.787107368469865287e-01
4.284000000000000341e+01,8.407825901023385784e-01
4.288000000000000256e+01,7.639490399422740330e-01
4.292000000000000171e+01,5.591134954455723172e-01
4.296000000000000085e+01,5.801525684470533184e-01
4.300000000000000000e+01,5.974229294740033280e-01
4.303999999999999915e+01,5.707683697793810573e-01
4.307999999999999829e+01,4.876400756887592225e-01
4.311999999999999744e+01,4.471736954123795016e-01
4.315999999999999659e+01,3.514884668695516523e-01
4.320000000000000284e+01,3.072493278357756319e-01
4.324000000000000199e+01,2.441829113029754805e-01
4.328000000000000114e+01,2.815029709887484910e-01
4.332000000000000028e+01,2.548200203192880209e-01
4.335999999999999943e+01,2.958966289542887540e-01
4.339999999999999858e+01,1.976773361168117638e-01
4.343999999999999773e+01,1.509041463944105765e-01
4.347999999999999687e+01,1.944783914752580833e-01
4.352000000000000313e+01,1.740496375392253381e-01
4.356000000000000227e+01,1.724400720718270164e-01
4.360000000000000142e+01,1.532581311086504972e-01
4.364000000000000057e+01,5.501461880108890479e-02
4.367999999999999972e+01,5.966736857722675785e-02
4.371999999999999886e+01,1.458833956031690138e-01
4.375999999999999801e+01,1.643317924356260951e-01
4.379999999999999716e+01,1.652078251106585960e-01
4.384000000000000341e+01,1.259236272001616752e-01
4.388000000000000256e+01,1.619283076391032361e-01
4.392000000000000171e+01,1.678118147815346461e-01
4.396000000000000085e+01,1.686717827793219326e-01
4.400000000000000000e+01,1.532142795522476453e-01
4.403999999999999915e+01,1.666150447595337314e-01
4.407999999999999829e+01,1.511495273352025659e-01
4.411999999999999744e+01,1.620325196921534039e-01
4.415999999999999659e+01,1.967542609096377959e-01
4.420000000000000284e+01,1.285717122401411616e-01
4.424000000000000199e+01,1.507366414596361670e-01
4.428000000000000114e+01,1.201925490958818676e-01
4.432000000000000028e+01,1.285457937938607464e-01
4.435999999999999943e+01,1.092876533281265244e-01
4.439999999999999858e+01,1.113585121405302331e-01
4.443999999999999773e+01,1.548364780060990098e-01
4.447999999999999687e+01,1.757225918878056459e-01
4.452000000000000313e+01,1.250764738791406705e-01
4.456000000000000227e+01,1.409351016108476018e-01
4.460000000000000142e+01,1.442409369153825338e-01
4.464000000000000057e+01,1.299744556835774612e-01
4.467999999999999972e+01,1.182137656904588413e-01
4.471999999999999886e+01,9.641005326160004274e-02
4.475999999999999801e+01,1.034646500851736650e-01
4.479999999999999716e+01,2.134155724872260906e-01
4.484000000000000341e+01,1.589730431687508827e-01
4.488000000000000256e+01,1.020167900504766051e-01
4.492000000000000171e+01,1.291336454005466428e-01
4.496000000000000085e+01,1.462074919209006563e-01
4.500000000000000000e+01,1.331602263718531243e-01
4.503999999999999915e+01,1.376773516010451892e-01
4.507999999999999829e+01,1.936406729198112409e-01
4.511999999999999744e+01,9.148496636279279670e-02
4.515999999999999659e+01,2.001454228953279402e-01
4.520000000000000284e+01,1.531966192758396905e-01
4.524000000000000199e+01,1.514196128455593815e-01
4.528000000000000114e+01,1.195215102195721774e-01
4.532000000000000028e+01,1.089524590281486377e-01
4.535999999999999943e+01,1.786918964668179621e-01
4.539999999999999858e+01,9.784161146865653913e-02
4.543999999999999773e+01,1.399657938390606038e-01
4.547999999999999687e+01,1.356554306273848043e-01
4.552000000000000313e+01,1.288313798986405467e-01
4.556000000000000227e+01,1.784730788483573360e-01
4.560000000000000142e+01,1.590923703232307584e-01
4.564000000000000057e+01,1.221394019535308045e-01
4.567999999999999972e+01,1.818084010800159467e-01
4.571999999999999886e+01,1.925331050420256984e-01
4.575999999999999801e+01,2.057636614698302169e-01
4.579999999999999716e+01,1.386778874132570671e-01
4.584000000000000341e+01,1.995861297787951960e-01
4.588000000000000256e+01,1.186888480790193184e-01
4.592000000000000171e+01,1.494721266119694580e-01
4.596000000000000085e+01,9.240979416596548091e-02
4.600000000000000000e+01,2.034976982274682711e-01
4.603999999999999915e+01,1.966228375843244447e-01
4.607999999999999829e+01,2.186063610267461876e-01
4.611999999999999744e+01,9.878437400987753747e-02
4.615999999999999659e+01,1.621712117017147514e-01
4.620000000000000284e+01,1.853979526005933021e-01
4.624000000000000199e+01,1.270535063652613317e-01
4.628000000000000114e+01,1.540371272932871960e-01
4.632000000000000028e+01,1.898010404055463229e-01
4.635999999999999943e+01,2.330903663754994859e-01
4.639999999999999858e+01,2.512781860213644247e-01
4.643999999999999773e+01,2.305608040745038001e-01
4.647999999999999687e+01,1.960358546867840279e-01
4.652000000000000313e+01,1.866046695463778049e-01
4.656000000000000227e+01,2.587369226603943306e-01
4.660000000000000142e+01,2.907091016581589416e-01
4.664000000000000057e+01,2.323259450389517367e-01
4.667999999999999972e+01,2.316634831871945965e-01
4.671999999999999886e+01,1.770372564858900544e-01
4.675999999999999801e+01,2.278172296673470765e-01
4.679999999999999716e+01,2.798482326798273911e-01
4.684000000000000341e+01,2.227006875005430320e-01
4.688000000000000256e+01,1.479809527744769815e-01
4.692000000000000171e+01,2.564700858428600738e-01
4.696000000000000085e+01,2.131147033193590279e-01
4.700000000000000000e+01,1.797945331247028378e-01
4.703999999999999915e+01,1.452156431786742197e-01
4.707999999999999829e+01,2.587089454599045268e-01
4.711999999999999744e+01,8.859517382790955964e-02
4.715999999999999659e+01,1.330623234516317144e-01
4.720000000000000284e+01,1.536828936988886285e-01
4.724000000000000199e+01,1.730447555331267873e-01
4.728000000000000114e+01,2.262845958598894702e-01
4.732000000000000028e+01,3.356382143807321028e-02
4.735999999999999943e+01,1.495400991760585108e-01
4.739999999999999858e+01,1.751610843828154407e-01
4.743999999999999773e+01,1.581122799059850870e-01
4.747999999999999687e+01,1.285108462742719504e-01
4.752000000000000313e+01,1.804729053210785972e-01
4.756000000000000227e+01,1.132174042405147962e-01
4.760000000000000142e+01,2.254061647221728415e-01
4.764000000000000057e+01,2.309261855538995989e-01
4.767999999999999972e+01,1.749532063949163774e-01
4.771999999999999886e+01,1.616424018323042444e-01
4.775999999999999801e+01,1.696607870321671652e-01
4.779999999999999716e+01,1.387740477401085970e-01
4.784000000000000341e+01,2.195679775289690883e-01
4.788000000000000256e+01,1.974578260565514054e-01
4.792000000000000171e+01,1.715792415330970044e-01
4.796000000000000085e+01,1.005211336173546521e-01
4.800000000000000000e+01,2.013780203752822406e-01
4.803999999999999915e+01,1.340769920437073492e-01
4.807999999999999829e+01,9.939910596386146435e-02
4.811999999999999744e+01,1.575786809254829668e-01
4.815999999999999659e+01,1.228932432531992802e-01
4.820000000000000284e+01,1.471834681140613554e-01
4.824000000000000199e+01,1.438625277752668685e-01
4.828000000000000114e+01,1.944977281281201342e-01
4.832000000000000028e+01,1.648167408598487371e-01
4.835999999999999943e+01,1.715235564996300255e-01
4.839999999999999858e+01,1.794814926772619057e-01
4.843999999999999773e+01,1.297111167325563641e-01
4.847999999999999687e+01,1.439359455715301384e-01
4.852000000000000313e+01,1.506277305918982123e-01
4.856000000000000227e+01,1.372376581192340794e-01
4.860000000000000142e+01,1.640000469432754682e-01
4.864000000000000057e+01,1.104462662875577983e-01
4.867999999999999972e+01,1.585341495801651235e-01
4.871999999999999886e+01,1.551681445951793303e-01
4.875999999999999801e+01,1.116421879481580837e-01
4.879999999999999716e+01,1.070138223419865448e-01
4.884000000000000341e+01,1.663806819285306715e-01
4.888000000000000256e+01,1.178239905687247929e-01
4.892000000000000171e+01,7.679285719753727035e-02
4.896000000000000085e+01,1.411680484309990879e-01
4.900000000000000000e+01,1.691479463910789127e-01
4.903999999999999915e+01,1.218312239249454421e-01
4.907999999999999829e+01,1.435292666343904178e-01
4.911999999999999744e+01,1.438906020039827927e-01
4.915999999999999659e+01,1.116212979535051442e-01
4.920000000000000284e+01,1.609155818237157087e-01
4.924000000000000199e+01,1.888731651570856040e-01
4.928000000000000114e+01,1.440439048586855952e-01
4.932000000000000028e+01,1.105048700082398166e-01
4.935999999999999943e+01,1.020597604097260580e-01
4.939999999999999858e+01,1.023951176060881596e-01
4.943999999999999773e+01,1.391183389376119406e-01
4.947999999999999687e+01,9.929008319308961494e-02
4.952000000000000313e+01,1.786718813369138625e-01
4.956000000000000227e+01,1.815022069400337168e-01
4.960000000000000142e+01,1.316238125601050524e-01
4.964000000000000057e+01,1.206430568421107963e-01
4.967999999999999972e+01,1.272269549521553300e-01
4.971999999999999886e+01,1.915317201726220164e-01
4.975999999999999801e+01,1.654813266544304107e-01
4.979999999999999716e+01,1.256235539120460210e-01
4.984000000000000341e+01,1.271731943583687685e-01
4.988000000000000256e+01,1.563265527247620079e-01
4.992000000000000171e+01,1.729274202641845337e-01
4.996000000000000085e+01,9.791825880909243995e-02
5.000000000000000000e+01,2.086279029475115732e-01
5.003999999999999915e+01,1.812969036409971535e-01
5.007999999999999829e+01,1.238450802592575284e-01
5.011999999999999744e+01,1.454471337662125996e-01
5.015999999999999659e+01,1.808492235306259632e-01
5.020000000000000284e+01,1.484840481965337411e-01
5.024000000000000199e+01,1.537616639452265566e-01
5.028000000000000114e+01,9.754642710180411180e-02
5.032000000000000028e+01,1.254046048622687592e-01
5.035999999999999943e+01,1.143578032617352663e-01
5.039999999999999858e+01,8.448413007523022933e-02
5.043999999999999773e+01,1.625266285856096782e-01
5.047999999999999687e+01,1.778214042480177615e-01
5.052000000000000313e+01,1.629953807795785914e-01
5.056000000000000227e+01,1.920865745063385366e-01
5.060000000000000142e+01,1.910569736375923866e-01
5.064000000000000057e+01,9.716250073052368208e-02
5.067999999999999972e+01,1.262427922568803706e-01
5.071999999999999886e+01,1.678682701938752075e-01
5.075999999999999801e+01,1.216484092723984223e-01
5.079999999999999716e+01,1.344043582826614236e-01
5.084000000000000341e+01,1.584506189123648934e-01
5.088000000000000256e+01,1.774737327044521307e-01
5.092000000000000171e+01,1.475528461292530125e-01
5.096000000000000085e+01,1.113539356575695971e-01
5.100000000000000000e+01,1.692675310938527022e-01
5.103999999999999915e+01,9.792471093643702329e-02
5.107999999999999829e+01,1.018711773091833944e-01
5.111999999999999744e+01,1.359311950882106657e-01
5.115999999999999659e+01,1.662229634975268266e-01
5.120000000000000284e+01,1.212182339348461813e-01
5.124000000000000199e+01,1.226405233061857031e-01
5.128000000000000114e+01,1.152750437339870593e-01
5.132000000000000028e+01,1.392780085006325719e-01
5.135999999999999943e+01,1.344151033517254346e-01
5.139999999999999858e+01,1.483718311349062069e-01
5.143999999999999773e+01,9.832600890000238458e-02
5.147999999999999687e+01,1.260792590603868890e-01
5.152000000000000313e+01,1.601033330137737187e-01
5.156000000000000227e+01,1.225955741868294813e-01
5.160000000000000142e+01,1.264953283261029682e-01
5.164000000000000057e+01,1.592537817571664238e-01
5.167999999999999972e+01,2.058123576171740077e-01
5.171999999999999886e+01,1.657805306370163656e-01
5.175999999999999801e+01,1.094316723601096442e-01
5.179999999999999716e+01,1.760576420114079721e-01
5.184000000000000341e+01,8.958449113243609208e-02
5.188000000000000256e+01,8.843972489071712240e-02
5.192000000000000171e+01,8.980116033607865589e-02
5.196000000000000085e+01,1.564128794466787264e-01
5.200000000000000000e+01,1.740806594171011579e-01
5.203999999999999915e+01,1.904900030949866208e-01
5.207999999999999829e+01,1.604651753564546868e-01
5.211999999999999744e+01,1.693381268754397539e-01
5.215999999999999659e+01,1.493452538322852241e-01
5.220000000000000284e+01,1.293488351614862364e-01
5.224000000000000199e+01,1.720929528412015463e-01
5.228000000000000114e+01,9.687465957289724539e-02
5.232000000000000028e+01,1.019652495093845146e-01
5.235999999999999943e+01,1.396792243383637722e-01
5.239999999999999858e+01,1.384883354575502934e-01
5.243999999999999773e+01,1.423134409319549432e-01
5.247999999999999687e+01,1.674680037539761912e-01
5.252000000000000313e+01,1.424237753213286883e-01
5.256000000000000227e+01,1.575322326847848065e-01
5.260000000000000142e+01,1.688725223146742005e-01
5.264000000000000057e+01,1.726800016960384487e-01
5.267999999999999972e+01,1.451119228065625710e-01
5.271999999999999886e+01,1.451477228417759058e-01
5.275999999999999801e+01,1.715325224751391986e-01
5.279999999999999716e+01,1.050525725243973835e-01
5.284000000000000341e+01,1.025680745334390243e-01
5.288000000000000256e+01,1.352167541031109865e-01
5.292000000000000171e+01,1.741363368342600249e-01
5.296000000000000085e+01,1.616022716609075427e-01
5.300000000000000000e+01,1.415354166480661258e-01
5.303999999999999915e+01,1.641310378317963059e-01
5.307999999999999829e+01,1.779389921171689315e-01
5.311999999999999744e+01,1.691555842355472461e-01
5.315999999999999659e+01,1.365259348603929945e-01
5.320000000000000284e+01,1.829503369845753291e-01
5.324000000000000199e+01,1.352551328748199111e-01
5.328000000000000114e+01,1.703786295823721819e-01
5.332000000000000028e+01,1.854205386497036201e-01
5.335999999999999943e+01,1.992040862576305305e-01
5.339999999999999858e+01,1.502400765575460095e-01
5.343999999999999773e+01,1.514678552959987101e-01
5.347999999999999687e+01,1.225750027112347124e-01
5.352000000000000313e+01,1.539129958540271514e-01
5.356000000000000227e+01,1.312876119189593793e-01
5.360000000000000142e+01,9.234530099999413433e-02
5.364000000000000057e+01,1.562998168147288758e-01
5.367999999999999972e+01,1.411933304704204306e-01
5.371999999999999886e+01,1.637298324962463969e-01
5.375999999999999801e+01,1.511261926957114254e-01
5.379999999999999716e+01,1.862045985543300253e-01
5.384000000000000341e+01,2.689650523397732473e-01
5.388000000000000256e+01,1.120396712456779714e-01
5.392000000000000171e+01,1.772248842089038101e-01
5.396000000000000085e+01,1.169184919010207852e-01
5.400000000000000000e+01,1.645284731127124866e-01
5.403999999999999915e+01,1.293128277917675595e-01
5.407999999999999829e+01,1.794256918299635961e-01
5.411999999999999744e+01,1.429482890882359247e-01
5.415999999999999659e+01,1.390943732841804503e-01
5.420000000000000284e+01,1.264528540765466613e-01
5.424000000000000199e+01,9.623956257353739885e-02
5.428000000000000114e+01,1.312766862606661311e-01
5.432000000000000028e+01,1.474871605935503815e-01
5.435999999999999943e+01,1.636942117530077179e-01
5.439999999999999858e+01,1.824076051951274979e-01
5.443999999999999773e+01,2.174310407238879417e-01
5.447999999999999687e+01,1.257080188670481879e-01
5.452000000000000313e+01,1.080195969658395982e-01
5.456000000000000227e+01,1.831890012010784219e-01
5.460000000000000142e+01,1.391412444189873976e-01
5.464000000000000057e+01,1.239523570039885031e-01
5.467999999999999972e+01,1.225637620932346211e-01
5.471999999999999886e+01,1.061131852875727838e-01
5.475999999999999801e+01,4.573835218784888523e-02
5.479999999999999716e+01,1.334361489758259800e-01
5.484000000000000341e+01,7.556428487409257155e-02
5.488000000000000256e+01,8.294286997755814794e-02
5.492000000000000171e+01,1.191803403218099633e-01
5.496000000000000085e+01,1.529046583192750774e-01
5.500000000000000000e+01,1.627828391360586491e-01
5.503999999999999915e+01,1.538344114166702858e-01
5.507999999999999829e+01,1.360984301824584297e-01
5.511999999999999744e+01,8.322238422268904423e-02
5.515999999999999659e+01,1.445371855159938157e-01
5.520000000000000284e+01,1.129873732854338314e-01
5.524000000000000199e+01,1.291196883501718184e-01
5.528000000000000114e+01,1.577974483400061967e-01
5.532000000000000028e+01,1.889816027689288636e-01
5.535999999999999943e+01,1.624378373825424438e-01
5.539999999999999858e+01,1.258516550284884683e-01
5.543999999999999773e+01,1.607903615980720291e-01
5.547999999999999687e+01,1.141584048653729866e-01
5.552000000000000313e+01,1.315220520263938042e-01
5.556000000000000227e+01,9.241267230466923555e-02
5.560000000000000142e+01,1.624746384035568036e-01
5.564000000000000057e+01,1.195939104156010790e-01
5.567999999999999972e+01,1.005525843773362599e-01
5.571999999999999886e+01,7.899814907802746311e-02
5.575999999999999801e+01,1.528113711337065472e-01
5.579999999999999716e+01,1.224660793326931840e-01
5.584000000000000341e+01,1.761945150741217603e-01
5.588000000000000256e+01,1.445876654073453560e-01
5.592000000000000171e+01,1.970545478183517718e-01
5.596000000000000085e+01,1.390885174723002771e-01
5.600000000000000000e+01,1.388437102609677842e-01
5.603999999999999915e+01,1.636932070025716168e-01
5.607999999999999829e+01,1.471282854716660649e-01
5.611999999999999744e+01,1.393442117043112161e-01
5.615999999999999659e+01,1.591642118813244300e-01
5.620000000000000284e+01,1.651771956614548897e-01
5.624000000000000199e+01,1.322855334281772544e-01
5.628000000000000114e+01,1.094296096233431798e-01
5.632000000000000028e+01,1.292363479640769586e-01
5.635999999999999943e+01,1.264519078191423118e-01
5.639999999999999858e+01,2.014668189929894604e-01
5.643999999999999773e+01,1.472256207086803104e-01
5.647999999999999687e+01,1.318824488579928844e-01
5.652000000000000313e+01,1.466531345491287053e-01
5.656000000000000227e+01,1.438521794697882328e-01
5.660000000000000142e+01,1.360284018297400199e-01
5.664000000000000057e+01,1.256915670850737021e-01
5.667999999999999972e+01,1.931540995328845656e-01
5.671999999999999886e+01,2.003790260777699450e-01
5.675999999999999801e+01,1.737188624658062841e-01
5.679999999999999716e+01,1.508200587909557244e-01
5.684000000000000341e+01,1.291728541324700941e-01
5.688000000000000256e+01,1.589725145264103412e-01
5.692000000000000171e+01,1.398285147036663900e-01
5.696000000000000085e+01,1.545630421497529161e-01
5.700000000000000000e+01,1.492161905813214340e-01
5.703999999999999915e+01,8.363175125133021082e-02
5.707999999999999829e+01,9.333693860210311166e-02
5.711999999999999744e+01,6.288264823401375214e-02
5.715999999999999659e+01,1.666974240098889337e-01
5.720000000000000284e+01,1.851769892106917559e-01
5.724000000000000199e+01,1.973788865393078795e-01
5.728000000000000114e+01,1.480883281181787914e-01
5.732000000000000028e+01,2.029496866506622088e-01
5.735999999999999943e+01,1.687111988961271236e-01
5.739999999999999858e+01,2.160367639347711144e-01
5.743999999999999773e+01,1.817917767869960122e-01
5.747999999999999687e+01,1.525630697209458542e-01
5.752000000000000313e+01,1.321152897869212750e-01
5.756000000000000227e+01,1.455460711367867477e-01
5.760000000000000142e+01,1.828163632845359876e-01
5.764000000000000057e+01,1.422807593668491688e-01
5.767999999999999972e+01,1.469176578839531122e-01
5.771999999999999886e+01,1.603354948714350026e-01
5.775999999999999801e+01,1.825342725969662239e-01
5.779999999999999716e+01,1.495150320235199837e-01
5.784000000000000341e+01,2.357063170139222230e-01
5.788000000000000256e+01,1.851122846170541736e-01
5.792000000000000171e+01,1.018881094199965975e-01
5.796000000000000085e+01,1.654818616624136041e-01
5.800000000000000000e+01,1.086037640452996167e-01
5.803999999999999915e+01,8.811401811254392091e-02
5.807999999999999829e+01,1.742859954075636209e-01
5.811999999999999744e+01,1.901813934144542528e-01
5.815999999999999659e+01,1.157221088935301706e-01
5.820000000000000284e+01,1.291013304902472458e-01
5.824000000000000199e+01,1.688298623559979506e-01
5.828000000000000114e+01,1.746733902363850621e-01
5.832000000000000028e+01,1.830234826311623320e-01
5.835999999999999943e+01,9.725425905384894876e-02
5.839999999999999858e+01,1.332053559761932071e-01
5.843999999999999773e+01,1.302519316070177013e-01
5.847999999999999687e+01,1.097269753155591665e-01
5.852000000000000313e+01,1.695112537178480316e-01
5.856000000000000227e+01,1.414506354574488478e-01
5.860000000000000142e+01,1.786406772956225797e-01
5.864000000000000057e+01,1.555932220790634257e-01
5.867999999999999972e+01,1.337974701917206410e-01
5.871999999999999886e+01,1.182729502781041803e-01
5.875999999999999801e+01,1.466661124321764209e-01
5.879999999999999716e+01,1.763109847184772816e-01
5.884000000000000341e+01,1.808550559262723789e-01
5.888000000000000256e+01,2.004545393379446871e-01
5.892000000000000171e+01,1.798946470759350824e-01
5.896000000000000085e+01,1.643511187994662059e-01
5.900000000000000000e+01,1.023738114136087812e-01
5.903999999999999915e+01,1.809400847232856546e-01
5.907999999999999829e+01,1.591126749078960179e-01
5.911999999999999744e+01,1.523406909024077327e-01
5.915999999999999659e+01,1.292520951192472900e-01
5.920000000000000284e+01,1.877276541744458682e-01
5.924000000000000199e+01,1.106728545373879963e-01
5.928000000000000114e+01,1.553384252887422545e-01
5.932000000000000028e+01,1.184335504342003409e-01
5.935999999999999943e+01,1.668574842713295703e-01
5.939999999999999858e+01,1.362207402263238276e-01
5.943999999999999773e+01,1.319333744804718211e-01
5.947999999999999687e+01,1.627795604609131863e-01
5.952000000000000313e+01,1.584859311595727682e-01
5.956000000000000227e+01,1.617184630472521256e-01
5.960000000000000142e+01,1.273014210000714963e-01
5.964000000000000057e+01,1.543704532282716424e-01
5.967999999999999972e+01,1.601033767816794628e-01
5.971999999999999886e+01,1.645782994353219286e-01
5.975999999999999801e+01,1.665403418626598131e-01
5.979999999999999716e+01,1.672443879255740840e-01
5.984000000000000341e+01,1.779843742396223227e-01
5.988000000000000256e+01,1.197027626372619558e-01
5.992000000000000171e+01,1.103584252418792072e-01
5.996000000000000085e+01,1.286183772195791941e-01
