2.003999999999999915e+01,2.053313890847587725e-02
2.007999999999999829e+01,2.010610486609553174e-02
2.012000000000000099e+01,2.394747780775342838e-02
2.016000000000000014e+01,1.655088946017747864e-02
2.019999999999999929e+01,2.457335512737680860e-02
2.023999999999999844e+01,1.334333218276669356e-02
2.028000000000000114e+01,2.267211469103824761e-02
2.032000000000000028e+01,2.006602074757383308e-02
2.035999999999999943e+01,2.303505062412123522e-02
2.039999999999999858e+01,2.495850779303232167e-02
2.044000000000000128e+01,2.226470073741284444e-02
2.048000000000000043e+01,2.087741068814554651e-02
2.051999999999999957e+01,3.046633931789645422e-02
2.055999999999999872e+01,1.322382456044804769e-02
2.060000000000000142e+01,1.976334966144851699e-02
2.064000000000000057e+01,1.070919283486399150e-02
2.067999999999999972e+01,1.594160325321568317e-02
2.071999999999999886e+01,2.666202366688818354e-02
2.076000000000000156e+01,2.039493149231273728e-02
2.080000000000000071e+01,1.621838672105336762e-02
2.083999999999999986e+01,2.240826016371720922e-02
2.087999999999999901e+01,3.208251200602006692e-02
2.092000000000000171e+01,2.320119180878645743e-02
2.096000000000000085e+01,2.059191186957384789e-02
2.100000000000000000e+01,2.399332896887794789e-02
2.103999999999999915e+01,2.809146301223111944e-02
2.107999999999999829e+01,1.912223430393296050e-02
2.112000000000000099e+01,2.435245915014394580e-02
2.116000000000000014e+01,2.034835624962970033e-02
2.119999999999999929e+01,1.634405513066290727e-02
2.123999999999999844e+01,2.627786448096513724e-02
2.128000000000000114e+01,2.087933626443006993e-02
2.132000000000000028e+01,1.992344590365136697e-02
2.135999999999999943e+01,2.393288003903301306e-02
2.139999999999999858e+01,2.471888242311056152e-02
2.144000000000000128e+01,2.141030883422917475e-02
2.148000000000000043e+01,2.167322908084515221e-02
2.151999999999999957e+01,2.803396166757228525e-02
2.155999999999999872e+01,1.932370044402207873e-02
2.160000000000000142e+01,2.141543085429600118e-02
2.164000000000000057e+01,2.838537180177548580e-02
2.167999999999999972e+01,2.037143356925212589e-02
2.171999999999999886e+01,2.237545731204079735e-02
2.176000000000000156e+01,2.115604990771311270e-02
2.180000000000000071e+01,2.115604729621405056e-02
2.183999999999999986e+01,1.958778782055775602e-02
2.187999999999999901e+01,2.411734128920040715e-02
2.192000000000000171e+01,1.845430956895980842e-02
2.196000000000000085e+01,2.219943922467219541e-02
2.200000000000000000e+01,1.792984454773251940e-02
2.203999999999999915e+01,1.679617250174436291e-02
2.207999999999999829e+01,1.531384599869236272e-02
2.212000000000000099e+01,1.740301440524931811e-02
2.216000000000000014e+01,2.262810564415377798e-02
2.219999999999999929e+01,1.225951757362036230e-02
2.223999999999999844e+01,2.140436509889126135e-02
2.228000000000000114e+01,2.009528475283070548e-02
2.232000000000000028e+01,2.671342109597320269e-02
2.235999999999999943e+01,1.712807739605496163e-02
2.239999999999999858e+01,2.357159240532148009e-02
2.244000000000000128e+01,1.433431407906336948e-02
2.248000000000000043e+01,2.347798417597843704e-02
2.251999999999999957e+01,1.781200536041972066e-02
2.255999999999999872e+01,1.406234804422652925e-02
2.260000000000000142e+01,1.893682331818983752e-02
2.264000000000000057e+01,1.448985890043241916e-02
2.267999999999999972e+01,9.345783317075962576e-03
2.271999999999999886e+01,1.979499483556670936e-02
2.276000000000000156e+01,2.057430914821781198e-02
2.280000000000000071e+01,1.664924876824638161e-02
2.283999999999999986e+01,2.065140595019377204e-02
2.287999999999999901e+01,2.047187514705466060e-02
2.292000000000000171e+01,1.689468628586916765e-02
2.296000000000000085e+01,2.194163061902788120e-02
2.300000000000000000e+01,2.123882744867970976e-02
2.303999999999999915e+01,1.199861511783868913e-02
2.307999999999999829e+01,1.146965061161641514e-02
2.312000000000000099e+01,1.756118770405659668e-02
2.316000000000000014e+01,1.833854970591110300e-02
2.319999999999999929e+01,1.702497055282345059e-02
2.323999999999999844e+01,2.747164450363649701e-02
2.328000000000000114e+01,2.101792452439472589e-02
2.332000000000000028e+01,1.020828844076077969e-02
2.335999999999999943e+01,1.194293552233170741e-02
2.339999999999999858e+01,1.785888066388559292e-02
2.344000000000000128e+01,1.819930789814170474e-02
2.348000000000000043e+01,2.132720246458577606e-02
2.351999999999999957e+01,1.757286282481568263e-02
2.355999999999999872e+01,1.564773193383205141e-02
2.360000000000000142e+01,1.302549142128482662e-02
2.364000000000000057e+01,1.702375338011567416e-02
2.367999999999999972e+01,1.579495554995533416e-02
2.371999999999999886e+01,1.770208317028961961e-02
2.376000000000000156e+01,1.699558400225711918e-02
2.380000000000000071e+01,1.219451282205223815e-02
2.383999999999999986e+01,1.662737731524592533e-02
2.387999999999999901e+01,1.478780920856403829e-02
2.392000000000000171e+01,2.470849534702644970e-02
2.396000000000000085e+01,1.781590312555636144e-02
2.400000000000000000e+01,1.580152540207830150e-02
2.403999999999999915e+01,1.779421795493752248e-02
2.407999999999999829e+01,1.281756281255163818e-02
2.412000000000000099e+01,1.324180894282589623e-02
2.416000000000000014e+01,1.654063797541031888e-02
2.419999999999999929e+01,1.740006981583725951e-02
2.423999999999999844e+01,1.669124882002540403e-02
2.428000000000000114e+01,9.709995895657805645e-03
2.432000000000000028e+01,1.544725660541972773e-02
2.435999999999999943e+01,1.360536908770958696e-02
2.439999999999999858e+01,1.124060214883286328e-02
2.444000000000000128e+01,1.096638872228203332e-02
2.448000000000000043e+01,1.818382346566754446e-02
2.451999999999999957e+01,1.416330423720408779e-02
2.455999999999999872e+01,1.118796557591827771e-02
2.460000000000000142e+01,9.867608551092851843e-03
2.464000000000000057e+01,1.551621339145958095e-02
2.467999999999999972e+01,1.689601883880005595e-02
2.471999999999999886e+01,2.358961213690162137e-02
2.476000000000000156e+01,1.442818713537574911e-02
2.480000000000000071e+01,2.077293829768109626e-02
2.483999999999999986e+01,7.690979710596842350e-03
2.487999999999999901e+01,6.543505837581689577e-03
2.492000000000000171e+01,1.637225802810205605e-02
2.496000000000000085e+01,1.470171369858914827e-02
2.500000000000000000e+01,1.486038053461376587e-02
2.503999999999999915e+01,1.623845760115706985e-02
2.507999999999999829e+01,2.022977582740999314e-02
2.512000000000000099e+01,1.176353908449200361e-02
2.516000000000000014e+01,1.226989694369159944e-02
2.519999999999999929e+01,2.401382462298663062e-02
2.523999999999999844e+01,1.397895364448733212e-02
2.528000000000000114e+01,1.378782175828843597e-02
2.532000000000000028e+01,1.159286670402068231e-02
2.535999999999999943e+01,1.506015829014044002e-02
2.539999999999999858e+01,1.068696010758337679e-02
2.544000000000000128e+01,1.589615799921859779e-02
2.548000000000000043e+01,1.317775182756225454e-02
2.551999999999999957e+01,1.498910498939839270e-02
2.555999999999999872e+01,1.566777967474443020e-02
2.560000000000000142e+01,1.521377595073229727e-02
2.564000000000000057e+01,1.092654658925473754e-02
2.567999999999999972e+01,1.134330568755499528e-02
2.571999999999999886e+01,1.193410301107327744e-02
2.576000000000000156e+01,4.074610167951752543e-03
2.580000000000000071e+01,1.450895689107876800e-02
2.583999999999999986e+01,6.823311976295892527e-03
2.587999999999999901e+01,1.621190475772395223e-02
2.592000000000000171e+01,1.288160062598449861e-02
2.596000000000000085e+01,1.268722570413031298e-02
2.600000000000000000e+01,1.014057103993613179e-02
2.603999999999999915e+01,1.560825373709754348e-02
2.607999999999999829e+01,1.558753738655021572e-02
2.612000000000000099e+01,1.216916834851464527e-02
2.616000000000000014e+01,1.859453987968291699e-02
2.619999999999999929e+01,8.380865668066764598e-03
2.623999999999999844e+01,1.219242474609529177e-02
2.628000000000000114e+01,9.121754250016026258e-03
2.632000000000000028e+01,7.270496132678717395e-03
2.635999999999999943e+01,1.526297892020520366e-02
2.639999999999999858e+01,8.097361591544668252e-03
2.644000000000000128e+01,1.696060975239854426e-02
2.648000000000000043e+01,1.545705151965712058e-02
2.651999999999999957e+01,1.369196071037980834e-02
2.655999999999999872e+01,8.442103523187336617e-03
2.660000000000000142e+01,1.512673393673887902e-02
2.664000000000000057e+01,1.501624980924912839e-02
2.667999999999999972e+01,1.115965621860401553e-02
2.671999999999999886e+01,1.723391856588915930e-02
2.676000000000000156e+01,8.759882403325912684e-03
2.680000000000000071e+01,9.171329166412670736e-03
2.683999999999999986e+01,0.000000000000000000e+00
2.687999999999999901e+01,2.763158904255269555e-03
2.692000000000000171e+01,1.772214923294643599e-02
2.696000000000000085e+01,1.351577665687876857e-02
2.700000000000000000e+01,9.483444454252471303e-03
2.703999999999999915e+01,1.607888415764161666e-02
2.707999999999999829e+01,8.997170177025061791e-03
2.712000000000000099e+01,9.232879939297972127e-03
2.716000000000000014e+01,1.060088906120563307e-02
2.719999999999999929e+01,1.022642145688336217e-02
2.723999999999999844e+01,1.734360665460384782e-02
2.728000000000000114e+01,6.689260346680227752e-03
2.732000000000000028e+01,1.398029844050559592e-02
2.735999999999999943e+01,1.299527791072753805e-02
2.739999999999999858e+01,1.244564171234663168e-02
2.744000000000000128e+01,8.411240612953965745e-03
2.748000000000000043e+01,1.927321917308411764e-02
2.751999999999999957e+01,1.192809448596864746e-02
2.755999999999999872e+01,2.026337945254820527e-02
2.760000000000000142e+01,8.475043870814918251e-03
2.764000000000000057e+01,1.106040164386030110e-02
2.767999999999999972e+01,1.103213920747262572e-02
2.771999999999999886e+01,1.379135121926243490e-02
2.776000000000000156e+01,1.175908243391600959e-02
2.780000000000000071e+01,1.112045736895196126e-02
2.783999999999999986e+01,1.596985424880059679e-02
2.787999999999999901e+01,1.210762123336802699e-02
2.792000000000000171e+01,1.460455458579887518e-02
2.796000000000000085e+01,1.335538062329767045e-02
2.800000000000000000e+01,1.254159199917316558e-02
2.803999999999999915e+01,1.172761663616400836e-02
2.807999999999999829e+01,1.605320590524452265e-02
2.812000000000000099e+01,6.004727804721243269e-03
2.816000000000000014e+01,9.197456356269350514e-03
2.819999999999999929e+01,1.491631687494262073e-02
2.823999999999999844e+01,6.522453512043950748e-03
2.828000000000000114e+01,7.362533274193133574e-03
2.832000000000000028e+01,7.069939191958573947e-03
2.835999999999999943e+01,1.121999478070807160e-02
2.839999999999999858e+01,1.388891894382296086e-02
2.844000000000000128e+01,1.429268188852714574e-02
2.848000000000000043e+01,8.075562238018283573e-03
2.851999999999999957e+01,7.346465673565630294e-03
2.855999999999999872e+01,1.602554156184197651e-02
2.860000000000000142e+01,1.076612303049164984e-02
2.864000000000000057e+01,9.600896924534450122e-03
2.867999999999999972e+01,1.174583345119422501e-02
2.871999999999999886e+01,2.443143027453384408e-02
2.876000000000000156e+01,7.497935748611315142e-03
2.880000000000000071e+01,1.173306197683219622e-02
2.883999999999999986e+01,1.544531623553579806e-02
2.887999999999999901e+01,1.541146472334269449e-02
2.892000000000000171e+01,8.669616925509606234e-03
2.896000000000000085e+01,1.194574325387613191e-02
2.900000000000000000e+01,1.731243074761379397e-02
2.903999999999999915e+01,1.292211714635342797e-02
2.907999999999999829e+01,1.497808628866246529e-02
2.912000000000000099e+01,1.041317390987006944e-02
2.916000000000000014e+01,9.332653827035684510e-03
2.919999999999999929e+01,1.191075496504872926e-02
2.923999999999999844e+01,5.777228490267847724e-03
2.928000000000000114e+01,3.476552228355661578e-03
2.932000000000000028e+01,9.364447690378432942e-03
2.935999999999999943e+01,1.411967105344884635e-02
2.939999999999999858e+01,1.260247108085640021e-02
2.944000000000000128e+01,1.003971357245416959e-02
2.948000000000000043e+01,8.783488175098681100e-03
2.951999999999999957e+01,5.174988943017089053e-03
2.955999999999999872e+01,1.620152957468508348e-02
2.960000000000000142e+01,5.710622152580118946e-03
2.964000000000000057e+01,1.543007817672452896e-02
2.967999999999999972e+01,9.381638587353198500e-03
2.971999999999999886e+01,1.727132369922983884e-02
2.976000000000000156e+01,1.453286463569714720e-02
2.980000000000000071e+01,1.850203281074547582e-02
2.983999999999999986e+01,1.428226095325160067e-02
2.987999999999999901e+01,1.511494231990768468e-02
2.992000000000000171e+01,1.385669380979348726e-02
2.996000000000000085e+01,2.209373453090619083e-02
3.000000000000000000e+01,1.447576574668025910e-02
3.003999999999999915e+01,2.201552420505971039e-02
3.007999999999999829e+01,2.424111918668541560e-02
3.012000000000000099e+01,2.002006318326645870e-02
3.016000000000000014e+01,2.808195847085221547e-02
3.019999999999999929e+01,2.568993917923769257e-02
3.023999999999999844e+01,2.207813483669559748e-02
3.028000000000000114e+01,3.310137156627859789e-02
3.032000000000000028e+01,3.480318149348020362e-02
3.035999999999999943e+01,3.833421158190414291e-02
3.039999999999999858e+01,3.559282001296459885e-02
3.044000000000000128e+01,4.879318621785835169e-02
3.048000000000000043e+01,5.737630504834762696e-02
3.051999999999999957e+01,4.940749981518452461e-02
3.055999999999999872e+01,5.441856197537528472e-02
3.060000000000000142e+01,6.395939199481952275e-02
3.064000000000000057e+01,6.635665647090527308e-02
3.067999999999999972e+01,6.108766889749242535e-02
3.071999999999999886e+01,5.242103635676856332e-02
3.076000000000000156e+01,4.967800280588501732e-02
3.080000000000000071e+01,5.251011059645894347e-02
3.083999999999999986e+01,5.028939947242274527e-02
3.087999999999999901e+01,4.719736208708533859e-02
3.092000000000000171e+01,4.027210792570329323e-02
3.096000000000000085e+01,4.057716952300175622e-02
3.100000000000000000e+01,3.339020846561478045e-02
3.103999999999999915e+01,2.951341400163134954e-02
3.107999999999999829e+01,2.999215934472768824e-02
3.112000000000000099e+01,2.820574796725567115e-02
3.116000000000000014e+01,2.040825949456377339e-02
3.119999999999999929e+01,2.463238077167189191e-02
3.123999999999999844e+01,2.415214152100438397e-02
3.128000000000000114e+01,1.617988008557533219e-02
3.132000000000000028e+01,2.110037289012901829e-02
3.135999999999999943e+01,1.696078392436875526e-02
3.139999999999999858e+01,1.604424772732112453e-02
3.144000000000000128e+01,1.260121206012490558e-02
3.148000000000000043e+01,1.725963731311167676e-02
3.151999999999999957e+01,2.183076723881698794e-02
3.155999999999999872e+01,2.474654218455647064e-02
3.160000000000000142e+01,1.781820590286567127e-02
3.164000000000000057e+01,1.480983822370885057e-02
3.167999999999999972e+01,1.589566807197539955e-02
3.171999999999999886e+01,1.375808348898764980e-02
3.176000000000000156e+01,1.275280598581192068e-02
3.180000000000000071e+01,1.070197490761303286e-02
3.183999999999999986e+01,1.544588892060458872e-02
3.187999999999999901e+01,1.740196091526324818e-02
3.192000000000000171e+01,1.055929536609167239e-02
3.196000000000000085e+01,2.009396228616188579e-02
3.200000000000000000e+01,1.176999119328256578e-02
3.203999999999999915e+01,8.062904805286437437e-03
3.207999999999999829e+01,1.071499176687923729e-02
3.211999999999999744e+01,1.084058039956703121e-02
3.215999999999999659e+01,8.962357343753902736e-03
3.220000000000000284e+01,1.109121825920110493e-02
3.224000000000000199e+01,1.243586962471293460e-02
3.228000000000000114e+01,9.076162207880520555e-03
3.232000000000000028e+01,9.026623532674877409e-03
3.235999999999999943e+01,7.757303364536383833e-03
3.239999999999999858e+01,1.127909736322625818e-02
3.243999999999999773e+01,1.733547675745992145e-03
3.247999999999999687e+01,9.959162192282215026e-03
3.252000000000000313e+01,1.252215961160048872e-02
3.256000000000000227e+01,1.046791314737702434e-02
3.260000000000000142e+01,1.242075132573368379e-02
3.264000000000000057e+01,7.491370603966757483e-03
3.267999999999999972e+01,1.048922395858470878e-02
3.271999999999999886e+01,1.305132628436575341e-02
3.275999999999999801e+01,1.021215520235675862e-02
3.279999999999999716e+01,1.460330296709911636e-02
3.284000000000000341e+01,5.230192285961601448e-03
3.288000000000000256e+01,1.275710219137347369e-02
3.292000000000000171e+01,1.322756480882819954e-02
3.296000000000000085e+01,6.728694634336443957e-03
3.300000000000000000e+01,1.329681037712785417e-02
3.303999999999999915e+01,1.463788203981046532e-02
3.307999999999999829e+01,1.127459626278829764e-02
3.311999999999999744e+01,7.301331270491646756e-03
3.315999999999999659e+01,1.020992801361933315e-02
3.320000000000000284e+01,1.259566010461514625e-02
3.324000000000000199e+01,8.447632017981742888e-03
3.328000000000000114e+01,4.473654844509884418e-03
3.332000000000000028e+01,1.252129097883272583e-02
3.335999999999999943e+01,1.089904769728963600e-02
3.339999999999999858e+01,1.929478599359546118e-02
3.343999999999999773e+01,1.227109270230602837e-02
3.347999999999999687e+01,9.341599959378873996e-03
3.352000000000000313e+01,1.059342226082460141e-02
3.356000000000000227e+01,1.219352480311309411e-02
3.360000000000000142e+01,1.544862408655659283e-02
3.364000000000000057e+01,1.687414302313964415e-02
3.367999999999999972e+01,1.011072837185018718e-02
3.371999999999999886e+01,3.869823087688735279e-03
3.375999999999999801e+01,6.078840265747666345e-03
3.379999999999999716e+01,1.124957095380173244e-02
3.384000000000000341e+01,9.625199184570184738e-03
3.388000000000000256e+01,1.340174506820094105e-02
3.392000000000000171e+01,1.386776578395741699e-02
3.396000000000000085e+01,1.215574897439452261e-02
3.400000000000000000e+01,3.300172260559160273e-03
3.403999999999999915e+01,2.110488618959832814e-03
3.407999999999999829e+01,1.050321555205958705e-02
3.411999999999999744e+01,1.105546735125331401e-02
3.415999999999999659e+01,1.369828897584310541e-02
3.420000000000000284e+01,8.761978887426908127e-03
3.424000000000000199e+01,1.053330348924107034e-02
3.428000000000000114e+01,1.282713839803092080e-02
3.432000000000000028e+01,8.761443799512280001e-03
3.435999999999999943e+01,1.044512537495437265e-02
3.439999999999999858e+01,8.382710443712493645e-03
3.443999999999999773e+01,1.085006981639374292e-02
3.447999999999999687e+01,1.479819854937606746e-02
3.452000000000000313e+01,1.073162396201478297e-02
3.456000000000000227e+01,6.839102436038255531e-03
3.460000000000000142e+01,1.191919135532571415e-02
3.464000000000000057e+01,4.541741282852478599e-03
3.467999999999999972e+01,1.641640439759207287e-02
3.471999999999999886e+01,9.822633062205654575e-03
3.475999999999999801e+01,9.152467429857112646e-03
3.479999999999999716e+01,1.135690255692446693e-02
3.484000000000000341e+01,1.164464492221193963e-02
3.488000000000000256e+01,1.045126673724498974e-02
3.492000000000000171e+01,8.909255644578466596e-03
3.496000000000000085e+01,1.965020389875376736e-02
3.500000000000000000e+01,1.549440975675299946e-02
3.503999999999999915e+01,1.769779393210735643e-02
3.507999999999999829e+01,1.397722202005419710e-02
3.511999999999999744e+01,1.374105240662352317e-02
3.515999999999999659e+01,1.855734487876362429e-02
3.520000000000000284e+01,1.649142274722663684e-02
3.524000000000000199e+01,2.339811213506519383e-02
3.528000000000000114e+01,2.211587062031029199e-02
3.532000000000000028e+01,1.952673815151005632e-02
3.535999999999999943e+01,2.329678453712080016e-02
3.539999999999999858e+01,2.105576094350113461e-02
3.543999999999999773e+01,2.665486162949402479e-02
3.547999999999999687e+01,3.007592734118261918e-02
3.552000000000000313e+01,3.149318700345627581e-02
3.556000000000000227e+01,3.090664068344694052e-02
3.560000000000000142e+01,2.814205959052930653e-02
3.564000000000000057e+01,2.529019008492368326e-02
3.567999999999999972e+01,2.330929095142765875e-02
3.571999999999999886e+01,3.143349171831384681e-02
3.575999999999999801e+01,2.945224495285921409e-02
3.579999999999999716e+01,2.511873489239873497e-02
3.584000000000000341e+01,2.426962833893626936e-02
3.588000000000000256e+01,3.335139309662655399e-02
3.592000000000000171e+01,2.413895427590751624e-02
3.596000000000000085e+01,3.147808349538525757e-02
3.600000000000000000e+01,3.359017360252039563e-02
3.603999999999999915e+01,2.873293608687122608e-02
3.607999999999999829e+01,2.762144576764799866e-02
3.611999999999999744e+01,2.955878728095324287e-02
3.615999999999999659e+01,3.114749796765017495e-02
3.620000000000000284e+01,3.099374703281182128e-02
3.624000000000000199e+01,2.718101710823906184e-02
3.628000000000000114e+01,2.876920886444716066e-02
3.632000000000000028e+01,2.756956605397170232e-02
3.635999999999999943e+01,3.028989976760337530e-02
3.639999999999999858e+01,3.126777219535963048e-02
3.643999999999999773e+01,3.363930284400516030e-02
3.647999999999999687e+01,3.235185490570811201e-02
3.652000000000000313e+01,2.775388616311526974e-02
3.656000000000000227e+01,3.160584458198109625e-02
3.660000000000000142e+01,2.901116289118238836e-02
3.664000000000000057e+01,3.207874677198834651e-02
3.667999999999999972e+01,2.774143195972820011e-02
3.671999999999999886e+01,3.551285059035945435e-02
3.675999999999999801e+01,2.638389791441177190e-02
3.679999999999999716e+01,3.188999725310133482e-02
3.684000000000000341e+01,3.356288975127873914e-02
3.688000000000000256e+01,3.218660533598417806e-02
3.692000000000000171e+01,4.230925369709009204e-02
3.696000000000000085e+01,4.711775012814212182e-02
3.700000000000000000e+01,4.277905982561013010e-02
3.703999999999999915e+01,4.471243676815340323e-02
3.707999999999999829e+01,4.516469685270093487e-02
3.711999999999999744e+01,4.291623814208305604e-02
3.715999999999999659e+01,5.077288174859852232e-02
3.720000000000000284e+01,4.887253795503905540e-02
3.724000000000000199e+01,5.751286875727031067e-02
3.728000000000000114e+01,5.517661028938895124e-02
3.732000000000000028e+01,6.442639969810649847e-02
3.735999999999999943e+01,6.026039596237223878e-02
3.739999999999999858e+01,7.194904725255639455e-02
3.743999999999999773e+01,7.823643298939172985e-02
3.747999999999999687e+01,8.574324983479032769e-02
3.752000000000000313e+01,9.403392571149069012e-02
3.756000000000000227e+01,1.045022915486838039e-01
3.760000000000000142e+01,1.091338199566625755e-01
3.764000000000000057e+01,1.232606504852076373e-01
3.767999999999999972e+01,1.401749721777920954e-01
3.771999999999999886e+01,1.629257901123019880e-01
3.775999999999999801e+01,1.804495718882762889e-01
3.779999999999999716e+01,2.099949744908265747e-01
3.784000000000000341e+01,2.398886645173410881e-01
3.788000000000000256e+01,2.921705925412590998e-01
3.792000000000000171e+01,3.352182209467499119e-01
3.796000000000000085e+01,3.885451818697709392e-01
3.800000000000000000e+01,4.906560529418331762e-01
3.803999999999999915e+01,5.779573011486280887e-01
3.807999999999999829e+01,6.920896235612994385e-01
3.811999999999999744e+01,8.213796867772352739e-01
3.815999999999999659e+01,9.129490325342058954e-01
3.820000000000000284e+01,9.857014919660173069e-01
3.824000000000000199e+01,1.000000000000000000e+00
3.828000000000000114e+01,9.757066464876262835e-01
3.832000000000000028e+01,9.000156104508615362e-01
3.835999999999999943e+01,8.011519669135314103e-01
3.839999999999999858e+01,7.022881540244981791e-01
3.843999999999999773e+01,5.954096443940554151e-01
3.847999999999999687e+01,5.056925080352744351e-01
3.852000000000000313e+01,4.400187848967037074e-01
3.856000000000000227e+01,3.607550417698830447e-01
3.860000000000000142e+01,3.077996871483822394e-01
3.864000000000000057e+01,2.724412782114650211e-01
3.867999999999999972e+01,2.336852376664999287e-01
3.871999999999999886e+01,1.955388293090385143e-01
3.875999999999999801e+01,1.824812077211233896e-01
3.879999999999999716e+01,1.564433675499010690e-01
3.884000000000000341e+01,1.455632693903187447e-01
3.888000000000000256e+01,1.426975301414563635e-01
3.892000000000000171e+01,1.217118212068401539e-01
3.896000000000000085e+01,1.086533568883291251e-01
3.900000000000000000e+01,1.041319382552059469e-01
3.903999999999999915e+01,9.734537619364566630e-02
3.907999999999999829e+01,8.559312347554103029e-02
3.911999999999999744e+01,8.124542906879729520e-02
3.915999999999999659e+01,7.654910887034351019e-02
3.920000000000000284e+01,6.697421264561992382e-02
3.924000000000000199e+01,6.227755649617131711e-02
3.928000000000000114e+01,6.245914048912964978e-02
3.932000000000000028e+01,5.506160136197491700e-02
3.935999999999999943e+01,5.480727766233688819e-02
3.939999999999999858e+01,4.932592055657424035e-02
3.943999999999999773e+01,4.349593812902532303e-02
3.947999999999999687e+01,3.888539016663843106e-02
3.952000000000000313e+01,4.281188876235517832e-02
3.956000000000000227e+01,4.543150352001602138e-02
3.960000000000000142e+01,4.447925935590711644e-02
3.964000000000000057e+01,4.195878820137025761e-02
3.967999999999999972e+01,4.335829914289456716e-02
3.971999999999999886e+01,3.778848863777634765e-02
3.975999999999999801e+01,4.075572509355357420e-02
3.979999999999999716e+01,3.588249594816537297e-02
3.984000000000000341e+01,3.911074175354314897e-02
3.988000000000000256e+01,3.911558682258977487e-02
3.992000000000000171e+01,3.258668292504715569e-02
3.996000000000000085e+01,3.720825919042047153e-02
4.000000000000000000e+01,3.364091247477345864e-02
4.003999999999999915e+01,3.225125988180170544e-02
4.007999999999999829e+01,2.807377903255212082e-02
4.011999999999999744e+01,2.807762430445148727e-02
4.015999999999999659e+01,3.156588033360230999e-02
4.020000000000000284e+01,3.792874618498579681e-02
4.024000000000000199e+01,2.730413214139357919e-02
4.028000000000000114e+01,2.591348136244199865e-02
4.032000000000000028e+01,2.521957988515186391e-02
4.035999999999999943e+01,2.896834821843859153e-02
4.039999999999999858e+01,2.975505997474591283e-02
4.043999999999999773e+01,3.001891922980900324e-02
4.047999999999999687e+01,3.071818476842536408e-02
4.052000000000000313e+01,2.401255805864528636e-02
4.056000000000000227e+01,2.802184037436730377e-02
4.060000000000000142e+01,3.203095703064513106e-02
4.064000000000000057e+01,3.403627623040091088e-02
4.067999999999999972e+01,2.401963871971785416e-02
4.071999999999999886e+01,3.220975138663175613e-02
4.075999999999999801e+01,3.064288262821656186e-02
4.079999999999999716e+01,2.358763952665986208e-02
4.084000000000000341e+01,3.099322636231255368e-02
4.088000000000000256e+01,2.306650852579624281e-02
4.092000000000000171e+01,2.594181474784848507e-02
4.096000000000000085e+01,2.480969218622477296e-02
4.100000000000000000e+01,2.367740463647658583e-02
4.103999999999999915e+01,2.219649445022119083e-02
4.107999999999999829e+01,2.629074285834112970e-02
4.111999999999999744e+01,2.376412988495245696e-02
4.115999999999999659e+01,2.585441692253756182e-02
4.120000000000000284e+01,2.027846956633374415e-02
4.124000000000000199e+01,2.097459650406267168e-02
4.128000000000000114e+01,2.611339479640392702e-02
4.132000000000000028e+01,2.384730218298830931e-02
4.135999999999999943e+01,2.367179147872441533e-02
4.139999999999999858e+01,2.253785773999026840e-02
4.143999999999999773e+01,3.037654592608802356e-02
4.147999999999999687e+01,3.098457233271412203e-02
4.152000000000000313e+01,2.497173802915138643e-02
4.156000000000000227e+01,2.122371482815764085e-02
4.160000000000000142e+01,2.148279137443860273e-02
4.164000000000000057e+01,2.688145531054917867e-02
4.167999999999999972e+01,2.365562694078902906e-02
4.171999999999999886e+01,1.964560493137177885e-02
4.175999999999999801e+01,2.086228494205875916e-02
4.179999999999999716e+01,2.512780631801479411e-02
4.184000000000000341e+01,2.468898495616884958e-02
4.188000000000000256e+01,2.520825880076743922e-02
4.192000000000000171e+01,3.130269264951287406e-02
4.196000000000000085e+01,2.459114207613453257e-02
4.200000000000000000e+01,1.953460234162614911e-02
4.203999999999999915e+01,2.371202882556534136e-02
4.207999999999999829e+01,2.274954083010097966e-02
4.211999999999999744e+01,2.492300916584014661e-02
4.215999999999999659e+01,2.491845373831504118e-02
4.220000000000000284e+01,2.857254134952950941e-02
4.224000000000000199e+01,2.508308288565859467e-02
4.228000000000000114e+01,2.629764074133545543e-02
4.232000000000000028e+01,2.803472239751517506e-02
4.235999999999999943e+01,2.262825818000539432e-02
4.239999999999999858e+01,2.375521348989175288e-02
4.243999999999999773e+01,2.026494149783443846e-02
4.247999999999999687e+01,2.052042744331922242e-02
4.252000000000000313e+01,2.347629824693390696e-02
4.256000000000000227e+01,2.251185738103036321e-02
4.260000000000000142e+01,2.973601052687780896e-02
4.264000000000000057e+01,2.171497638324184493e-02
4.267999999999999972e+01,2.327636724767983417e-02
4.271999999999999886e+01,2.536028258394043555e-02
4.275999999999999801e+01,2.674712045485403214e-02
4.279999999999999716e+01,2.865648293185419845e-02
4.284000000000000341e+01,2.882339493122708721e-02
4.288000000000000256e+01,3.238760782394713156e-02
4.292000000000000171e+01,2.854693249618930548e-02
4.296000000000000085e+01,3.515982693521606250e-02
4.300000000000000000e+01,2.966365412857989090e-02
4.303999999999999915e+01,2.965552877690722997e-02
4.307999999999999829e+01,3.391584894302843156e-02
4.311999999999999744e+01,4.070232611650178439e-02
4.315999999999999659e+01,3.084978601114846120e-02
4.320000000000000284e+01,2.962141306891923065e-02
4.324000000000000199e+01,3.396820234619204321e-02
4.328000000000000114e+01,4.136383547261699573e-02
4.332000000000000028e+01,4.483915820503129451e-02
4.335999999999999943e+01,3.908019044896702404e-02
4.339999999999999858e+01,4.438459420028994379e-02
4.343999999999999773e+01,4.585580218787672219e-02
4.347999999999999687e+01,4.976605335812477049e-02
4.352000000000000313e+01,5.010445218553674640e-02
4.356000000000000227e+01,5.523398390959843862e-02
4.360000000000000142e+01,5.496226041863558343e-02
4.364000000000000057e+01,5.861052566979953193e-02
4.367999999999999972e+01,6.278131700395354897e-02
4.371999999999999886e+01,6.860712206365246479e-02
4.375999999999999801e+01,7.652351306042172452e-02
4.379999999999999716e+01,7.607675859595104673e-02
4.384000000000000341e+01,8.294745593553576324e-02
4.388000000000000256e+01,8.485247067441323288e-02
4.392000000000000171e+01,9.729817122012139607e-02
4.396000000000000085e+01,1.021647564330257635e-01
4.400000000000000000e+01,1.173106843003886568e-01
4.403999999999999915e+01,1.235707805360314326e-01
4.407999999999999829e+01,1.311374333858921493e-01
4.411999999999999744e+01,1.535133793932990376e-01
4.415999999999999659e+01,1.603827973756015712e-01
4.420000000000000284e+01,1.700397174644556753e-01
4.424000000000000199e+01,1.912826970437404850e-01
4.428000000000000114e+01,1.961480045105300773e-01
4.432000000000000028e+01,2.116411128843487532e-01
4.435999999999999943e+01,2.260015743337061289e-01
4.439999999999999858e+01,2.229389907254198944e-01
4.443999999999999773e+01,2.235350539152639038e-01
4.447999999999999687e+01,2.114122513411773041e-01
4.452000000000000313e+01,2.186286928976482746e-01
4.456000000000000227e+01,1.956162686198368306e-01
4.460000000000000142e+01,1.933369194689059101e-01
4.464000000000000057e+01,1.748541276674247802e-01
4.467999999999999972e+01,1.574165502005052952e-01
4.471999999999999886e+01,1.455541374369709318e-01
4.475999999999999801e+01,1.307296754138425610e-01
4.479999999999999716e+01,1.194767463641535354e-01
4.484000000000000341e+01,1.097917184908261123e-01
4.488000000000000256e+01,9.566369626836294937e-02
4.492000000000000171e+01,8.589123708064320961e-02
4.496000000000000085e+01,7.603150512198598998e-02
4.500000000000000000e+01,6.381952530867734952e-02
4.503999999999999915e+01,7.356022336500259162e-02
4.507999999999999829e+01,6.396136006959672604e-02
4.511999999999999744e+01,5.732422928253527034e-02
4.515999999999999659e+01,5.356171664207145383e-02
4.520000000000000284e+01,5.075730478000621548e-02
4.524000000000000199e+01,4.917233705010756045e-02
4.528000000000000114e+01,4.689029608417636524e-02
4.532000000000000028e+01,4.068794808083331382e-02
4.535999999999999943e+01,4.406802958340653997e-02
4.539999999999999858e+01,4.222108774965156047e-02
4.543999999999999773e+01,3.941572966175593135e-02
4.547999999999999687e+01,3.086066179852389735e-02
4.552000000000000313e+01,3.493702872049007230e-02
4.556000000000000227e+01,3.108582527941668519e-02
4.560000000000000142e+01,2.880252429021242996e-02
4.564000000000000057e+01,3.078767311524849976e-02
4.567999999999999972e+01,2.432256520536879574e-02
4.571999999999999886e+01,2.613317097241294254e-02
4.575999999999999801e+01,2.646267444910010980e-02
4.579999999999999716e+01,2.443993141377542866e-02
4.584000000000000341e+01,2.773101167489519514e-02
4.588000000000000256e+01,2.056820367254934626e-02
4.592000000000000171e+01,2.307494054484613213e-02
4.596000000000000085e+01,2.209694359823605875e-02
4.600000000000000000e+01,1.806978504424457121e-02
4.603999999999999915e+01,2.388640042404903061e-02
4.607999999999999829e+01,1.733261044071666979e-02
4.611999999999999744e+01,1.530861436384438681e-02
4.615999999999999659e+01,1.302311867223651318e-02
4.620000000000000284e+01,1.692259117004772315e-02
4.624000000000000199e+01,1.803424574990536780e-02
4.628000000000000114e+01,1.130544560397773839e-02
4.632000000000000028e+01,1.764365373028123699e-02
4.635999999999999943e+01,1.387643211421757394e-02
4.639999999999999858e+01,1.611995016547549883e-02
4.643999999999999773e+01,1.592410834995449526e-02
4.647999999999999687e+01,1.416005102357341047e-02
4.652000000000000313e+01,1.649021613057875466e-02
4.656000000000000227e+01,1.385470313471924390e-02
4.660000000000000142e+01,1.513918384875278557e-02
4.664000000000000057e+01,1.154510102306405446e-02
4.667999999999999972e+01,1.500713148116500882e-02
4.671999999999999886e+01,1.629114582904692479e-02
4.675999999999999801e+01,1.173833812093698532e-02
4.679999999999999716e+01,1.302204189371104770e-02
4.684000000000000341e+01,1.055967003784565386e-02
4.688000000000000256e+01,1.010077492646605131e-02
4.692000000000000171e+01,1.661087907278927314e-02
4.696000000000000085e+01,8.572718610911987669e-03
4.700000000000000000e+01,9.681418262968618030e-03
4.703999999999999915e+01,1.009304763279967113e-02
4.707999999999999829e+01,1.015606450305186516e-02
4.711999999999999744e+01,1.117718537403748769e-02
4.715999999999999659e+01,9.758947586619744555e-03
4.720000000000000284e+01,5.552893492415900308e-03
4.724000000000000199e+01,1.092927205933124160e-02
4.728000000000000114e+01,1.003325729857700715e-02
4.732000000000000028e+01,1.053091901860949559e-02
4.735999999999999943e+01,9.199023418049300654e-03
4.739999999999999858e+01,4.730854130848130557e-03
4.743999999999999773e+01,1.393949599772426051e-02
4.747999999999999687e+01,8.861217415751623458e-03
4.752000000000000313e+01,1.049059581182539176e-02
4.756000000000000227e+01,4.366636059215760896e-03
4.760000000000000142e+01,8.783368289578650720e-03
4.764000000000000057e+01,1.198034467142350748e-02
4.767999999999999972e+01,5.943037815043223857e-03
4.771999999999999886e+01,1.576040330463119796e-02
4.775999999999999801e+01,9.984132382113973872e-03
4.779999999999999716e+01,1.056706119205224302e-02
4.784000000000000341e+01,5.313169758562024357e-03
4.788000000000000256e+01,1.356186135984345335e-02
4.792000000000000171e+01,9.962837259331070935e-03
4.796000000000000085e+01,9.761122577926753877e-03
4.800000000000000000e+01,9.646369085372490451e-03
4.803999999999999915e+01,1.109952213973788154e-02
4.807999999999999829e+01,7.674114071132158432e-03
4.811999999999999744e+01,9.910990841008273169e-03
4.815999999999999659e+01,1.345443107256389693e-02
4.820000000000000284e+01,8.112046654124837122e-03
4.824000000000000199e+01,1.191652443071095427e-02
4.828000000000000114e+01,1.023264041783504552e-02
4.832000000000000028e+01,4.889797689081501475e-03
4.835999999999999943e+01,9.564961645535913215e-03
4.839999999999999858e+01,1.110385359364874855e-02
4.843999999999999773e+01,6.631697447555361460e-03
4.847999999999999687e+01,8.344513317403681046e-03
4.852000000000000313e+01,1.118966439536197427e-02
4.856000000000000227e+01,6.020135716300171330e-03
4.860000000000000142e+01,1.017169869420871293e-02
4.864000000000000057e+01,6.918383051511951994e-03
4.867999999999999972e+01,8.891781042751232753e-03
4.871999999999999886e+01,9.993882713550577071e-03
4.875999999999999801e+01,1.135717570646486291e-02
4.879999999999999716e+01,1.036822722226549316e-02
4.884000000000000341e+01,9.727584623323725158e-03
4.888000000000000256e+01,1.056773555219439956e-02
4.892000000000000171e+01,9.926789494134214548e-03
4.896000000000000085e+01,1.085375152702913910e-02
4.900000000000000000e+01,1.082230328052925447e-02
4.903999999999999915e+01,1.645314141654665233e-02
4.907999999999999829e+01,9.278007079931965134e-03
4.911999999999999744e+01,9.681676695429596025e-03
4.915999999999999659e+01,1.139191145090614858e-02
4.920000000000000284e+01,1.196950740489040495e-02
4.924000000000000199e+01,1.019486262021276381e-02
4.928000000000000114e+01,5.458176161854387011e-03
4.932000000000000028e+01,1.082661242875005390e-02
4.935999999999999943e+01,1.227474843856341848e-02
4.939999999999999858e+01,1.076084297609197597e-02
4.943999999999999773e+01,1.037927426576591358e-02
4.947999999999999687e+01,1.200118666350407336e-02
4.952000000000000313e+01,1.214200308129102096e-02
4.956000000000000227e+01,7.317146431111297769e-03
4.960000000000000142e+01,1.198761197395865029e-02
4.964000000000000057e+01,1.221509115637542560e-02
4.967999999999999972e+01,5.995952181283797575e-03
4.971999999999999886e+01,7.529847023041487224e-03
4.975999999999999801e+01,9.847621438485621922e-03
4.979999999999999716e+01,1.016161377063025395e-02
4.984000000000000341e+01,1.430849082147929788e-02
4.988000000000000256e+01,1.148606347720769992e-02
4.992000000000000171e+01,1.101557569496680600e-02
4.996000000000000085e+01,1.089339567767882641e-02
5.000000000000000000e+01,9.899921488174119946e-03
5.003999999999999915e+01,1.282644678191238903e-02
5.007999999999999829e+01,8.870782445068595493e-03
5.011999999999999744e+01,1.502024217611838165e-02
5.015999999999999659e+01,1.193542283112554447e-02
5.020000000000000284e+01,1.242214552238883780e-02
5.024000000000000199e+01,6.288022138234055161e-03
5.028000000000000114e+01,9.126535515077829203e-03
5.032000000000000028e+01,1.605927770284576797e-02
5.035999999999999943e+01,6.440129124421407371e-03
5.039999999999999858e+01,1.154316981438475824e-02
5.043999999999999773e+01,1.290014091758653891e-02
5.047999999999999687e+01,1.643482366490930588e-02
5.052000000000000313e+01,1.395846180888860380e-02
5.056000000000000227e+01,1.479229930667575257e-02
5.060000000000000142e+01,1.388369935043896886e-02
5.064000000000000057e+01,1.393320930254949089e-02
5.067999999999999972e+01,1.694446109434903994e-02
5.071999999999999886e+01,2.039113635548774756e-02
5.075999999999999801e+01,2.165980228673700450e-02
5.079999999999999716e+01,1.604627979577974081e-02
5.084000000000000341e+01,2.480648959614723328e-02
5.088000000000000256e+01,1.788595379182495587e-02
5.092000000000000171e+01,1.897979710494732131e-02
5.096000000000000085e+01,2.286115386992521037e-02
5.100000000000000000e+01,2.369335741901863052e-02
5.103999999999999915e+01,2.269600982366117015e-02
5.107999999999999829e+01,2.492174802594857713e-02
5.111999999999999744e+01,2.122355706075083545e-02
5.115999999999999659e+01,2.310054160718642141e-02
5.120000000000000284e+01,2.671966686172511096e-02
5.124000000000000199e+01,2.511177858120408959e-02
5.128000000000000114e+01,1.644747382630292951e-02
5.132000000000000028e+01,1.841098172652672754e-02
5.135999999999999943e+01,2.507852118525687526e-02
5.139999999999999858e+01,2.015969406931114594e-02
5.143999999999999773e+01,2.299390365688970539e-02
5.147999999999999687e+01,2.016552796780698292e-02
5.152000000000000313e+01,1.864372137948974717e-02
5.156000000000000227e+01,1.424699137289310059e-02
5.160000000000000142e+01,2.161056206676818109e-02
5.164000000000000057e+01,1.259647300043154755e-02
5.167999999999999972e+01,1.116119218265367377e-02
5.171999999999999886e+01,1.582377438962890431e-02
5.175999999999999801e+01,1.282013992565689785e-02
5.179999999999999716e+01,1.295247803882664146e-02
5.184000000000000341e+01,1.979248038029620196e-02
5.188000000000000256e+01,1.478477366603754041e-02
5.192000000000000171e+01,1.413264173461813156e-02
5.196000000000000085e+01,8.689069620907994076e-03
5.200000000000000000e+01,1.474445559235330015e-02
5.203999999999999915e+01,1.147845121408016741e-02
5.207999999999999829e+01,1.091284773847916827e-02
5.211999999999999744e+01,1.487704823913468637e-02
5.215999999999999659e+01,1.195906260007090043e-02
5.220000000000000284e+01,1.235127906722597799e-02
5.224000000000000199e+01,8.039170250892863773e-03
5.228000000000000114e+01,1.409353241421608220e-02
5.232000000000000028e+01,1.222033555980366060e-02
5.235999999999999943e+01,1.348311222238064017e-02
5.239999999999999858e+01,1.021579272775469636e-02
5.243999999999999773e+01,7.906586162414953184e-03
5.247999999999999687e+01,1.256638818612270704e-02
5.252000000000000313e+01,1.173783553635791670e-02
5.256000000000000227e+01,1.029933629745891956e-02
5.260000000000000142e+01,1.103855226067563915e-02
5.264000000000000057e+01,9.948219764720548502e-03
5.267999999999999972e+01,9.990229458600870596e-03
5.271999999999999886e+01,1.011920826290440070e-02
5.275999999999999801e+01,6.937693518494367217e-03
5.279999999999999716e+01,1.272881976439741401e-02
5.284000000000000341e+01,1.555791031136557513e-02
5.288000000000000256e+01,1.359556222007845400e-02
5.292000000000000171e+01,1.302690000805469678e-02
5.296000000000000085e+01,9.409087869613310187e-03
5.300000000000000000e+01,1.215048419078429594e-02
5.303999999999999915e+01,1.105870085989345622e-02
5.307999999999999829e+01,1.275443453885283761e-02
5.311999999999999744e+01,1.436290914179779582e-02
5.315999999999999659e+01,1.257377643847028964e-02
5.320000000000000284e+01,1.043604150675622733e-02
5.324000000000000199e+01,1.030179399351215629e-02
5.328000000000000114e+01,1.129988967708316604e-02
5.332000000000000028e+01,1.404012962675205319e-02
5.335999999999999943e+01,8.417240159723239287e-03
5.339999999999999858e+01,1.394485341195425207e-02
5.343999999999999773e+01,9.715506519692608881e-03
5.347999999999999687e+01,1.315208532580731601e-02
5.352000000000000313e+01,1.606583358283393548e-02
5.356000000000000227e+01,1.096491047433751850e-02
5.360000000000000142e+01,1.666603270524607064e-02
5.364000000000000057e+01,1.078079212086941255e-02
5.367999999999999972e+01,1.142898999510609699e-02
5.371999999999999886e+01,1.399356166451778266e-02
5.375999999999999801e+01,1.159246731482029176e-02
5.379999999999999716e+01,1.110774689456173712e-02
5.384000000000000341e+01,1.419457461956911970e-02
5.388000000000000256e+01,1.362245296004351187e-02
5.392000000000000171e+01,8.868695409844815428e-03
5.396000000000000085e+01,1.683350123856995617e-02
5.400000000000000000e+01,1.286348714068292348e-02
5.403999999999999915e+01,1.089696180390538512e-02
5.407999999999999829e+01,1.250198501518561857e-02
5.411999999999999744e+01,8.444427380515014472e-03
5.415999999999999659e+01,1.396931402079541751e-02
5.420000000000000284e+01,1.418007766490364183e-02
5.424000000000000199e+01,1.134169353081750618e-02
5.428000000000000114e+01,9.548539842967138785e-03
5.432000000000000028e+01,1.576977097877937592e-02
5.435999999999999943e+01,1.258250122964914286e-02
5.439999999999999858e+01,1.174717856133089371e-02
5.443999999999999773e+01,1.274111646768451983e-02
5.447999999999999687e+01,1.417048415378302159e-02
5.452000000000000313e+01,1.490279411133548296e-02
5.456000000000000227e+01,1.528650412298860305e-02
5.460000000000000142e+01,1.131435052745483928e-02
5.464000000000000057e+01,1.195911956637078083e-02
5.467999999999999972e+01,1.303931872069146423e-02
5.471999999999999886e+01,1.429360477091281070e-02
5.475999999999999801e+01,1.363123149107841117e-02
5.479999999999999716e+01,1.018105465953331353e-02
5.484000000000000341e+01,1.230605951576330993e-02
5.488000000000000256e+01,1.599898239848087170e-02
5.492000000000000171e+01,1.368086806237234394e-02
5.496000000000000085e+01,8.226492727566273033e-03
5.500000000000000000e+01,1.400973722617778958e-02
5.503999999999999915e+01,9.948909836696974429e-03
5.507999999999999829e+01,1.372823968862892964e-02
5.511999999999999744e+01,1.445842323926997512e-02
5.515999999999999659e+01,1.179100284023733639e-02
5.520000000000000284e+01,1.705085431289209488e-02
5.524000000000000199e+01,1.351200737965862347e-02
5.528000000000000114e+01,1.589680058816673666e-02
5.532000000000000028e+01,1.523244783104380634e-02
5.535999999999999943e+01,1.526486961720529591e-02
5.539999999999999858e+01,1.651675258705525770e-02
5.543999999999999773e+01,1.733292265903070908e-02
5.547999999999999687e+01,1.527417589166037842e-02
5.552000000000000313e+01,1.530603479816131617e-02
5.556000000000000227e+01,1.403103671939681142e-02
5.560000000000000142e+01,1.475953001988882310e-02
5.564000000000000057e+01,1.914668891546438337e-02
5.567999999999999972e+01,1.569340886126904117e-02
5.571999999999999886e+01,1.720551096960142370e-02
5.575999999999999801e+01,1.592981113739058013e-02
5.579999999999999716e+01,1.482820001364375945e-02
5.584000000000000341e+01,1.494605081203720029e-02
5.588000000000000256e+01,1.741585117512573985e-02
5.592000000000000171e+01,1.674939215068418918e-02
5.596000000000000085e+01,1.556010667220511859e-02
5.600000000000000000e+01,1.445779580897125528e-02
5.603999999999999915e+01,1.318111634147853956e-02
5.607999999999999829e+01,1.896056593378985661e-02
5.611999999999999744e+01,1.454748773505744157e-02
5.615999999999999659e+01,1.962974273899617539e-02
5.620000000000000284e+01,2.000767910551235276e-02
5.624000000000000199e+01,1.812050091034107802e-02
5.628000000000000114e+01,1.388109379173567068e-02
5.632000000000000028e+01,1.861433357105722608e-02
5.635999999999999943e+01,1.533290668409405429e-02
5.639999999999999858e+01,1.875915167847595072e-02
5.643999999999999773e+01,1.878779487140740112e-02
5.647999999999999687e+01,1.480903532786958555e-02
5.652000000000000313e+01,1.936735087352515691e-02
5.656000000000000227e+01,1.643368666182799462e-02
5.660000000000000142e+01,1.628754536759495150e-02
5.664000000000000057e+01,1.901604148683668644e-02
5.667999999999999972e+01,1.616907548545270037e-02
5.671999999999999886e+01,1.515137388526319531e-02
5.675999999999999801e+01,1.465622032021992802e-02
5.679999999999999716e+01,1.616456014839245600e-02
5.684000000000000341e+01,1.941505015027674558e-02
5.688000000000000256e+01,1.360550121204776378e-02
5.692000000000000171e+01,1.894646090069251193e-02
5.696000000000000085e+01,1.575006835676004760e-02
5.700000000000000000e+01,1.325045310852301754e-02
5.703999999999999915e+01,1.928791382219507619e-02
5.707999999999999829e+01,1.922722651328905713e-02
5.711999999999999744e+01,1.838237141053673113e-02
5.715999999999999659e+01,1.396568685695217041e-02
5.720000000000000284e+01,1.625667552735219137e-02
5.724000000000000199e+01,1.889598418072475916e-02
5.728000000000000114e+01,1.491445857390701069e-02
5.732000000000000028e+01,1.642100438816819843e-02
5.735999999999999943e+01,1.827587038679784684e-02
5.739999999999999858e+01,1.586199190635762674e-02
5.743999999999999773e+01,1.893618504839225669e-02
5.747999999999999687e+01,1.469262883486696300e-02
5.752000000000000313e+01,1.489177123153628476e-02
5.756000000000000227e+01,1.813978144347318244e-02
5.760000000000000142e+01,1.668347536760664274e-02
5.764000000000000057e+01,1.749200738136350367e-02
5.767999999999999972e+01,1.725502925448568065e-02
5.771999999999999886e+01,1.893443163598043308e-02
5.775999999999999801e+01,2.000389615549787517e-02
5.779999999999999716e+01,1.828556215820285880e-02
5.784000000000000341e+01,1.499903171552893419e-02
5.788000000000000256e+01,1.763614577817503373e-02
5.792000000000000171e+01,1.783391924091935060e-02
5.796000000000000085e+01,1.811867060837570390e-02
5.800000000000000000e+01,1.753214123001054989e-02
5.803999999999999915e+01,1.650990331734928165e-02
5.807999999999999829e+01,1.914633509482212281e-02
5.811999999999999744e+01,2.012745646796119600e-02
5.815999999999999659e+01,1.927903864614113200e-02
5.820000000000000284e+01,1.764645484303812781e-02
5.824000000000000199e+01,1.470701855251201756e-02
5.828000000000000114e+01,1.690719757871753451e-02
5.832000000000000028e+01,1.649380781858365494e-02
5.835999999999999943e+01,2.156849122496007007e-02
5.839999999999999858e+01,1.775736709999566759e-02
5.843999999999999773e+01,2.065391828010713915e-02
5.847999999999999687e+01,1.893326907819735047e-02
5.852000000000000313e+01,1.607999671654565532e-02
5.856000000000000227e+01,1.766942471051993410e-02
5.860000000000000142e+01,1.821334410789500480e-02
5.864000000000000057e+01,2.015095898440597347e-02
5.867999999999999972e+01,2.060749325418822359e-02
5.871999999999999886e+01,1.801488726455741443e-02
5.875999999999999801e+01,2.038766853948454499e-02
5.879999999999999716e+01,1.971130968926255306e-02
5.884000000000000341e+01,2.347765166459035366e-02
5.888000000000000256e+01,1.827107248528239691e-02
5.892000000000000171e+01,1.681027883475866638e-02
5.896000000000000085e+01,2.075044492884622199e-02
5.900000000000000000e+01,2.120589908905113133e-02
5.903999999999999915e+01,1.957047224456427703e-02
5.907999999999999829e+01,1.959008490430114505e-02
5.911999999999999744e+01,1.804150326688236730e-02
5.915999999999999659e+01,2.084850856319049595e-02
5.920000000000000284e+01,2.173886198109217099e-02
5.924000000000000199e+01,1.975430487005384178e-02
5.928000000000000114e+01,2.142841946310884704e-02
5.932000000000000028e+01,2.318951424336310879e-02
5.935999999999999943e+01,2.103032554952904976e-02
5.939999999999999858e+01,2.026483361033847366e-02
5.943999999999999773e+01,2.132861063731676318e-02
5.947999999999999687e+01,2.178245268899269699e-02
5.952000000000000313e+01,2.267173297904253107e-02
5.956000000000000227e+01,1.937938684402783565e-02
5.960000000000000142e+01,2.009417066567707397e-02
5.964000000000000057e+01,2.133150735597479433e-02
5.967999999999999972e+01,2.143622283335791870e-02
5.971999999999999886e+01,2.363155103346980743e-02
5.975999999999999801e+01,2.582674573035399421e-02
5.979999999999999716e+01,2.445011540711634207e-02
5.984000000000000341e+01,2.150529199509858616e-02
5.988000000000000256e+01,2.309028558294072553e-02
5.992000000000000171e+01,2.328131507402406847e-02
5.996000000000000085e+01,2.399489797081167872e-02
