2.003999999999999915e+01,8.093153867708469118e-02
2.007999999999999829e+01,6.833580684991272247e-02
2.012000000000000099e+01,2.132535144930078688e-02
2.016000000000000014e+01,1.124562180237837772e-01
2.019999999999999929e+01,5.732161637052660130e-02
2.023999999999999844e+01,5.428930033364883639e-02
2.028000000000000114e+01,7.898154105837730532e-02
2.032000000000000028e+01,2.671751721480155467e-02
2.035999999999999943e+01,9.251902046057726425e-02
2.039999999999999858e+01,1.105219209133086883e-01
2.044000000000000128e+01,3.388274360910675798e-02
2.048000000000000043e+01,6.861715596115176841e-02
2.051999999999999957e+01,7.419474178456154922e-02
2.055999999999999872e+01,7.642720502152378081e-02
2.060000000000000142e+01,4.328890324820439811e-02
2.064000000000000057e+01,5.890688137087934928e-02
2.067999999999999972e+01,7.404769143532856368e-02
2.071999999999999886e+01,1.016171832359488852e-01
2.076000000000000156e+01,4.219247602156003113e-02
2.080000000000000071e+01,5.924771797744167456e-02
2.083999999999999986e+01,6.052994732340756523e-02
2.087999999999999901e+01,4.364918671573354836e-02
2.092000000000000171e+01,8.747454048196692811e-02
2.096000000000000085e+01,6.963938716374334925e-02
2.100000000000000000e+01,9.147857719772538310e-02
2.103999999999999915e+01,8.033692732444436269e-02
2.107999999999999829e+01,8.974982817393339918e-02
2.112000000000000099e+01,1.082454050392084727e-01
2.116000000000000014e+01,6.364646925886781326e-02
2.119999999999999929e+01,3.530011975852411638e-02
2.123999999999999844e+01,9.203757430633127679e-02
2.128000000000000114e+01,6.321475703922987965e-02
2.132000000000000028e+01,4.490857781515382452e-02
2.135999999999999943e+01,7.057865414535091642e-02
2.139999999999999858e+01,7.282774334908176384e-02
2.144000000000000128e+01,7.459958178013641195e-02
2.148000000000000043e+01,8.115210566385229474e-02
2.151999999999999957e+01,2.174211013302505824e-02
2.155999999999999872e+01,6.653566774586391896e-02
2.160000000000000142e+01,9.651211923046924823e-02
2.164000000000000057e+01,5.431210846549362758e-02
2.167999999999999972e+01,5.369834543732315835e-02
2.171999999999999886e+01,4.973933357433416719e-02
2.176000000000000156e+01,1.012284040852882150e-01
2.180000000000000071e+01,8.149698412922559698e-02
2.183999999999999986e+01,6.320024825883080455e-02
2.187999999999999901e+01,3.677830015938585162e-02
2.192000000000000171e+01,6.198046023578581559e-02
2.196000000000000085e+01,8.288135616088135316e-02
2.200000000000000000e+01,9.422304300255192333e-02
2.203999999999999915e+01,1.474643473613481207e-02
2.207999999999999829e+01,6.815299890326401155e-02
2.212000000000000099e+01,7.280478388535568945e-02
2.216000000000000014e+01,6.550736938012154120e-02
2.219999999999999929e+01,7.302844852588322166e-02
2.223999999999999844e+01,1.125758224996339790e-01
2.228000000000000114e+01,6.847479421593938298e-02
2.232000000000000028e+01,4.588417089599151899e-02
2.235999999999999943e+01,8.447749982590098405e-02
2.239999999999999858e+01,5.663021896857520915e-02
2.244000000000000128e+01,1.019167466059796717e-01
2.248000000000000043e+01,7.407073137643627181e-02
2.251999999999999957e+01,1.007167266102540065e-01
2.255999999999999872e+01,7.334995419299124297e-02
2.260000000000000142e+01,6.271361028506769464e-02
2.264000000000000057e+01,8.314752847508019573e-02
2.267999999999999972e+01,6.582048228809024570e-02
2.271999999999999886e+01,4.371409463727980726e-02
2.276000000000000156e+01,5.219996142616289969e-02
2.280000000000000071e+01,6.929032679029754893e-02
2.283999999999999986e+01,7.777738084590528345e-02
2.287999999999999901e+01,4.228951898268830389e-02
2.292000000000000171e+01,4.886576449918732246e-02
2.296000000000000085e+01,4.014676127405448353e-02
2.300000000000000000e+01,5.485006739726812353e-02
2.303999999999999915e+01,7.194391620051918124e-02
2.307999999999999829e+01,2.642103799339909354e-02
2.312000000000000099e+01,4.256002391975255428e-02
2.316000000000000014e+01,4.244775014138160718e-02
2.319999999999999929e+01,5.906583957146822883e-02
2.323999999999999844e+01,5.943266059004603807e-02
2.328000000000000114e+01,4.115823585339152546e-02
2.332000000000000028e+01,2.909828010755990957e-02
2.335999999999999943e+01,1.942883221462853027e-02
2.339999999999999858e+01,3.126967174385685694e-02
2.344000000000000128e+01,2.446924810428512120e-02
2.348000000000000043e+01,3.535514639555811800e-02
2.351999999999999957e+01,4.480757834163325015e-02
2.355999999999999872e+01,4.231065843165898038e-02
2.360000000000000142e+01,9.143766385506119088e-02
2.364000000000000057e+01,4.640023784822713826e-02
2.367999999999999972e+01,3.386694454533337867e-02
2.371999999999999886e+01,6.483165534851222100e-02
2.376000000000000156e+01,1.005768034610019790e-01
2.380000000000000071e+01,6.605723263300190828e-02
2.383999999999999986e+01,5.878383651664447623e-02
2.387999999999999901e+01,6.680674580687981368e-02
2.392000000000000171e+01,6.096828566827192791e-02
2.396000000000000085e+01,5.226232750295375928e-02
2.400000000000000000e+01,4.068886695753277938e-02
2.403999999999999915e+01,8.562099550164483514e-03
2.407999999999999829e+01,3.666310800065986086e-02
2.412000000000000099e+01,1.027318441971676079e-02
2.416000000000000014e+01,6.801075789316797515e-02
2.419999999999999929e+01,4.448969313668402897e-02
2.423999999999999844e+01,6.112061370571131302e-02
2.428000000000000114e+01,6.102215807696884792e-02
2.432000000000000028e+01,5.614418684872121007e-02
2.435999999999999943e+01,4.696469026564360771e-02
2.439999999999999858e+01,3.587363696467472246e-02
2.444000000000000128e+01,8.118636355651050185e-02
2.448000000000000043e+01,4.810838903306390024e-02
2.451999999999999957e+01,1.168486093735121578e-02
2.455999999999999872e+01,1.589127793807903338e-02
2.460000000000000142e+01,1.004011873213579709e-01
2.464000000000000057e+01,4.820503721169808881e-02
2.467999999999999972e+01,6.006055444355080236e-02
2.471999999999999886e+01,6.618052334584532959e-02
2.476000000000000156e+01,2.258943654309046589e-02
2.480000000000000071e+01,3.444610125647871307e-02
2.483999999999999986e+01,8.980064818096045176e-02
2.487999999999999901e+01,4.716667193552082082e-02
2.492000000000000171e+01,6.906233150930767006e-02
2.496000000000000085e+01,5.176279476854259154e-02
2.500000000000000000e+01,3.733158198966827351e-02
2.503999999999999915e+01,5.301438090907051315e-02
2.507999999999999829e+01,5.483568415125853607e-02
2.512000000000000099e+01,2.165946527205249265e-03
2.516000000000000014e+01,4.127151069180418075e-02
2.519999999999999929e+01,5.360971197122302301e-02
2.523999999999999844e+01,4.921843257146096134e-02
2.528000000000000114e+01,1.232185931543192114e-01
2.532000000000000028e+01,8.250037174762224479e-02
2.535999999999999943e+01,1.182616032244958038e-01
2.539999999999999858e+01,8.088997403679763776e-02
2.544000000000000128e+01,5.164456150240604587e-02
2.548000000000000043e+01,4.773316679831510895e-02
2.551999999999999957e+01,1.801036357803937477e-02
2.555999999999999872e+01,5.664108330724672985e-02
2.560000000000000142e+01,4.890661809663394977e-02
2.564000000000000057e+01,5.503428294916300895e-02
2.567999999999999972e+01,5.925025177525330283e-02
2.571999999999999886e+01,4.530270388725881475e-02
2.576000000000000156e+01,5.716713795388677494e-02
2.580000000000000071e+01,4.608810061898271915e-02
2.583999999999999986e+01,5.126114457059101348e-02
2.587999999999999901e+01,3.683667060034721830e-02
2.592000000000000171e+01,8.646372901646104392e-02
2.596000000000000085e+01,6.869380099730912348e-02
2.600000000000000000e+01,8.055978559695722852e-02
2.603999999999999915e+01,1.642487228936239871e-02
2.607999999999999829e+01,6.653090675151705768e-02
2.612000000000000099e+01,2.916416424605352761e-02
2.616000000000000014e+01,4.533304684913646437e-02
2.619999999999999929e+01,4.094838750709763747e-02
2.623999999999999844e+01,1.457619807234642600e-02
2.628000000000000114e+01,1.544991779231913616e-02
2.632000000000000028e+01,6.890325601113701792e-02
2.635999999999999943e+01,3.010384516132088434e-02
2.639999999999999858e+01,3.097818995577593382e-02
2.644000000000000128e+01,6.722433465851326839e-02
2.648000000000000043e+01,4.085338231255065261e-02
2.651999999999999957e+01,5.081021036421861509e-02
2.655999999999999872e+01,2.396164095598245919e-02
2.660000000000000142e+01,3.439683243472495267e-02
2.664000000000000057e+01,8.982606942911624398e-03
2.667999999999999972e+01,5.096579330946979236e-02
2.671999999999999886e+01,4.419369985089750819e-02
2.676000000000000156e+01,5.988751732568115688e-02
2.680000000000000071e+01,7.844946285970998134e-02
2.683999999999999986e+01,2.674635859544885821e-02
2.687999999999999901e+01,7.876823387563693102e-02
2.692000000000000171e+01,5.431112087588952503e-02
2.696000000000000085e+01,3.033214553148749076e-02
2.700000000000000000e+01,3.837894696141406353e-02
2.703999999999999915e+01,2.491612582885279967e-02
2.707999999999999829e+01,4.730302954836609897e-02
2.712000000000000099e+01,5.726219936186637688e-02
2.716000000000000014e+01,6.005157149469105005e-02
2.719999999999999929e+01,4.037531445532637625e-02
2.723999999999999844e+01,5.368079726607021679e-02
2.728000000000000114e+01,4.738860978623861409e-02
2.732000000000000028e+01,2.771267743730082209e-02
2.735999999999999943e+01,4.627641245702476119e-02
2.739999999999999858e+01,2.899064779174241949e-02
2.744000000000000128e+01,3.225874165988477926e-02
2.748000000000000043e+01,9.237219097562764797e-03
2.751999999999999957e+01,7.607876308149350009e-02
2.755999999999999872e+01,0.000000000000000000e+00
2.760000000000000142e+01,5.011188421101344520e-02
2.764000000000000057e+01,1.131684223130949123e-02
2.767999999999999972e+01,4.995698983456656195e-02
2.771999999999999886e+01,6.421947327927164662e-02
2.776000000000000156e+01,6.175220178109358526e-02
2.780000000000000071e+01,2.821533304465133341e-02
2.783999999999999986e+01,3.282414356054875679e-03
2.787999999999999901e+01,2.853897139368022015e-02
2.792000000000000171e+01,6.717941575303043589e-02
2.796000000000000085e+01,8.308996329333070280e-03
2.800000000000000000e+01,4.216955879958096676e-02
2.803999999999999915e+01,8.272207115844920633e-02
2.807999999999999829e+01,6.209129612713219087e-02
2.812000000000000099e+01,4.671847848345218185e-02
2.816000000000000014e+01,5.094345181600624245e-02
2.819999999999999929e+01,2.505477357250763051e-02
2.823999999999999844e+01,2.402181817718798337e-02
2.828000000000000114e+01,4.497661368825753292e-02
2.832000000000000028e+01,7.453530700646793239e-02
2.835999999999999943e+01,4.816862303947728324e-02
2.839999999999999858e+01,5.000360669356110344e-02
2.844000000000000128e+01,7.863069307316981199e-03
2.848000000000000043e+01,3.837768845552869817e-02
2.851999999999999957e+01,4.260257798508155364e-02
2.855999999999999872e+01,4.826142023042779422e-02
2.860000000000000142e+01,7.017204337823093607e-02
2.864000000000000057e+01,2.325140461929812302e-02
2.867999999999999972e+01,5.663381419692117141e-02
2.871999999999999886e+01,7.233037515411808172e-02
2.876000000000000156e+01,5.074330461677829113e-02
2.880000000000000071e+01,6.691775012791792432e-02
2.883999999999999986e+01,8.739408546950391821e-02
2.887999999999999901e+01,6.532883567764806443e-02
2.892000000000000171e+01,4.660947781332235029e-02
2.896000000000000085e+01,7.425552134910042013e-02
2.900000000000000000e+01,7.847975061391214424e-02
2.903999999999999915e+01,2.534454479165803437e-02
2.907999999999999829e+01,9.014835348006068963e-03
2.912000000000000099e+01,3.283658011602795523e-02
2.916000000000000014e+01,2.367660123818868603e-02
2.919999999999999929e+01,3.172432715805736242e-02
2.923999999999999844e+01,3.546999660925825165e-02
2.928000000000000114e+01,3.252363224806806286e-02
2.932000000000000028e+01,5.969081377219911944e-02
2.935999999999999943e+01,7.012806621776254690e-02
2.939999999999999858e+01,4.471560130871447825e-02
2.944000000000000128e+01,4.941666922481136037e-02
2.948000000000000043e+01,5.077164374802058816e-02
2.951999999999999957e+01,3.587466637716026086e-02
2.955999999999999872e+01,5.587115475193122488e-02
2.960000000000000142e+01,4.192988239739560419e-02
2.964000000000000057e+01,3.372439659966326719e-02
2.967999999999999972e+01,1.691485506335371758e-02
2.971999999999999886e+01,5.937648636048804135e-02
2.976000000000000156e+01,3.874266903270327106e-02
2.980000000000000071e+01,3.722846959400986228e-02
2.983999999999999986e+01,4.336201333742434327e-02
2.987999999999999901e+01,2.511765783911334288e-02
2.992000000000000171e+01,5.037063167109797485e-02
2.996000000000000085e+01,3.355989742611998478e-02
3.000000000000000000e+01,5.976848920658740100e-02
3.003999999999999915e+01,7.163705089115277036e-02
3.007999999999999829e+01,6.199565915542953887e-02
3.012000000000000099e+01,5.522203414740688848e-02
3.016000000000000014e+01,7.951785279960395247e-02
3.019999999999999929e+01,6.222793185255163367e-02
3.023999999999999844e+01,7.218348907440458317e-02
3.028000000000000114e+01,3.864131959795889804e-02
3.032000000000000028e+01,1.131285726871711014e-02
3.035999999999999943e+01,3.321761155925342934e-02
3.039999999999999858e+01,2.548646943523763184e-02
3.044000000000000128e+01,4.452278911509995746e-02
3.048000000000000043e+01,5.925691737113931989e-02
3.051999999999999957e+01,4.196516316211854059e-02
3.055999999999999872e+01,6.434671184458959359e-02
3.060000000000000142e+01,4.753245038422185265e-02
3.064000000000000057e+01,8.234134806021907449e-02
3.067999999999999972e+01,4.592878881615160280e-02
3.071999999999999886e+01,4.679954205967617326e-02
3.076000000000000156e+01,5.149398157275984766e-02
3.080000000000000071e+01,5.140820023681755974e-02
3.083999999999999986e+01,1.786251781447910358e-02
3.087999999999999901e+01,3.259400622168912715e-02
3.092000000000000171e+01,3.011740116997302721e-02
3.096000000000000085e+01,6.588007168162876570e-02
3.100000000000000000e+01,3.615718562287848631e-02
3.103999999999999915e+01,4.993150699944504112e-02
3.107999999999999829e+01,2.642194438473281434e-02
3.112000000000000099e+01,6.170540763667466122e-02
3.116000000000000014e+01,4.201917806210037076e-02
3.119999999999999929e+01,6.583013850927474375e-02
3.123999999999999844e+01,5.761513813033093678e-02
3.128000000000000114e+01,4.509785925972192855e-02
3.132000000000000028e+01,4.166214628991187635e-02
3.135999999999999943e+01,5.973585441723255895e-02
3.139999999999999858e+01,7.063930340431377741e-02
3.144000000000000128e+01,3.326495346406241338e-02
3.148000000000000043e+01,3.317383329695294814e-02
3.151999999999999957e+01,4.694420324434490921e-02
3.155999999999999872e+01,7.075210216831562260e-02
3.160000000000000142e+01,6.348999028177199078e-02
3.164000000000000057e+01,4.093168496750946433e-02
3.167999999999999972e+01,7.095241479754968439e-02
3.171999999999999886e+01,1.254376898894380213e-02
3.176000000000000156e+01,2.392195514824307576e-02
3.180000000000000071e+01,3.864571979084051312e-02
3.183999999999999986e+01,6.436297213240461945e-02
3.187999999999999901e+01,2.985251270766558357e-02
3.192000000000000171e+01,4.935504610107564749e-02
3.196000000000000085e+01,6.264324860288938979e-02
3.200000000000000000e+01,7.115109965391375191e-02
3.203999999999999915e+01,6.292872994909923245e-02
3.207999999999999829e+01,7.143575699969444137e-02
3.211999999999999744e+01,8.185434391225211714e-02
3.215999999999999659e+01,8.844855115658441236e-02
3.220000000000000284e+01,8.643842839863649652e-02
3.224000000000000199e+01,8.394987945214313352e-02
3.228000000000000114e+01,2.314555359769081971e-02
3.232000000000000028e+01,5.746171246116756753e-02
3.235999999999999943e+01,3.537406410216625829e-02
3.239999999999999858e+01,6.634336712447611029e-02
3.243999999999999773e+01,3.469492444266161074e-02
3.247999999999999687e+01,8.287112192708656622e-02
3.252000000000000313e+01,3.974988911662565017e-02
3.256000000000000227e+01,6.259144442169707612e-02
3.260000000000000142e+01,4.767095570852340758e-02
3.264000000000000057e+01,6.142966775492714193e-02
3.267999999999999972e+01,3.025640810530691449e-02
3.271999999999999886e+01,5.500803259825883668e-02
3.275999999999999801e+01,6.302935797431383214e-02
3.279999999999999716e+01,5.193040688974847469e-02
3.284000000000000341e+01,6.329670502293816003e-02
3.288000000000000256e+01,4.885079361579528628e-02
3.292000000000000171e+01,3.583836040470628898e-02
3.296000000000000085e+01,7.779479601970407110e-02
3.300000000000000000e+01,1.670721825383357229e-01
3.303999999999999915e+01,9.150256065339997802e-01
3.307999999999999829e+01,1.000000000000000000e+00
3.311999999999999744e+01,2.188476544047699979e-01
3.315999999999999659e+01,7.964152229407540917e-02
3.320000000000000284e+01,6.088949282419731796e-02
3.324000000000000199e+01,4.548288511550151875e-02
3.328000000000000114e+01,5.540944632564525490e-02
3.332000000000000028e+01,6.055551242306013437e-02
3.335999999999999943e+01,5.088319249496171814e-02
3.339999999999999858e+01,6.272007164099629994e-02
3.343999999999999773e+01,5.830457226053455816e-02
3.347999999999999687e+01,4.910856035377546974e-02
3.352000000000000313e+01,9.344737253141477407e-02
3.356000000000000227e+01,8.664018746354201772e-02
3.360000000000000142e+01,5.067475230781433998e-02
3.364000000000000057e+01,1.948867917354682455e-02
3.367999999999999972e+01,1.602570441452930497e-02
3.371999999999999886e+01,7.470143473814309931e-02
3.375999999999999801e+01,6.119938373436709100e-02
3.379999999999999716e+01,5.486665032881427040e-02
3.384000000000000341e+01,7.004306811008118028e-02
3.388000000000000256e+01,4.697930796648927543e-02
3.392000000000000171e+01,5.259460927392706209e-02
3.396000000000000085e+01,3.861151327430716734e-02
3.400000000000000000e+01,8.676709188357370484e-02
3.403999999999999915e+01,5.127298833811479162e-02
3.407999999999999829e+01,4.350193963398481245e-02
3.411999999999999744e+01,4.481215209320622839e-02
3.415999999999999659e+01,5.281364837205552998e-02
3.420000000000000284e+01,6.702842951907438118e-02
3.424000000000000199e+01,5.543085311042857122e-02
3.428000000000000114e+01,7.633625575681425579e-02
3.432000000000000028e+01,5.087552442390091273e-02
3.435999999999999943e+01,4.309993089917937142e-02
3.439999999999999858e+01,5.157548703505892423e-02
3.443999999999999773e+01,4.618852879997097094e-02
3.447999999999999687e+01,1.355520309466716651e-02
3.452000000000000313e+01,6.504824691520177948e-02
3.456000000000000227e+01,7.543307121481365729e-02
3.460000000000000142e+01,7.577932051441989281e-02
3.464000000000000057e+01,7.421289862775544421e-02
3.467999999999999972e+01,5.734995245557188148e-02
3.471999999999999886e+01,6.295205089171442003e-02
3.475999999999999801e+01,6.281750829687941795e-02
3.479999999999999716e+01,6.268225549447044298e-02
3.484000000000000341e+01,8.214406665181339662e-02
3.488000000000000256e+01,4.663578011717414706e-02
3.492000000000000171e+01,6.705213828854113267e-02
3.496000000000000085e+01,7.647389308324092916e-02
3.500000000000000000e+01,8.207095911887568596e-02
3.503999999999999915e+01,8.288734284592093327e-02
3.507999999999999829e+01,7.701106151871919825e-02
3.511999999999999744e+01,5.536021342061892697e-02
3.515999999999999659e+01,5.952032422999561229e-02
3.520000000000000284e+01,6.941561647467267560e-02
3.524000000000000199e+01,9.030402637998741211e-02
3.528000000000000114e+01,9.589584669890127699e-02
3.532000000000000028e+01,9.336099204901673887e-02
3.535999999999999943e+01,9.321533923440018798e-02
3.539999999999999858e+01,5.865329985055468820e-02
3.543999999999999773e+01,1.034375838838664519e-01
3.547999999999999687e+01,6.648400743260197976e-02
3.552000000000000313e+01,7.589511842513597950e-02
3.556000000000000227e+01,4.515389025807733242e-02
3.560000000000000142e+01,4.261354610151389666e-02
3.564000000000000057e+01,5.823619504266133728e-02
3.567999999999999972e+01,8.198394616873520835e-02
3.571999999999999886e+01,7.944118406557053313e-02
3.575999999999999801e+01,6.064579093916724201e-02
3.579999999999999716e+01,7.196323844856386542e-02
3.584000000000000341e+01,8.088988957186014905e-02
3.588000000000000256e+01,9.172769133826051691e-02
3.592000000000000171e+01,4.950726061674935730e-02
3.596000000000000085e+01,7.898518314923709538e-02
3.600000000000000000e+01,7.213467541934914795e-02
3.603999999999999915e+01,9.157302542037808191e-02
3.607999999999999829e+01,6.560103908898760883e-02
3.611999999999999744e+01,5.253405303587355829e-02
3.615999999999999659e+01,8.535369017421791382e-02
3.620000000000000284e+01,1.014426538039442521e-01
3.624000000000000199e+01,6.829730690315242991e-02
3.628000000000000114e+01,6.144079161292469865e-02
3.632000000000000028e+01,7.704914679533871047e-02
3.635999999999999943e+01,5.298307034838406482e-02
3.639999999999999858e+01,7.958353695319819732e-02
3.643999999999999773e+01,5.073574148567180919e-02
3.647999999999999687e+01,7.542244795152777681e-02
3.652000000000000313e+01,8.242245688549625082e-02
3.656000000000000227e+01,7.508172612064915874e-02
3.660000000000000142e+01,7.060805683398090060e-02
3.664000000000000057e+01,1.129769476941984846e-01
3.667999999999999972e+01,6.978389068354635960e-02
3.671999999999999886e+01,1.068930069776362901e-01
3.675999999999999801e+01,6.752206405733199301e-02
3.679999999999999716e+01,7.116970708581467353e-02
3.684000000000000341e+01,8.915625582571479191e-02
3.688000000000000256e+01,6.555633794988352525e-02
3.692000000000000171e+01,9.979282550271814656e-02
3.696000000000000085e+01,6.519714564325865269e-02
3.700000000000000000e+01,9.704176527087393644e-02
3.703999999999999915e+01,8.490992787885814908e-02
3.707999999999999829e+01,8.472699708757557013e-02
3.711999999999999744e+01,1.189587146527498196e-01
3.715999999999999659e+01,1.144719027168458747e-01
3.720000000000000284e+01,9.994623281044931473e-02
3.724000000000000199e+01,1.026273926699466932e-01
3.728000000000000114e+01,1.234713671380784777e-01
3.732000000000000028e+01,1.500502923117290333e-01
3.735999999999999943e+01,1.202248660888879661e-01
3.739999999999999858e+01,1.338959551120184888e-01
3.743999999999999773e+01,1.222323329061823782e-01
3.747999999999999687e+01,1.268195251497550302e-01
3.752000000000000313e+01,1.490915112835431988e-01
3.756000000000000227e+01,1.541546812953153156e-01
3.760000000000000142e+01,1.405750470374802219e-01
3.764000000000000057e+01,1.800517938665902595e-01
3.767999999999999972e+01,1.841559167869886438e-01
3.771999999999999886e+01,2.116807470074374697e-01
3.775999999999999801e+01,2.411165232615616605e-01
3.779999999999999716e+01,2.227518029970741442e-01
3.784000000000000341e+01,3.081108694475983012e-01
3.788000000000000256e+01,3.217697007694119149e-01
3.792000000000000171e+01,2.728101899723825996e-01
3.796000000000000085e+01,3.208825284572604519e-01
3.800000000000000000e+01,3.498340245405439641e-01
3.803999999999999915e+01,3.988602309102770582e-01
3.807999999999999829e+01,4.211176726025706585e-01
3.811999999999999744e+01,4.491099779325406494e-01
3.815999999999999659e+01,4.986109642829830157e-01
3.820000000000000284e+01,5.509788379759199550e-01
3.824000000000000199e+01,5.010547830833745886e-01
3.828000000000000114e+01,4.917591800737768915e-01
3.832000000000000028e+01,4.934563595136243208e-01
3.835999999999999943e+01,4.406610571144425337e-01
3.839999999999999858e+01,4.194122961747726031e-01
3.843999999999999773e+01,4.230181479682939560e-01
3.847999999999999687e+01,3.754774670490740318e-01
3.852000000000000313e+01,3.389295468123386113e-01
3.856000000000000227e+01,3.019025125511047847e-01
3.860000000000000142e+01,3.069378791398805206e-01
3.864000000000000057e+01,2.923743390747219340e-01
3.867999999999999972e+01,2.735077151403581541e-01
3.871999999999999886e+01,2.407781110220712228e-01
3.875999999999999801e+01,2.128273116910545104e-01
3.879999999999999716e+01,1.930012749803798888e-01
3.884000000000000341e+01,2.262314887548869946e-01
3.888000000000000256e+01,1.390059095631190345e-01
3.892000000000000171e+01,1.703218320848307876e-01
3.896000000000000085e+01,1.452332290743666710e-01
3.900000000000000000e+01,1.335273074960133810e-01
3.903999999999999915e+01,1.428519765654395202e-01
3.907999999999999829e+01,1.297097235052202258e-01
3.911999999999999744e+01,1.237362090420738303e-01
3.915999999999999659e+01,1.115475800767517234e-01
3.920000000000000284e+01,9.553380524619324576e-02
3.924000000000000199e+01,9.385867492352560626e-02
3.928000000000000114e+01,7.067258990038477462e-02
3.932000000000000028e+01,7.281901643387519996e-02
3.935999999999999943e+01,7.687621486535640980e-02
3.939999999999999858e+01,5.034054817292837880e-02
3.943999999999999773e+01,5.869727193828121192e-02
3.947999999999999687e+01,8.712854926796793908e-02
3.952000000000000313e+01,7.492906185417670673e-02
3.956000000000000227e+01,6.798628675787976583e-02
3.960000000000000142e+01,8.159604676380668997e-02
3.964000000000000057e+01,1.028524833707751551e-01
3.967999999999999972e+01,7.200626746710629689e-02
3.971999999999999886e+01,4.785073026156230064e-02
3.975999999999999801e+01,5.715356489246346816e-02
3.979999999999999716e+01,6.741113433790967002e-02
3.984000000000000341e+01,7.623346125417738983e-02
3.988000000000000256e+01,5.398487620776425827e-02
3.992000000000000171e+01,3.938293728864800114e-02
3.996000000000000085e+01,3.529560773183407218e-02
4.000000000000000000e+01,3.407496961487008896e-02
4.003999999999999915e+01,7.013662964513674158e-02
4.007999999999999829e+01,3.449781511012697810e-02
4.011999999999999744e+01,3.853126300589529429e-02
4.015999999999999659e+01,5.212330930087297198e-02
4.020000000000000284e+01,2.747448983503845976e-02
4.024000000000000199e+01,4.440989813207080888e-02
4.028000000000000114e+01,5.704204842421375238e-02
4.032000000000000028e+01,4.672914703348964721e-02
4.035999999999999943e+01,5.553471423634021020e-02
4.039999999999999858e+01,4.904313461860024953e-02
4.043999999999999773e+01,5.258811752439122855e-02
4.047999999999999687e+01,3.318803133374666897e-02
4.052000000000000313e+01,6.732200738388170735e-02
4.056000000000000227e+01,6.799502447333843902e-02
4.060000000000000142e+01,4.811293239651487363e-02
4.064000000000000057e+01,1.341166197681444711e-02
4.067999999999999972e+01,3.415641477659010078e-02
4.071999999999999886e+01,1.364418083334896547e-03
4.075999999999999801e+01,5.126412799255043035e-02
4.079999999999999716e+01,2.611732278896759796e-02
4.084000000000000341e+01,4.781262062609926977e-02
4.088000000000000256e+01,3.509093547928326950e-02
4.092000000000000171e+01,3.575172280175686196e-02
4.096000000000000085e+01,6.652478917244851464e-02
4.100000000000000000e+01,4.184909718409913354e-02
4.103999999999999915e+01,2.099597264353727025e-02
4.107999999999999829e+01,4.459495203300570254e-02
4.111999999999999744e+01,2.565101415104703922e-02
4.115999999999999659e+01,2.964941457935117014e-02
4.120000000000000284e+01,3.890434883607315347e-02
4.124000000000000199e+01,5.484979636201994108e-02
4.128000000000000114e+01,4.115816335076093180e-02
4.132000000000000028e+01,4.467291605940101884e-02
4.135999999999999943e+01,3.910434724090162961e-02
4.139999999999999858e+01,4.500622025872149518e-02
4.143999999999999773e+01,4.182476304261769501e-02
4.147999999999999687e+01,3.816387400439164718e-02
4.152000000000000313e+01,1.681574326026455055e-02
4.156000000000000227e+01,6.620936709910864304e-02
4.160000000000000142e+01,5.441823210123472587e-02
4.164000000000000057e+01,3.975767487733845168e-02
4.167999999999999972e+01,2.509565866242568707e-02
4.171999999999999886e+01,3.433190900641885923e-02
4.175999999999999801e+01,2.970484830868866041e-02
4.179999999999999716e+01,1.695040739263862367e-02
4.184000000000000341e+01,5.151595528056672479e-02
4.188000000000000256e+01,4.353850318261726776e-02
4.192000000000000171e+01,4.989940391528759761e-02
4.196000000000000085e+01,7.155464232131776570e-02
4.200000000000000000e+01,8.508247874206763262e-02
4.203999999999999915e+01,7.184111949955933329e-02
4.207999999999999829e+01,6.768015509537313179e-02
4.211999999999999744e+01,4.822185667473543463e-02
4.215999999999999659e+01,5.027180393535920361e-02
4.220000000000000284e+01,4.180435445341055406e-02
4.224000000000000199e+01,2.951142824842529003e-02
4.228000000000000114e+01,3.729275087032626890e-02
4.232000000000000028e+01,5.797839899472691239e-02
4.235999999999999943e+01,7.388256813978197335e-02
4.239999999999999858e+01,4.198574012613325718e-02
4.243999999999999773e+01,3.494308950646491524e-02
4.247999999999999687e+01,3.984875777959537985e-02
4.252000000000000313e+01,5.383477300373457758e-02
4.256000000000000227e+01,5.013343333377780209e-02
4.260000000000000142e+01,5.168847512351520956e-02
4.264000000000000057e+01,2.790823974331173990e-02
4.267999999999999972e+01,5.096990714778594500e-02
4.271999999999999886e+01,2.527455337028669882e-02
4.275999999999999801e+01,4.116315309195142658e-02
4.279999999999999716e+01,7.282399366380823413e-02
4.284000000000000341e+01,3.708601066892986547e-02
4.288000000000000256e+01,3.480605994591223079e-02
4.292000000000000171e+01,2.535459630572813733e-02
4.296000000000000085e+01,3.406532909249926355e-02
4.300000000000000000e+01,4.755440520697715862e-02
4.303999999999999915e+01,5.339396074604606940e-02
4.307999999999999829e+01,5.397396434664531589e-02
4.311999999999999744e+01,6.220026580317281062e-02
4.315999999999999659e+01,5.417313085892162122e-02
4.320000000000000284e+01,7.625803117293018796e-02
4.324000000000000199e+01,6.344769705479064159e-02
4.328000000000000114e+01,6.975551373260181764e-02
4.332000000000000028e+01,5.694190900766828156e-02
4.335999999999999943e+01,6.993837074482939231e-02
4.339999999999999858e+01,4.660559684207487424e-02
4.343999999999999773e+01,5.864277265595681937e-02
4.347999999999999687e+01,4.391059608446482715e-02
4.352000000000000313e+01,7.745421467061501530e-02
4.356000000000000227e+01,5.698278007482812657e-02
4.360000000000000142e+01,1.043849104506173464e-01
4.364000000000000057e+01,7.387224903437057677e-02
4.367999999999999972e+01,8.542143558733582276e-02
4.371999999999999886e+01,6.542129765391151153e-02
4.375999999999999801e+01,9.799888014037327899e-02
4.379999999999999716e+01,1.042850700123904989e-01
4.384000000000000341e+01,1.081795928198857754e-01
4.388000000000000256e+01,9.199664408101419777e-02
4.392000000000000171e+01,1.183535117890682914e-01
4.396000000000000085e+01,1.055131153213193229e-01
4.400000000000000000e+01,1.189607102594577165e-01
4.403999999999999915e+01,9.703498909953933715e-02
4.407999999999999829e+01,1.018752452367902572e-01
4.411999999999999744e+01,1.253555661506915442e-01
4.415999999999999659e+01,1.344943202212767197e-01
4.420000000000000284e+01,1.297694976932199096e-01
4.424000000000000199e+01,1.374707971067752055e-01
4.428000000000000114e+01,1.451703545588269584e-01
4.432000000000000028e+01,1.327923925771984370e-01
4.435999999999999943e+01,1.653441721455138624e-01
4.439999999999999858e+01,1.505727314835861030e-01
4.443999999999999773e+01,1.582652775557022162e-01
4.447999999999999687e+01,1.415783353979730985e-01
4.452000000000000313e+01,1.550032848365642257e-01
4.456000000000000227e+01,1.392687913578630199e-01
4.460000000000000142e+01,1.326144184537810244e-01
4.464000000000000057e+01,1.216563130250695596e-01
4.467999999999999972e+01,1.312501898177841908e-01
4.471999999999999886e+01,1.222004874370964805e-01
4.475999999999999801e+01,1.121930016580672401e-01
4.479999999999999716e+01,1.069636633040998153e-01
4.484000000000000341e+01,1.112924140024651731e-01
4.488000000000000256e+01,8.120374637767220627e-02
4.492000000000000171e+01,9.747874314953236530e-02
4.496000000000000085e+01,9.319815623537228144e-02
4.500000000000000000e+01,7.792187324312607744e-02
4.503999999999999915e+01,8.271953869371045931e-02
4.507999999999999829e+01,8.177943993815349477e-02
4.511999999999999744e+01,8.944141056505172660e-02
4.515999999999999659e+01,8.180571631769886776e-02
4.520000000000000284e+01,6.030633663690111723e-02
4.524000000000000199e+01,5.935887823003990066e-02
4.528000000000000114e+01,5.219563925201042148e-02
4.532000000000000028e+01,6.128236145853659111e-02
4.535999999999999943e+01,5.793936461224863388e-02
4.539999999999999858e+01,5.124854172301388650e-02
4.543999999999999773e+01,5.507173178136275105e-02
4.547999999999999687e+01,7.371088181649983195e-02
4.552000000000000313e+01,4.024674374575201719e-02
4.556000000000000227e+01,4.788825983865425961e-02
4.560000000000000142e+01,4.883596593518534090e-02
4.564000000000000057e+01,5.073777125101365526e-02
4.567999999999999972e+01,5.072570384434935131e-02
4.571999999999999886e+01,6.887553248058470023e-02
4.575999999999999801e+01,5.260784701903519628e-02
4.579999999999999716e+01,3.777223796128089534e-02
4.584000000000000341e+01,5.304837683790727260e-02
4.588000000000000256e+01,5.350476707729053677e-02
4.592000000000000171e+01,2.671354477631510127e-02
4.596000000000000085e+01,4.198392230120120278e-02
4.600000000000000000e+01,5.964234365905467239e-02
4.603999999999999915e+01,4.718517182797505455e-02
4.607999999999999829e+01,6.483972181092349796e-02
4.611999999999999744e+01,4.042880494649750411e-02
4.615999999999999659e+01,2.318586048213323522e-02
4.620000000000000284e+01,5.756438168460382282e-02
4.624000000000000199e+01,2.980164986073921898e-02
4.628000000000000114e+01,5.031441281046138136e-02
4.632000000000000028e+01,4.979344946076549178e-02
4.635999999999999943e+01,4.783653397897738579e-02
4.639999999999999858e+01,5.256957017883201466e-02
4.643999999999999773e+01,3.244491023456184953e-02
4.647999999999999687e+01,6.537566927758085844e-02
4.652000000000000313e+01,4.617501348144509299e-03
4.656000000000000227e+01,3.419832234838391521e-02
4.660000000000000142e+01,2.266961345667622627e-02
4.664000000000000057e+01,1.591885173399331527e-02
4.667999999999999972e+01,6.843741700650082804e-02
4.671999999999999886e+01,5.021077424677458656e-02
4.675999999999999801e+01,3.246011421330029234e-02
4.679999999999999716e+01,6.202890316318265818e-02
4.684000000000000341e+01,5.144412529689784686e-02
4.688000000000000256e+01,5.424117124447853239e-02
4.692000000000000171e+01,2.787851742463257412e-02
4.696000000000000085e+01,2.302358687899487555e-02
4.700000000000000000e+01,1.243068316439471625e-02
4.703999999999999915e+01,3.768533195920757695e-02
4.707999999999999829e+01,3.282427437689264954e-02
4.711999999999999744e+01,5.042691185135020349e-02
4.715999999999999659e+01,3.456787205543181835e-02
4.720000000000000284e+01,3.161262664817582335e-02
4.724000000000000199e+01,3.773721449165982206e-02
4.728000000000000114e+01,4.577171226149723965e-02
4.732000000000000028e+01,4.281026145650607823e-02
4.735999999999999943e+01,6.183448498986836295e-02
4.739999999999999858e+01,3.162318339631442488e-02
4.743999999999999773e+01,2.530952582659496547e-02
4.747999999999999687e+01,4.958543230024601428e-02
4.752000000000000313e+01,2.510379518487068987e-02
4.756000000000000227e+01,6.419334067265601573e-02
4.760000000000000142e+01,2.536766338258679074e-02
4.764000000000000057e+01,5.298112757729173811e-02
4.767999999999999972e+01,4.378689572105918387e-02
4.771999999999999886e+01,4.845239085552425357e-02
4.775999999999999801e+01,4.737983010657677296e-02
4.779999999999999716e+01,4.295918211115607593e-02
4.784000000000000341e+01,5.144225885012412153e-02
4.788000000000000256e+01,1.499170960406702099e-02
4.792000000000000171e+01,1.295463329859773347e-02
4.796000000000000085e+01,3.433714982479922628e-02
4.800000000000000000e+01,4.520163836657260098e-02
4.803999999999999915e+01,3.551020801113357467e-02
4.807999999999999829e+01,1.960269234707872482e-02
4.811999999999999744e+01,4.814651441604329146e-02
4.815999999999999659e+01,2.745472864364138094e-02
4.820000000000000284e+01,6.220814765299941679e-02
4.824000000000000199e+01,5.346188529100238257e-02
4.828000000000000114e+01,3.324157527469975143e-02
4.832000000000000028e+01,2.735892154627944314e-02
4.835999999999999943e+01,4.298383872334372857e-02
4.839999999999999858e+01,4.522271679366100805e-02
4.843999999999999773e+01,4.650341095356279320e-02
4.847999999999999687e+01,5.303984662451882021e-02
4.852000000000000313e+01,4.284426794208748279e-02
4.856000000000000227e+01,2.786653550453406167e-02
4.860000000000000142e+01,6.403201293222277046e-02
4.864000000000000057e+01,4.187993291458014244e-02
4.867999999999999972e+01,2.880752942556158089e-02
4.871999999999999886e+01,6.448834975127744340e-02
4.875999999999999801e+01,4.089561037535303922e-02
4.879999999999999716e+01,3.211846964467189591e-02
4.884000000000000341e+01,6.827058288401857689e-02
4.888000000000000256e+01,3.654522059635526010e-02
4.892000000000000171e+01,6.026498472939400414e-02
4.896000000000000085e+01,6.247274064106917574e-02
4.900000000000000000e+01,2.357070545727071170e-02
4.903999999999999915e+01,6.688148112571025428e-02
4.907999999999999829e+01,3.371085673498617347e-02
4.911999999999999744e+01,3.590956387921914045e-02
4.915999999999999659e+01,6.343971164562492437e-02
4.920000000000000284e+01,4.651408436313238248e-02
4.924000000000000199e+01,3.245414288691261806e-02
4.928000000000000114e+01,4.085766138429141464e-02
4.932000000000000028e+01,6.790067871734657701e-02
4.935999999999999943e+01,3.471408185174718747e-02
4.939999999999999858e+01,1.012908855564773579e-02
4.943999999999999773e+01,6.010894900880451447e-02
4.947999999999999687e+01,5.416113358572721692e-02
4.952000000000000313e+01,5.251295728937680624e-02
4.956000000000000227e+01,4.751650219730042812e-02
4.960000000000000142e+01,4.347371533870253435e-02
4.964000000000000057e+01,4.229657075245645687e-02
4.967999999999999972e+01,4.398506408516979910e-02
4.971999999999999886e+01,4.662721259118549066e-02
4.975999999999999801e+01,5.117900111324381190e-02
4.979999999999999716e+01,3.326270079657180773e-02
4.984000000000000341e+01,5.023765905573261692e-02
4.988000000000000256e+01,4.474451976937880715e-02
4.992000000000000171e+01,3.160111112417345741e-02
4.996000000000000085e+01,5.860688857335382557e-02
5.000000000000000000e+01,4.832672287678809603e-02
5.003999999999999915e+01,2.513833418246535015e-02
5.007999999999999829e+01,6.074090784693731565e-02
5.011999999999999744e+01,4.041573598090161812e-02
5.015999999999999659e+01,4.064194992157292574e-02
5.020000000000000284e+01,3.943179380450974325e-02
5.024000000000000199e+01,3.009333890339186204e-02
5.028000000000000114e+01,5.134414330819687955e-02
5.032000000000000028e+01,4.964880768210792189e-02
5.035999999999999943e+01,5.512098734990929227e-02
5.039999999999999858e+01,5.055287242782224161e-02
5.043999999999999773e+01,2.208261521853228243e-02
5.047999999999999687e+01,5.240327683411607346e-02
5.052000000000000313e+01,6.360173343637560983e-02
5.056000000000000227e+01,5.376600227965361301e-02
5.060000000000000142e+01,6.400361444425926860e-02
5.064000000000000057e+01,5.368502474116550183e-02
5.067999999999999972e+01,6.009380746615097107e-02
5.071999999999999886e+01,3.304052546886297737e-02
5.075999999999999801e+01,3.084051535999703803e-02
5.079999999999999716e+01,4.871382680549816990e-02
5.084000000000000341e+01,5.798077956799670835e-02
5.088000000000000256e+01,3.808760157724982998e-02
5.092000000000000171e+01,3.970171587489256665e-02
5.096000000000000085e+01,5.278523154814073609e-02
5.100000000000000000e+01,8.020611183199985450e-02
5.103999999999999915e+01,3.544733012307872688e-02
5.107999999999999829e+01,5.808330470334315682e-02
5.111999999999999744e+01,4.964714401774415753e-02
5.115999999999999659e+01,6.988816847117666764e-02
5.120000000000000284e+01,6.527097872682353918e-02
5.124000000000000199e+01,5.252538136361299681e-02
5.128000000000000114e+01,4.455722617594283508e-02
5.132000000000000028e+01,3.802054662395685375e-02
5.135999999999999943e+01,1.714151661807539195e-02
5.139999999999999858e+01,7.178311624136941849e-02
5.143999999999999773e+01,8.722663760453638893e-02
5.147999999999999687e+01,4.769825461799650362e-02
5.152000000000000313e+01,5.835677450294220192e-02
5.156000000000000227e+01,5.371693297089918939e-02
5.160000000000000142e+01,5.003054200272943897e-02
5.164000000000000057e+01,4.299564586244399716e-02
5.167999999999999972e+01,3.834817537344645255e-02
5.171999999999999886e+01,5.329593171273126762e-02
5.175999999999999801e+01,1.996367760149241055e-02
5.179999999999999716e+01,4.494420405512163097e-02
5.184000000000000341e+01,5.223636562768594477e-02
5.188000000000000256e+01,5.665799050584818114e-02
5.192000000000000171e+01,4.386923639422750376e-02
5.196000000000000085e+01,2.964392067561964772e-02
5.200000000000000000e+01,5.174361224386968272e-02
5.203999999999999915e+01,4.372705761437051947e-02
5.207999999999999829e+01,5.387170683842580632e-02
5.211999999999999744e+01,7.883159337617944018e-02
5.215999999999999659e+01,4.356156097783107223e-02
5.220000000000000284e+01,6.469228721816439043e-02
5.224000000000000199e+01,5.427276169958918789e-02
5.228000000000000114e+01,4.910856411981796149e-02
5.232000000000000028e+01,3.916180356606636243e-02
5.235999999999999943e+01,4.498624340179301767e-02
5.239999999999999858e+01,4.124816557609232992e-02
5.243999999999999773e+01,7.574702554220133499e-02
5.247999999999999687e+01,6.817972647159072086e-02
5.252000000000000313e+01,4.292398851224930867e-02
5.256000000000000227e+01,5.925113747100552164e-02
5.260000000000000142e+01,4.832994687292080371e-02
5.264000000000000057e+01,2.832420709112229776e-02
5.267999999999999972e+01,6.185120611890244230e-02
5.271999999999999886e+01,4.518611182248317287e-02
5.275999999999999801e+01,6.675792049073694945e-02
5.279999999999999716e+01,6.633930841391864897e-02
5.284000000000000341e+01,3.962831985603920693e-02
5.288000000000000256e+01,5.402218879105428334e-02
5.292000000000000171e+01,5.598551588214674413e-02
5.296000000000000085e+01,5.507818873725026099e-02
5.300000000000000000e+01,5.273418679717174068e-02
5.303999999999999915e+01,3.939361374719324571e-02
5.307999999999999829e+01,7.480578999220922898e-02
5.311999999999999744e+01,6.050382397717109229e-02
5.315999999999999659e+01,4.189719816498480714e-02
5.320000000000000284e+01,5.674748144949524203e-02
5.324000000000000199e+01,5.343125288615064444e-02
5.328000000000000114e+01,4.437636767128268905e-02
5.332000000000000028e+01,5.778450273741048832e-02
5.335999999999999943e+01,8.505175096594860817e-02
5.339999999999999858e+01,2.627723700764941425e-02
5.343999999999999773e+01,5.831895779364983101e-02
5.347999999999999687e+01,5.785430266945364164e-02
5.352000000000000313e+01,5.547492155791176188e-02
5.356000000000000227e+01,4.401089113463763081e-02
5.360000000000000142e+01,5.739982350894584640e-02
5.364000000000000057e+01,5.071022210921279083e-02
5.367999999999999972e+01,3.206799074917342229e-02
5.371999999999999886e+01,3.684472533234139924e-02
5.375999999999999801e+01,6.265044851499293466e-02
5.379999999999999716e+01,7.315756649069775353e-02
5.384000000000000341e+01,5.259225316987604232e-02
5.388000000000000256e+01,6.739575333035044413e-02
5.392000000000000171e+01,5.686274866430954950e-02
5.396000000000000085e+01,6.018879185979742613e-02
5.400000000000000000e+01,8.406580293635004808e-02
5.403999999999999915e+01,6.205252840936041625e-02
5.407999999999999829e+01,2.808658038814330210e-02
5.411999999999999744e+01,6.199305239637775689e-02
5.415999999999999659e+01,5.909112310415322311e-02
5.420000000000000284e+01,5.953233439564629276e-02
5.424000000000000199e+01,6.092670892713356046e-02
5.428000000000000114e+01,2.216670691152132847e-02
5.432000000000000028e+01,4.458717878547194952e-02
5.435999999999999943e+01,5.983489267211331702e-02
5.439999999999999858e+01,3.110426016694869955e-02
5.443999999999999773e+01,6.116411550083906967e-02
5.447999999999999687e+01,7.401331322785165145e-02
5.452000000000000313e+01,4.097217311061684270e-02
5.456000000000000227e+01,6.433153478192921160e-02
5.460000000000000142e+01,8.004011774751333685e-02
5.464000000000000057e+01,6.133022016226469947e-02
5.467999999999999972e+01,2.301967021284626741e-02
5.471999999999999886e+01,3.489567486354495929e-02
5.475999999999999801e+01,6.588858088665941470e-02
5.479999999999999716e+01,5.194710778791403194e-02
5.484000000000000341e+01,6.238046793352962360e-02
5.488000000000000256e+01,5.369114854608108417e-02
5.492000000000000171e+01,5.694879414648557070e-02
5.496000000000000085e+01,5.781356243936203870e-02
5.500000000000000000e+01,4.481357871772737728e-02
5.503999999999999915e+01,3.659062795277508856e-02
5.507999999999999829e+01,5.178649511569824448e-02
5.511999999999999744e+01,3.638778627161368129e-02
5.515999999999999659e+01,7.213157333646555425e-02
5.520000000000000284e+01,6.485291613780190534e-02
5.524000000000000199e+01,4.562145919653952386e-02
5.528000000000000114e+01,4.359486864133049061e-02
5.532000000000000028e+01,6.355308609944539111e-02
5.535999999999999943e+01,7.872840972577983820e-02
5.539999999999999858e+01,5.948517008683137930e-02
5.543999999999999773e+01,6.366070919522960614e-02
5.547999999999999687e+01,7.691518475559354362e-02
5.552000000000000313e+01,3.376333247944866139e-02
5.556000000000000227e+01,5.896173810870582871e-02
5.560000000000000142e+01,5.117554249991848603e-02
5.564000000000000057e+01,6.441813088118561459e-02
5.567999999999999972e+01,7.192180140740300764e-02
5.571999999999999886e+01,4.213890625280277552e-02
5.575999999999999801e+01,7.162434987338429926e-02
5.579999999999999716e+01,5.378533254697200755e-02
5.584000000000000341e+01,3.259735294227283225e-02
5.588000000000000256e+01,6.828772606224754738e-02
5.592000000000000171e+01,5.139568459632291170e-02
5.596000000000000085e+01,4.788447872425537211e-02
5.600000000000000000e+01,5.154017431779084335e-02
5.603999999999999915e+01,6.618672380806764344e-02
5.607999999999999829e+01,7.605030110550611844e-02
5.611999999999999744e+01,4.958325838433850358e-02
5.615999999999999659e+01,6.517670537404503250e-02
5.620000000000000284e+01,5.113144801128961803e-02
5.624000000000000199e+01,5.142298496477895609e-02
5.628000000000000114e+01,4.932150094880074359e-02
5.632000000000000028e+01,6.872672151327756385e-02
5.635999999999999943e+01,7.139907445951396148e-02
5.639999999999999858e+01,5.208061485538834773e-02
5.643999999999999773e+01,6.287274953673482880e-02
5.647999999999999687e+01,3.781221961701260875e-02
5.652000000000000313e+01,4.286227527597813447e-02
5.656000000000000227e+01,7.037499859117871126e-02
5.660000000000000142e+01,5.964507125480297822e-02
5.664000000000000057e+01,5.321400814135869572e-02
5.667999999999999972e+01,6.350966444717769110e-02
5.671999999999999886e+01,5.898439234649220653e-02
5.675999999999999801e+01,5.875797140856209994e-02
5.679999999999999716e+01,6.139641348579621960e-02
5.684000000000000341e+01,8.219554136292396562e-02
5.688000000000000256e+01,6.570797731086321092e-02
5.692000000000000171e+01,6.833707954804421614e-02
5.696000000000000085e+01,6.761709761195928980e-02
5.700000000000000000e+01,7.454190290474121960e-02
5.703999999999999915e+01,3.462010689344007658e-02
5.707999999999999829e+01,2.385284631720468659e-02
5.711999999999999744e+01,6.040391154916206068e-02
5.715999999999999659e+01,6.062424357431885763e-02
5.720000000000000284e+01,5.367150852132642619e-02
5.724000000000000199e+01,4.432564801745593475e-02
5.728000000000000114e+01,5.792037140682890217e-02
5.732000000000000028e+01,5.334813890235173134e-02
5.735999999999999943e+01,4.255881110228975500e-02
5.739999999999999858e+01,5.805601632175894783e-02
5.743999999999999773e+01,5.251828499880396156e-02
5.747999999999999687e+01,5.175732107561253903e-02
5.752000000000000313e+01,3.378536868774320578e-02
5.756000000000000227e+01,6.456567801495234626e-02
5.760000000000000142e+01,5.375726566931820355e-02
5.764000000000000057e+01,5.441752768280747055e-02
5.767999999999999972e+01,5.650857314263577069e-02
5.771999999999999886e+01,4.330058676309064131e-02
5.775999999999999801e+01,3.725931029989583421e-02
5.779999999999999716e+01,6.037249091070895357e-02
5.784000000000000341e+01,5.671475626838118345e-02
5.788000000000000256e+01,5.544377250156455605e-02
5.792000000000000171e+01,6.229547043366250036e-02
5.796000000000000085e+01,3.759629407178032706e-02
5.800000000000000000e+01,5.495740716473528770e-02
5.803999999999999915e+01,5.845343738537899653e-02
5.807999999999999829e+01,4.999635877258446631e-02
5.811999999999999744e+01,3.149814536522468900e-02
5.815999999999999659e+01,6.366410676432691929e-02
5.820000000000000284e+01,5.089531900324035379e-02
5.824000000000000199e+01,5.102912409459423732e-02
5.828000000000000114e+01,3.777581479135046910e-02
5.832000000000000028e+01,5.224292217381818620e-02
5.835999999999999943e+01,5.188892266070507797e-02
5.839999999999999858e+01,6.013554720386747598e-02
5.843999999999999773e+01,6.455493190018969651e-02
5.847999999999999687e+01,5.988913181755032428e-02
5.852000000000000313e+01,5.235207237741894282e-02
5.856000000000000227e+01,4.959166279546439737e-02
5.860000000000000142e+01,4.730594733569786631e-02
5.864000000000000057e+01,5.457681900798670716e-02
5.867999999999999972e+01,2.838475963297235755e-02
5.871999999999999886e+01,4.520890054786991241e-02
5.875999999999999801e+01,3.669600987580708823e-02
5.879999999999999716e+01,4.347562409902673564e-02
5.884000000000000341e+01,6.650372806026949579e-02
5.888000000000000256e+01,6.467278197244188953e-02
5.892000000000000171e+01,6.044852759126750907e-02
5.896000000000000085e+01,5.717692274981848316e-02
5.900000000000000000e+01,3.526018457398457512e-02
5.903999999999999915e+01,4.823370369379863243e-02
5.907999999999999829e+01,5.737991331249865656e-02
5.911999999999999744e+01,4.788097653663766357e-02
5.915999999999999659e+01,1.782491062055792386e-02
5.920000000000000284e+01,4.560282529373990701e-02
5.924000000000000199e+01,4.995563453152154082e-02
5.928000000000000114e+01,5.000311790316225996e-02
5.932000000000000028e+01,6.056310359532519200e-02
5.935999999999999943e+01,6.490577632229789506e-02
5.939999999999999858e+01,4.630132079836798975e-02
5.943999999999999773e+01,5.876312225163458913e-02
5.947999999999999687e+01,4.397583536461769499e-02
5.952000000000000313e+01,6.025479674801326874e-02
5.956000000000000227e+01,6.171252063406460625e-02
5.960000000000000142e+01,4.404705128678328141e-02
5.964000000000000057e+01,3.354808724642319162e-02
5.967999999999999972e+01,4.981340268031030777e-02
5.971999999999999886e+01,5.508141998781522497e-02
5.975999999999999801e+01,4.552817803101564392e-02
5.979999999999999716e+01,6.512917547861851730e-02
5.984000000000000341e+01,3.166933710982885314e-02
5.988000000000000256e+01,3.883559979224858461e-02
5.992000000000000171e+01,7.133213203436407357e-02
5.996000000000000085e+01,3.164803147725890609e-02
