2.003999999999999915e+01,8.970287380805538544e-03
2.007999999999999829e+01,9.487747410429353198e-03
2.012000000000000099e+01,6.971244676519222291e-03
2.016000000000000014e+01,9.085034349658039146e-03
2.019999999999999929e+01,8.856773315799043242e-03
2.023999999999999844e+01,1.049115715097522633e-02
2.028000000000000114e+01,9.570594441729720486e-03
2.032000000000000028e+01,1.024655677033333920e-02
2.035999999999999943e+01,9.804620523722209699e-03
2.039999999999999858e+01,8.244785770708997624e-03
2.044000000000000128e+01,6.950876417925746023e-03
2.048000000000000043e+01,5.124532627750829836e-03
2.051999999999999957e+01,7.822033876413714976e-03
2.055999999999999872e+01,8.550052993728624387e-03
2.060000000000000142e+01,8.053725961180171339e-03
2.064000000000000057e+01,7.184636747777465270e-03
2.067999999999999972e+01,8.603985110447336798e-03
2.071999999999999886e+01,1.060860331760935839e-02
2.076000000000000156e+01,7.716420080561108008e-03
2.080000000000000071e+01,1.376567384630866982e-02
2.083999999999999986e+01,1.353430246765188229e-02
2.087999999999999901e+01,9.098041770132432940e-03
2.092000000000000171e+01,5.459947236217514883e-03
2.096000000000000085e+01,3.099034878580349608e-03
2.100000000000000000e+01,2.813664672467799770e-03
2.103999999999999915e+01,8.276292256289950397e-03
2.107999999999999829e+01,9.587254859074988145e-03
2.112000000000000099e+01,6.959448524684685479e-03
2.116000000000000014e+01,8.429696380036308390e-03
2.119999999999999929e+01,1.069811088068101275e-02
2.123999999999999844e+01,7.005244887621547324e-03
2.128000000000000114e+01,7.037865334405991533e-03
2.132000000000000028e+01,6.271932820052972604e-03
2.135999999999999943e+01,9.284710876931492538e-03
2.139999999999999858e+01,1.080702419138811383e-02
2.144000000000000128e+01,1.089209682599787468e-02
2.148000000000000043e+01,1.241402451273665962e-02
2.151999999999999957e+01,9.784287975377375240e-03
2.155999999999999872e+01,1.018812644064090965e-02
2.160000000000000142e+01,6.759644782005432180e-03
2.164000000000000057e+01,8.493698014109334407e-03
2.167999999999999972e+01,8.311495035381652810e-03
2.171999999999999886e+01,6.053363933348248488e-03
2.176000000000000156e+01,4.114384496124445789e-03
2.180000000000000071e+01,6.592804312218614529e-03
2.183999999999999986e+01,7.208192186494133923e-03
2.187999999999999901e+01,7.983059950730416951e-03
2.192000000000000171e+01,9.289975630075969493e-03
2.196000000000000085e+01,7.190363754934628662e-03
2.200000000000000000e+01,8.283999620642048395e-03
2.203999999999999915e+01,1.028225156423271530e-02
2.207999999999999829e+01,1.004490402254458806e-02
2.212000000000000099e+01,9.807364802406284485e-03
2.216000000000000014e+01,1.361465749856380011e-02
2.219999999999999929e+01,5.286688076095944974e-03
2.223999999999999844e+01,1.908358601508106751e-03
2.228000000000000114e+01,7.311796694497223366e-03
2.232000000000000028e+01,1.159733958409136373e-02
2.235999999999999943e+01,1.146509972584173163e-02
2.239999999999999858e+01,9.576276876675038005e-03
2.244000000000000128e+01,7.580814912034735016e-03
2.248000000000000043e+01,3.030410187668476987e-03
2.251999999999999957e+01,5.398933662075165382e-03
2.255999999999999872e+01,4.041586651610975037e-03
2.260000000000000142e+01,1.295627958456879551e-02
2.264000000000000057e+01,9.097023230693062831e-03
2.267999999999999972e+01,8.910031731341630165e-03
2.271999999999999886e+01,4.411706090984764475e-03
2.276000000000000156e+01,9.653180731677776447e-03
2.280000000000000071e+01,7.709225705827387962e-03
2.283999999999999986e+01,9.384311815989632849e-03
2.287999999999999901e+01,6.375496104061090935e-03
2.292000000000000171e+01,1.337260091724439513e-02
2.296000000000000085e+01,1.355684429547089100e-02
2.300000000000000000e+01,6.236314388643597953e-03
2.303999999999999915e+01,5.834713575153694688e-03
2.307999999999999829e+01,2.878171034127532512e-03
2.312000000000000099e+01,8.117933574358845994e-03
2.316000000000000014e+01,9.312482699335291464e-03
2.319999999999999929e+01,3.587722814706290064e-03
2.323999999999999844e+01,9.199483849747336350e-03
2.328000000000000114e+01,7.519368056472278475e-03
2.332000000000000028e+01,6.264854599224674477e-03
2.335999999999999943e+01,5.595615528104019680e-03
2.339999999999999858e+01,7.534162674889703648e-03
2.344000000000000128e+01,9.525744407804849836e-03
2.348000000000000043e+01,9.281729063883895417e-03
2.351999999999999957e+01,7.015012686988680510e-03
2.355999999999999872e+01,4.748107108898572994e-03
2.360000000000000142e+01,1.110329938791595333e-02
2.364000000000000057e+01,4.631320106653626437e-03
2.367999999999999972e+01,5.983078913689919044e-03
2.371999999999999886e+01,9.410384551510903722e-03
2.376000000000000156e+01,5.545814186767490835e-03
2.380000000000000071e+01,5.619630572114018077e-03
2.383999999999999986e+01,8.301233932305973617e-03
2.387999999999999901e+01,9.119808860124357236e-03
2.392000000000000171e+01,1.089622709378277633e-02
2.396000000000000085e+01,7.562953413193625879e-03
2.400000000000000000e+01,1.056314654606035040e-02
2.403999999999999915e+01,7.761735983395116716e-03
2.407999999999999829e+01,3.735985257566925948e-03
2.412000000000000099e+01,7.693645358263320744e-03
2.416000000000000014e+01,9.043141595602655070e-03
2.419999999999999929e+01,6.826442150676544432e-03
2.423999999999999844e+01,6.844962412386420593e-03
2.428000000000000114e+01,1.090831823746254634e-02
2.432000000000000028e+01,1.177804654304715273e-02
2.435999999999999943e+01,5.622019847068511489e-03
2.439999999999999858e+01,7.396180465540661171e-03
2.444000000000000128e+01,4.273545970566217794e-03
2.448000000000000043e+01,7.537603108561657418e-03
2.451999999999999957e+01,1.420780829765186555e-02
2.455999999999999872e+01,3.101012089261007219e-03
2.460000000000000142e+01,9.025706472734514388e-03
2.464000000000000057e+01,9.681038130488643645e-03
2.467999999999999972e+01,8.579790719646701938e-03
2.471999999999999886e+01,1.067179572891364600e-02
2.476000000000000156e+01,9.516949981865883978e-03
2.480000000000000071e+01,6.499077385135440706e-03
2.483999999999999986e+01,8.058281252771139561e-03
2.487999999999999901e+01,5.785170639144963586e-03
2.492000000000000171e+01,6.971432758502330018e-03
2.496000000000000085e+01,7.731716135009233416e-03
2.500000000000000000e+01,8.970828731437065565e-03
2.503999999999999915e+01,8.240466903533597010e-03
2.507999999999999829e+01,9.106638302184335079e-03
2.512000000000000099e+01,6.832407551358754202e-03
2.516000000000000014e+01,7.804653971343498628e-03
2.519999999999999929e+01,4.997810454329812586e-03
2.523999999999999844e+01,5.863236195849969024e-03
2.528000000000000114e+01,8.804211451848117237e-03
2.532000000000000028e+01,6.475825151941940090e-03
2.535999999999999943e+01,2.923100890877552375e-03
2.539999999999999858e+01,4.692589970228308767e-03
2.544000000000000128e+01,7.419924970299738611e-03
2.548000000000000043e+01,1.009385007842113040e-02
2.551999999999999957e+01,8.403221868660194771e-03
2.555999999999999872e+01,8.681695667541273684e-03
2.560000000000000142e+01,1.007768764368041810e-02
2.564000000000000057e+01,7.109126508375201645e-03
2.567999999999999972e+01,6.162891581912222604e-03
2.571999999999999886e+01,7.505102901915479408e-03
2.576000000000000156e+01,6.718169054928201274e-03
2.580000000000000071e+01,5.558481903918370375e-03
2.583999999999999986e+01,6.367897243239013100e-03
2.587999999999999901e+01,6.538439447351000917e-03
2.592000000000000171e+01,7.720052391697714879e-03
2.596000000000000085e+01,8.848256269846168504e-03
2.600000000000000000e+01,6.516715549822868839e-03
2.603999999999999915e+01,9.613837258741724304e-03
2.607999999999999829e+01,4.886847018606970718e-03
2.612000000000000099e+01,0.000000000000000000e+00
2.616000000000000014e+01,4.693287130231085444e-03
2.619999999999999929e+01,7.842893781795898939e-03
2.623999999999999844e+01,1.242936367419489145e-02
2.628000000000000114e+01,7.435330167448207621e-03
2.632000000000000028e+01,6.166791770939115958e-03
2.635999999999999943e+01,4.685173015071405871e-03
2.639999999999999858e+01,8.791889288746537745e-03
2.644000000000000128e+01,4.648702282583609506e-03
2.648000000000000043e+01,6.626090381211616372e-03
2.651999999999999957e+01,5.569526726330596353e-03
2.655999999999999872e+01,5.949826862784948593e-03
2.660000000000000142e+01,6.117047052756547851e-03
2.664000000000000057e+01,6.922771265254579892e-03
2.667999999999999972e+01,5.013887962067875743e-03
2.671999999999999886e+01,9.332028164072525556e-03
2.676000000000000156e+01,5.506713624264956454e-03
2.680000000000000071e+01,9.505142540142509991e-03
2.683999999999999986e+01,9.139020408955193797e-03
2.687999999999999901e+01,5.206707205949869660e-03
2.692000000000000171e+01,9.417481627641319242e-03
2.696000000000000085e+01,8.465345302271552394e-03
2.700000000000000000e+01,7.566249687356982681e-03
2.703999999999999915e+01,5.229923026366268581e-03
2.707999999999999829e+01,4.809476995135882581e-03
2.712000000000000099e+01,6.358135656240763121e-03
2.716000000000000014e+01,5.671203571273247118e-03
2.719999999999999929e+01,8.709768110421621176e-03
2.723999999999999844e+01,6.478974396672778149e-03
2.728000000000000114e+01,7.175317538230861422e-03
2.732000000000000028e+01,8.616613859654955257e-03
2.735999999999999943e+01,6.651391916299648557e-03
2.739999999999999858e+01,8.411666941123528002e-03
2.744000000000000128e+01,5.541271982260768773e-03
2.748000000000000043e+01,6.875390073062990874e-03
2.751999999999999957e+01,1.448975703907184887e-02
2.755999999999999872e+01,6.988327456662410050e-03
2.760000000000000142e+01,6.725178774805972912e-03
2.764000000000000057e+01,8.963375617472058715e-03
2.767999999999999972e+01,9.711118521302110340e-03
2.771999999999999886e+01,1.061835136173959991e-02
2.776000000000000156e+01,9.715786438392628316e-03
2.780000000000000071e+01,5.885719951065941473e-03
2.783999999999999986e+01,7.005303045390023388e-03
2.787999999999999901e+01,8.603720314145755013e-03
2.792000000000000171e+01,4.134420593385096897e-03
2.796000000000000085e+01,3.497066791705189318e-03
2.800000000000000000e+01,8.181930803262607924e-03
2.803999999999999915e+01,8.023229888274049579e-03
2.807999999999999829e+01,1.084489119860767778e-02
2.812000000000000099e+01,2.223212493497570084e-03
2.816000000000000014e+01,4.938063172013345756e-03
2.819999999999999929e+01,5.310876906060981416e-03
2.823999999999999844e+01,5.789957477518138836e-03
2.828000000000000114e+01,4.618913161042163644e-03
2.832000000000000028e+01,5.097631638707227769e-03
2.835999999999999943e+01,3.873001372302150962e-03
2.839999999999999858e+01,4.670701993999353506e-03
2.844000000000000128e+01,6.426253697365871473e-03
2.848000000000000043e+01,1.105572032665649330e-02
2.851999999999999957e+01,7.701407223178240169e-03
2.855999999999999872e+01,1.025477682769949592e-02
2.860000000000000142e+01,4.238902905692077012e-03
2.864000000000000057e+01,2.001752078818157601e-03
2.867999999999999972e+01,5.565836178857149798e-03
2.871999999999999886e+01,6.468540266418747360e-03
2.876000000000000156e+01,5.721120291798977887e-03
2.880000000000000071e+01,1.082815944429235330e-02
2.883999999999999986e+01,5.503115701453035677e-03
2.887999999999999901e+01,3.477779522762567029e-03
2.892000000000000171e+01,5.656958870992422408e-03
2.896000000000000085e+01,6.239238494866435406e-03
2.900000000000000000e+01,4.319810569238460504e-03
2.903999999999999915e+01,1.107571385300045418e-02
2.907999999999999829e+01,9.102702454698708215e-03
2.912000000000000099e+01,1.090841497728226202e-02
2.916000000000000014e+01,1.047854019442580678e-02
2.919999999999999929e+01,6.535702324647259601e-03
2.923999999999999844e+01,5.732900657044555023e-03
2.928000000000000114e+01,5.621831547365344767e-03
2.932000000000000028e+01,8.491126796200426652e-03
2.935999999999999943e+01,8.326475177224538712e-03
2.939999999999999858e+01,6.298804622020526094e-03
2.944000000000000128e+01,8.422426494538967287e-03
2.948000000000000043e+01,6.128277867865023452e-03
2.951999999999999957e+01,3.408158342982535276e-03
2.955999999999999872e+01,7.127963184038612655e-03
2.960000000000000142e+01,7.334805626299048011e-03
2.964000000000000057e+01,6.796333414215187212e-03
2.967999999999999972e+01,4.820634697690015860e-03
2.971999999999999886e+01,5.133389108895941230e-03
2.976000000000000156e+01,8.586180616842149088e-03
2.980000000000000071e+01,7.035738244712074103e-03
2.983999999999999986e+01,4.580309581014075683e-03
2.987999999999999901e+01,5.531038189305721546e-03
2.992000000000000171e+01,7.599292406621496569e-03
2.996000000000000085e+01,5.249776950496677294e-03
3.000000000000000000e+01,6.519314947848565273e-03
3.003999999999999915e+01,5.180699197302758748e-03
3.007999999999999829e+01,6.024089206277329252e-03
3.012000000000000099e+01,5.323805480225147005e-03
3.016000000000000014e+01,5.102359850925592896e-03
3.019999999999999929e+01,4.561392480757106918e-03
3.023999999999999844e+01,1.019423067753075750e-02
3.028000000000000114e+01,5.714332418800789973e-03
3.032000000000000028e+01,6.875999927015424319e-03
3.035999999999999943e+01,5.376290244071302814e-03
3.039999999999999858e+01,2.332907307788947057e-03
3.044000000000000128e+01,6.581034151519928044e-03
3.048000000000000043e+01,5.187240359842249827e-03
3.051999999999999957e+01,5.656109122050377927e-03
3.055999999999999872e+01,7.615072550621016303e-03
3.060000000000000142e+01,4.038563537745481179e-03
3.064000000000000057e+01,3.548869141726201590e-03
3.067999999999999972e+01,1.035068493859614761e-02
3.071999999999999886e+01,3.580205442353237306e-03
3.076000000000000156e+01,1.227140613461573685e-03
3.080000000000000071e+01,7.975201971814721916e-03
3.083999999999999986e+01,6.366919632196592349e-03
3.087999999999999901e+01,5.716492571819327233e-03
3.092000000000000171e+01,4.107857084053406944e-03
3.096000000000000085e+01,8.247236451759039702e-03
3.100000000000000000e+01,7.276936016243256214e-03
3.103999999999999915e+01,5.561323334825879657e-03
3.107999999999999829e+01,4.484222314138909711e-03
3.112000000000000099e+01,5.003664910716061273e-03
3.116000000000000014e+01,4.032659555157607455e-03
3.119999999999999929e+01,2.901806160333259086e-03
3.123999999999999844e+01,6.135144264849681610e-03
3.128000000000000114e+01,5.589402891890287578e-03
3.132000000000000028e+01,7.065997430356535207e-03
3.135999999999999943e+01,6.147336466791605142e-03
3.139999999999999858e+01,3.472107995155539889e-03
3.144000000000000128e+01,5.640087310784042823e-03
3.148000000000000043e+01,3.975763499237688729e-03
3.151999999999999957e+01,3.269296067934561716e-03
3.155999999999999872e+01,8.789860468153269657e-03
3.160000000000000142e+01,3.984794708636615369e-03
3.164000000000000057e+01,5.353536924504812000e-03
3.167999999999999972e+01,6.402759945572049534e-03
3.171999999999999886e+01,5.535744027782503289e-03
3.176000000000000156e+01,4.562105027866409160e-03
3.180000000000000071e+01,9.442930316012078037e-03
3.183999999999999986e+01,7.457685451846635116e-03
3.187999999999999901e+01,7.707673437533033196e-03
3.192000000000000171e+01,8.117158585154897812e-03
3.196000000000000085e+01,8.313573007188908640e-03
3.200000000000000000e+01,5.050253152948464865e-03
3.203999999999999915e+01,8.386533912317629263e-03
3.207999999999999829e+01,3.366473106907668950e-03
3.211999999999999744e+01,7.607212740846714186e-03
3.215999999999999659e+01,2.107787109812568616e-03
3.220000000000000284e+01,7.146537906047550036e-03
3.224000000000000199e+01,7.554626976113735029e-03
3.228000000000000114e+01,3.278830395061548084e-03
3.232000000000000028e+01,3.473675158816195291e-03
3.235999999999999943e+01,6.808561492133246781e-03
3.239999999999999858e+01,5.938578324630406670e-03
3.243999999999999773e+01,3.737821388283550823e-03
3.247999999999999687e+01,2.122354527347515389e-03
3.252000000000000313e+01,4.445289417658713008e-03
3.256000000000000227e+01,6.129362664473531064e-03
3.260000000000000142e+01,5.950422480072103081e-03
3.264000000000000057e+01,4.600380852176785135e-03
3.267999999999999972e+01,7.029069269492431611e-03
3.271999999999999886e+01,6.636712574308725916e-03
3.275999999999999801e+01,7.308662380084894605e-03
3.279999999999999716e+01,6.011151111183513952e-03
3.284000000000000341e+01,1.307131004835575521e-03
3.288000000000000256e+01,4.799432770031356564e-03
3.292000000000000171e+01,5.630361748077816232e-03
3.296000000000000085e+01,2.226864384329969165e-02
3.300000000000000000e+01,5.545941503718154753e-02
3.303999999999999915e+01,3.931137112083031571e-02
3.307999999999999829e+01,9.324916002501019291e-03
3.311999999999999744e+01,7.174436866873581779e-03
3.315999999999999659e+01,3.480289225980663127e-03
3.320000000000000284e+01,3.192304568527213129e-03
3.324000000000000199e+01,6.097586988276742018e-03
3.328000000000000114e+01,5.915705290092544873e-03
3.332000000000000028e+01,7.117475018819023440e-03
3.335999999999999943e+01,6.882024573867835671e-03
3.339999999999999858e+01,6.912521824444674452e-03
3.343999999999999773e+01,4.760663126297194972e-03
3.347999999999999687e+01,6.334311855851419704e-03
3.352000000000000313e+01,7.535220562224225101e-03
3.356000000000000227e+01,5.223173682253585449e-03
3.360000000000000142e+01,5.412482579890077507e-03
3.364000000000000057e+01,6.878995467413872959e-03
3.367999999999999972e+01,6.908288731761193582e-03
3.371999999999999886e+01,9.172818011342183386e-03
3.375999999999999801e+01,5.316416354291136383e-03
3.379999999999999716e+01,9.283770195138716166e-03
3.384000000000000341e+01,4.628665530152275068e-03
3.388000000000000256e+01,7.744092506927500140e-03
3.392000000000000171e+01,6.814324579050286962e-03
3.396000000000000085e+01,3.968321565824590655e-03
3.400000000000000000e+01,7.455802569216868174e-03
3.403999999999999915e+01,7.802896768353473865e-03
3.407999999999999829e+01,5.435396182145296566e-03
3.411999999999999744e+01,3.333844530092836250e-03
3.415999999999999659e+01,5.277145438130765621e-03
3.420000000000000284e+01,3.654267867065370563e-03
3.424000000000000199e+01,9.163234631928071638e-03
3.428000000000000114e+01,3.122423990970340981e-03
3.432000000000000028e+01,6.502089555344143026e-03
3.435999999999999943e+01,4.878529084283570079e-03
3.439999999999999858e+01,7.619165548762994906e-03
3.443999999999999773e+01,7.964551809785188827e-03
3.447999999999999687e+01,6.500151867547892919e-03
3.452000000000000313e+01,1.211437274916494534e-02
3.456000000000000227e+01,6.498160669223803330e-03
3.460000000000000142e+01,6.576745712942978252e-03
3.464000000000000057e+01,6.335816653997160437e-03
3.467999999999999972e+01,4.231877742092850052e-03
3.471999999999999886e+01,7.982408141573594726e-03
3.475999999999999801e+01,6.410369231172777064e-03
3.479999999999999716e+01,6.807448225135719760e-03
3.484000000000000341e+01,9.865557111184742461e-03
3.488000000000000256e+01,1.329606422635436561e-02
3.492000000000000171e+01,8.476682649967452396e-03
3.496000000000000085e+01,4.934507334285227406e-03
3.500000000000000000e+01,9.003193605831953661e-03
3.503999999999999915e+01,5.886471267505737938e-03
3.507999999999999829e+01,5.856571184239775865e-03
3.511999999999999744e+01,4.815245905150930886e-03
3.515999999999999659e+01,6.701071037460777820e-03
3.520000000000000284e+01,2.465967710393931513e-03
3.524000000000000199e+01,6.480414308579338610e-03
3.528000000000000114e+01,8.099612148373101089e-03
3.532000000000000028e+01,8.813833123931818017e-03
3.535999999999999943e+01,3.992589846749551065e-03
3.539999999999999858e+01,7.793464726406082801e-03
3.543999999999999773e+01,5.313739578274967457e-03
3.547999999999999687e+01,2.940293722642743027e-03
3.552000000000000313e+01,7.485798429894241837e-03
3.556000000000000227e+01,7.400647122426804586e-03
3.560000000000000142e+01,8.273359214092721944e-03
3.564000000000000057e+01,8.666886942123024073e-03
3.567999999999999972e+01,1.060374213829710054e-02
3.571999999999999886e+01,7.111581688568592401e-03
3.575999999999999801e+01,7.451380576387295167e-03
3.579999999999999716e+01,7.791011319681527374e-03
3.584000000000000341e+01,7.491786062116550030e-03
3.588000000000000256e+01,8.576216635471718003e-03
3.592000000000000171e+01,7.425071532724504368e-03
3.596000000000000085e+01,1.053167806168602179e-02
3.600000000000000000e+01,9.326973295441411474e-03
3.603999999999999915e+01,8.015652810023643493e-03
3.607999999999999829e+01,1.133465211908852265e-02
3.611999999999999744e+01,7.415020682459682114e-03
3.615999999999999659e+01,6.209645402496632993e-03
3.620000000000000284e+01,8.250766285634807129e-03
3.624000000000000199e+01,8.961119937130576293e-03
3.628000000000000114e+01,9.032618344706273145e-03
3.632000000000000028e+01,9.742637427469308387e-03
3.635999999999999943e+01,7.950961622257668449e-03
3.639999999999999858e+01,1.100250213707899827e-02
3.643999999999999773e+01,1.043464403254299420e-02
3.647999999999999687e+01,1.082465084101864178e-02
3.652000000000000313e+01,1.089514678102379043e-02
3.656000000000000227e+01,8.091380220781515045e-03
3.660000000000000142e+01,7.895422586619590608e-03
3.664000000000000057e+01,1.222333772279280903e-02
3.667999999999999972e+01,1.319797462129603319e-02
3.671999999999999886e+01,1.193703721994982155e-02
3.675999999999999801e+01,7.908285649943998935e-03
3.679999999999999716e+01,1.276777461403109763e-02
3.684000000000000341e+01,1.241114583401890271e-02
3.688000000000000256e+01,1.088342290465353288e-02
3.692000000000000171e+01,1.446503715869694451e-02
3.696000000000000085e+01,1.538528557566857385e-02
3.700000000000000000e+01,1.268613633665997137e-02
3.703999999999999915e+01,1.616080436274374907e-02
3.707999999999999829e+01,1.926273848997184235e-02
3.711999999999999744e+01,1.730822733607601319e-02
3.715999999999999659e+01,1.982436585331748963e-02
3.720000000000000284e+01,1.590023538924098881e-02
3.724000000000000199e+01,1.538227485868145887e-02
3.728000000000000114e+01,2.103813200609020925e-02
3.732000000000000028e+01,2.137142424762687731e-02
3.735999999999999943e+01,2.569635056050353916e-02
3.739999999999999858e+01,2.507128006146939689e-02
3.743999999999999773e+01,2.721369191486805797e-02
3.747999999999999687e+01,3.020752241407000105e-02
3.752000000000000313e+01,3.091255599591319000e-02
3.756000000000000227e+01,3.353348823643061138e-02
3.760000000000000142e+01,3.663327137285327106e-02
3.764000000000000057e+01,4.021190547399385723e-02
3.767999999999999972e+01,4.847408611588528704e-02
3.771999999999999886e+01,5.529905408467774425e-02
3.775999999999999801e+01,5.999489753027418409e-02
3.779999999999999716e+01,7.932717455660628914e-02
3.784000000000000341e+01,9.035634392094291090e-02
3.788000000000000256e+01,1.091560518083060094e-01
3.792000000000000171e+01,1.405164577261136527e-01
3.796000000000000085e+01,1.945501205580122128e-01
3.800000000000000000e+01,2.654556250527255745e-01
3.803999999999999915e+01,3.810691200167400372e-01
3.807999999999999829e+01,5.595399873918066591e-01
3.811999999999999744e+01,7.781948059040058041e-01
3.815999999999999659e+01,9.613490564921842729e-01
3.820000000000000284e+01,1.000000000000000000e+00
3.824000000000000199e+01,9.212918733150300410e-01
3.828000000000000114e+01,7.879225411580553784e-01
3.832000000000000028e+01,6.039902511175847533e-01
3.835999999999999943e+01,4.282010683822284891e-01
3.839999999999999858e+01,3.062211796688374954e-01
3.843999999999999773e+01,2.160158516286395380e-01
3.847999999999999687e+01,1.707846347834932055e-01
3.852000000000000313e+01,1.282676781549589584e-01
3.856000000000000227e+01,9.767273273272424061e-02
3.860000000000000142e+01,8.698339764994411638e-02
3.864000000000000057e+01,7.294078770131375011e-02
3.867999999999999972e+01,6.251724613850481727e-02
3.871999999999999886e+01,6.108839640032046742e-02
3.875999999999999801e+01,4.986616875748766525e-02
3.879999999999999716e+01,4.157109778800455874e-02
3.884000000000000341e+01,4.163203092443660408e-02
3.888000000000000256e+01,3.237860230651867094e-02
3.892000000000000171e+01,3.174729790095261878e-02
3.896000000000000085e+01,3.324479053755261676e-02
3.900000000000000000e+01,2.596016156386338897e-02
3.903999999999999915e+01,2.234782558907170633e-02
3.907999999999999829e+01,2.347226255723588659e-02
3.911999999999999744e+01,2.124342548530159386e-02
3.915999999999999659e+01,2.274010561246508216e-02
3.920000000000000284e+01,1.934001601804920603e-02
3.924000000000000199e+01,1.886708385392217927e-02
3.928000000000000114e+01,1.711661368167629454e-02
3.932000000000000028e+01,1.297090170111629866e-02
3.935999999999999943e+01,1.393453110153665062e-02
3.939999999999999858e+01,1.585603043829198269e-02
3.943999999999999773e+01,1.346622439772896321e-02
3.947999999999999687e+01,1.299232031884730437e-02
3.952000000000000313e+01,1.475366223303332773e-02
3.956000000000000227e+01,1.268271492019949591e-02
3.960000000000000142e+01,1.337925367568147499e-02
3.964000000000000057e+01,1.290470302988303355e-02
3.967999999999999972e+01,1.482507063368971104e-02
3.971999999999999886e+01,1.317926925453853648e-02
3.975999999999999801e+01,1.424773022519150618e-02
3.979999999999999716e+01,1.196291832556103420e-02
3.984000000000000341e+01,1.388264073870389831e-02
3.988000000000000256e+01,1.021368268117276920e-02
3.992000000000000171e+01,7.609043442065601369e-03
3.996000000000000085e+01,9.262162715932003784e-03
4.000000000000000000e+01,1.123446503317571468e-02
4.003999999999999915e+01,9.480926936675902403e-03
4.007999999999999829e+01,8.738483940088383889e-03
4.011999999999999744e+01,1.369084756330664170e-02
4.015999999999999659e+01,1.151103537843323546e-02
4.020000000000000284e+01,9.490734599713545119e-03
4.024000000000000199e+01,7.949289258533907832e-03
4.028000000000000114e+01,1.077205096835357270e-02
4.032000000000000028e+01,9.602852777306845888e-03
4.035999999999999943e+01,8.752838248951287300e-03
4.039999999999999858e+01,8.754247389722337458e-03
4.043999999999999773e+01,1.099090410625197349e-02
4.047999999999999687e+01,1.003396110360006872e-02
4.052000000000000313e+01,7.639810244734586246e-03
4.056000000000000227e+01,1.014210685617978475e-02
4.060000000000000142e+01,8.173428104586582393e-03
4.064000000000000057e+01,9.078685197962640605e-03
4.067999999999999972e+01,5.779087034736997593e-03
4.071999999999999886e+01,8.121072529744588486e-03
4.075999999999999801e+01,7.163010799734603230e-03
4.079999999999999716e+01,8.174077295985640590e-03
4.084000000000000341e+01,5.991544692368973475e-03
4.088000000000000256e+01,6.416828377786022372e-03
4.092000000000000171e+01,7.587088639369544800e-03
4.096000000000000085e+01,5.297630038711875940e-03
4.100000000000000000e+01,7.372379727681221788e-03
4.103999999999999915e+01,9.021178336484745805e-03
4.107999999999999829e+01,8.806978102353521520e-03
4.111999999999999744e+01,9.018410825878325071e-03
4.115999999999999659e+01,6.941052893995400784e-03
4.120000000000000284e+01,6.140911957590316703e-03
4.124000000000000199e+01,9.917875698737255163e-03
4.128000000000000114e+01,9.809329178045920333e-03
4.132000000000000028e+01,1.172313577194235117e-02
4.135999999999999943e+01,9.006296328953833363e-03
4.139999999999999858e+01,7.566674225506428431e-03
4.143999999999999773e+01,7.138149561601331294e-03
4.147999999999999687e+01,4.367610799027412012e-03
4.152000000000000313e+01,5.748385245595795390e-03
4.156000000000000227e+01,8.033809350619867604e-03
4.160000000000000142e+01,6.859515694405133278e-03
4.164000000000000057e+01,7.228559759418805471e-03
4.167999999999999972e+01,8.928045639424371863e-03
4.171999999999999886e+01,9.669341671456350290e-03
4.175999999999999801e+01,5.034856442057944817e-03
4.179999999999999716e+01,7.479004560415895148e-03
4.184000000000000341e+01,8.539171087139942745e-03
4.188000000000000256e+01,6.405740303125142220e-03
4.192000000000000171e+01,7.891383478756279490e-03
4.196000000000000085e+01,8.684957188101137190e-03
4.200000000000000000e+01,1.043640530660311025e-02
4.203999999999999915e+01,8.781360414567687678e-03
4.207999999999999829e+01,5.050422424864584210e-03
4.211999999999999744e+01,9.462598208664678434e-03
4.215999999999999659e+01,7.913529487775761498e-03
4.220000000000000284e+01,7.375559513869495848e-03
4.224000000000000199e+01,1.162759191288057804e-02
4.228000000000000114e+01,1.082318790759938774e-02
4.232000000000000028e+01,6.612291373469346770e-03
4.235999999999999943e+01,7.084949431170055496e-03
4.239999999999999858e+01,7.557450698433265494e-03
4.243999999999999773e+01,8.721707162981318096e-03
4.247999999999999687e+01,6.852039330267087856e-03
4.252000000000000313e+01,1.062395825235526621e-02
4.256000000000000227e+01,6.092777632340473128e-03
4.260000000000000142e+01,8.587007742572752220e-03
4.264000000000000057e+01,7.940865843268765656e-03
4.267999999999999972e+01,7.986479554125510555e-03
4.271999999999999886e+01,1.111892866325835116e-02
4.275999999999999801e+01,7.651446374744509844e-03
4.279999999999999716e+01,5.886975784312719825e-03
4.284000000000000341e+01,8.060924698791490511e-03
4.288000000000000256e+01,9.223461767101197306e-03
4.292000000000000171e+01,1.011972297072642919e-02
4.296000000000000085e+01,1.122872432234038424e-02
4.300000000000000000e+01,9.144130289969654504e-03
4.303999999999999915e+01,1.275434790072805039e-02
4.307999999999999829e+01,8.859826770382137756e-03
4.311999999999999744e+01,1.071334141455293140e-02
4.315999999999999659e+01,1.112965274414494388e-02
4.320000000000000284e+01,7.820129096192670465e-03
4.324000000000000199e+01,1.217470520463721090e-02
4.328000000000000114e+01,1.099383068524516054e-02
4.332000000000000028e+01,8.428977120287190622e-03
4.335999999999999943e+01,9.323528010943672381e-03
4.339999999999999858e+01,8.674428012372696270e-03
4.343999999999999773e+01,1.249598848852482603e-02
4.347999999999999687e+01,1.573193010079588713e-02
4.352000000000000313e+01,1.369854146691763287e-02
4.356000000000000227e+01,1.789220530835577277e-02
4.360000000000000142e+01,1.431501133444264620e-02
4.364000000000000057e+01,1.967929365534758918e-02
4.367999999999999972e+01,1.764528625486254040e-02
4.371999999999999886e+01,1.933680389811718442e-02
4.375999999999999801e+01,1.943144727769591587e-02
4.379999999999999716e+01,2.367740778873791627e-02
4.384000000000000341e+01,2.579425423610644252e-02
4.388000000000000256e+01,2.860285835801519225e-02
4.392000000000000171e+01,2.864366062872839708e-02
4.396000000000000085e+01,3.517763603169588721e-02
4.400000000000000000e+01,3.782610585208519283e-02
4.403999999999999915e+01,4.702097293611638001e-02
4.407999999999999829e+01,5.190454262509643091e-02
4.411999999999999744e+01,5.865079826426276843e-02
4.415999999999999659e+01,6.763230787876402250e-02
4.420000000000000284e+01,8.097803128790413696e-02
4.424000000000000199e+01,9.544130494099653528e-02
4.428000000000000114e+01,1.125124007321977732e-01
4.432000000000000028e+01,1.271882633166659393e-01
4.435999999999999943e+01,1.468670278961709819e-01
4.439999999999999858e+01,1.581894721051926300e-01
4.443999999999999773e+01,1.613152679938303080e-01
4.447999999999999687e+01,1.561911916371344355e-01
4.452000000000000313e+01,1.504814982056863759e-01
4.456000000000000227e+01,1.274738537269420047e-01
4.460000000000000142e+01,1.100013515937332265e-01
4.464000000000000057e+01,9.167711262339874045e-02
4.467999999999999972e+01,7.973960003642165117e-02
4.471999999999999886e+01,6.540685493083797653e-02
4.475999999999999801e+01,5.623668448970446654e-02
4.479999999999999716e+01,4.488417764263882143e-02
4.484000000000000341e+01,3.800233367873898094e-02
4.488000000000000256e+01,3.319607294751487914e-02
4.492000000000000171e+01,3.041217152401688370e-02
4.496000000000000085e+01,2.608462189498471709e-02
4.500000000000000000e+01,2.255527985477145253e-02
4.503999999999999915e+01,1.993059345971431862e-02
4.507999999999999829e+01,1.906214667882247596e-02
4.511999999999999744e+01,1.569202007992596265e-02
4.515999999999999659e+01,1.477004515172970420e-02
4.520000000000000284e+01,1.501884611275158821e-02
4.524000000000000199e+01,1.734323092576304723e-02
4.528000000000000114e+01,1.333380864513608946e-02
4.532000000000000028e+01,1.129352236659944206e-02
4.535999999999999943e+01,9.732100333621833757e-03
4.539999999999999858e+01,1.274779013471169335e-02
4.543999999999999773e+01,1.081349695523306509e-02
4.547999999999999687e+01,9.890308165374263327e-03
4.552000000000000313e+01,9.712103865136522893e-03
4.556000000000000227e+01,1.160948396738954204e-02
4.560000000000000142e+01,9.674585233332613082e-03
4.564000000000000057e+01,8.910463145432945611e-03
4.567999999999999972e+01,7.826845947159277034e-03
4.571999999999999886e+01,8.978485407913813429e-03
4.575999999999999801e+01,9.491285933345951220e-03
4.579999999999999716e+01,7.502407810588449660e-03
4.584000000000000341e+01,8.813266428542751788e-03
4.588000000000000256e+01,1.044331820533368933e-02
4.592000000000000171e+01,5.207324051865763574e-03
4.596000000000000085e+01,7.795106315341589209e-03
4.600000000000000000e+01,7.668314299641897092e-03
4.603999999999999915e+01,5.891427948824974614e-03
4.607999999999999829e+01,8.319086645554555834e-03
4.611999999999999744e+01,6.329003469153514361e-03
4.615999999999999659e+01,7.958001546539137869e-03
4.620000000000000284e+01,4.903137919608044348e-03
4.624000000000000199e+01,5.573803671613489219e-03
4.628000000000000114e+01,3.849239588705640619e-03
4.632000000000000028e+01,3.774469265630621580e-03
4.635999999999999943e+01,7.159108559118684476e-03
4.639999999999999858e+01,7.829174261557698619e-03
4.643999999999999773e+01,6.529802354432274678e-03
4.647999999999999687e+01,5.230280675759517266e-03
4.652000000000000313e+01,4.888641182073157759e-03
4.656000000000000227e+01,4.333956079415613762e-03
4.660000000000000142e+01,6.440321099762819253e-03
4.664000000000000057e+01,6.311128885797406829e-03
4.667999999999999972e+01,6.394683219397032624e-03
4.671999999999999886e+01,4.508800425120756614e-03
4.675999999999999801e+01,7.412927779591112730e-03
4.679999999999999716e+01,5.100954524311623189e-03
4.684000000000000341e+01,6.195167717584716162e-03
4.688000000000000256e+01,7.874695758822066946e-03
4.692000000000000171e+01,4.923587328132636616e-03
4.696000000000000085e+01,5.218993571146874483e-03
4.700000000000000000e+01,5.780370905989625288e-03
4.703999999999999915e+01,4.052967700883965650e-03
4.707999999999999829e+01,5.944647332255902430e-03
4.711999999999999744e+01,4.057274735960820534e-03
4.715999999999999659e+01,4.511609263473857073e-03
4.720000000000000284e+01,7.520546958656794054e-03
4.724000000000000199e+01,5.632728763602717556e-03
4.728000000000000114e+01,6.565633842655235058e-03
4.732000000000000028e+01,5.316206850972470845e-03
4.735999999999999943e+01,4.279527576669741457e-03
4.739999999999999858e+01,7.979635558353752670e-03
4.743999999999999773e+01,7.741019881585072329e-03
4.747999999999999687e+01,5.213624421807118783e-03
4.752000000000000313e+01,9.711648156231988960e-03
4.756000000000000227e+01,6.385596893995484739e-03
4.760000000000000142e+01,5.720597475079937204e-03
4.764000000000000057e+01,5.694138205331242091e-03
4.767999999999999972e+01,5.986875190988350144e-03
4.771999999999999886e+01,6.173016550765671705e-03
4.775999999999999801e+01,8.062178141393436595e-03
4.779999999999999716e+01,6.491632636742909052e-03
4.784000000000000341e+01,2.259740012060963872e-03
4.788000000000000256e+01,6.064523082379025959e-03
4.792000000000000171e+01,6.090255301283045535e-03
4.796000000000000085e+01,9.628623883018364374e-03
4.800000000000000000e+01,5.396142218793732737e-03
4.803999999999999915e+01,5.900448911558203897e-03
4.807999999999999829e+01,5.499800691322475829e-03
4.811999999999999744e+01,7.547309233922991530e-03
4.815999999999999659e+01,6.401231269370444635e-03
4.820000000000000284e+01,7.437190236468031561e-03
4.824000000000000199e+01,5.545682802849284145e-03
4.828000000000000114e+01,4.133044638112915586e-03
4.832000000000000028e+01,7.244299337005047183e-03
4.835999999999999943e+01,7.161967872807363696e-03
4.839999999999999858e+01,4.950530189578175068e-03
4.843999999999999773e+01,6.411401676218921736e-03
4.847999999999999687e+01,6.435079000363117321e-03
4.852000000000000313e+01,3.478066411717235535e-03
4.856000000000000227e+01,5.470739049674004130e-03
4.860000000000000142e+01,8.314849463350315606e-03
4.864000000000000057e+01,4.931606551175269325e-03
4.867999999999999972e+01,5.593241178082001934e-03
4.871999999999999886e+01,5.243474005466349300e-03
4.875999999999999801e+01,4.201649064714659855e-03
4.879999999999999716e+01,5.980550012950200216e-03
4.884000000000000341e+01,3.341713767315220539e-03
4.888000000000000256e+01,4.854203392349844097e-03
4.892000000000000171e+01,5.408515555687608799e-03
4.896000000000000085e+01,4.365962400993751366e-03
4.900000000000000000e+01,4.121623716383656863e-03
4.903999999999999915e+01,4.036811645522575022e-03
4.907999999999999829e+01,6.506605976525850141e-03
4.911999999999999744e+01,6.102159414453341667e-03
4.915999999999999659e+01,4.739535803559862329e-03
4.920000000000000284e+01,7.208894651263465445e-03
4.924000000000000199e+01,3.823469161641410673e-03
4.928000000000000114e+01,7.037673943880436850e-03
4.932000000000000028e+01,6.313158301861270492e-03
4.935999999999999943e+01,5.907841805379132789e-03
4.939999999999999858e+01,5.502380560672999639e-03
4.943999999999999773e+01,5.841910549227477371e-03
4.947999999999999687e+01,6.128071933420963478e-03
4.952000000000000313e+01,6.254416794541549363e-03
4.956000000000000227e+01,6.540289163975583457e-03
4.960000000000000142e+01,3.313233540938190572e-03
4.964000000000000057e+01,5.568104940067818663e-03
4.967999999999999972e+01,5.587424334646092644e-03
4.971999999999999886e+01,5.979167487837547777e-03
4.975999999999999801e+01,6.796558462217093879e-03
4.979999999999999716e+01,7.241237420163138851e-03
4.984000000000000341e+01,9.814732137315627242e-03
4.988000000000000256e+01,4.298035880128945815e-03
4.992000000000000171e+01,3.997147157986389969e-03
4.996000000000000085e+01,5.239610470103100992e-03
5.000000000000000000e+01,4.938434247079342455e-03
5.003999999999999915e+01,6.180610195940156905e-03
5.007999999999999829e+01,6.198490709859494179e-03
5.011999999999999744e+01,9.516115327444014949e-03
5.015999999999999659e+01,6.340269265246395967e-03
5.020000000000000284e+01,4.175535712561100586e-03
5.024000000000000199e+01,6.428250338986896649e-03
5.028000000000000114e+01,8.148581793444109253e-03
5.032000000000000028e+01,7.793034325639230757e-03
5.035999999999999943e+01,5.308384010622614092e-03
5.039999999999999858e+01,6.602494224820257447e-03
5.043999999999999773e+01,8.162581448734176903e-03
5.047999999999999687e+01,8.604821913357674559e-03
5.052000000000000313e+01,7.982439681265676712e-03
5.056000000000000227e+01,4.858386989689203982e-03
5.060000000000000142e+01,5.619543158914799136e-03
5.064000000000000057e+01,4.198372968854925669e-03
5.067999999999999972e+01,4.906019983067100125e-03
5.071999999999999886e+01,6.997348357692024026e-03
5.075999999999999801e+01,6.001542685510607815e-03
5.079999999999999716e+01,5.271714642359286683e-03
5.084000000000000341e+01,6.670704078730633514e-03
5.088000000000000256e+01,5.514799612356386868e-03
5.092000000000000171e+01,5.476456881646724582e-03
5.096000000000000085e+01,6.502451961652011732e-03
5.100000000000000000e+01,5.825137245546181675e-03
5.103999999999999915e+01,6.744400415403417615e-03
5.107999999999999829e+01,4.949098045291484838e-03
5.111999999999999744e+01,3.792341811046812030e-03
5.115999999999999659e+01,4.178939675440885952e-03
5.120000000000000284e+01,6.428235669860011235e-03
5.124000000000000199e+01,7.559686212429034789e-03
5.128000000000000114e+01,6.934603446813223694e-03
5.132000000000000028e+01,6.415827223505083179e-03
5.135999999999999943e+01,4.459861792211107338e-03
5.139999999999999858e+01,5.218178735201947464e-03
5.143999999999999773e+01,6.561818370798976237e-03
5.147999999999999687e+01,6.840836961184073618e-03
5.152000000000000313e+01,6.214906556456734066e-03
5.156000000000000227e+01,5.375939144339271156e-03
5.160000000000000142e+01,8.635078288389254342e-03
5.164000000000000057e+01,6.092661217634724562e-03
5.167999999999999972e+01,4.242015239886836979e-03
5.171999999999999886e+01,6.542700018506610558e-03
5.175999999999999801e+01,5.224012533013419092e-03
5.179999999999999716e+01,8.163103929037740514e-03
5.184000000000000341e+01,4.981295491747130162e-03
5.188000000000000256e+01,6.057266073599319733e-03
5.192000000000000171e+01,7.825008161334034290e-03
5.196000000000000085e+01,5.760482353969901062e-03
5.200000000000000000e+01,6.889255896940889128e-03
5.203999999999999915e+01,7.113081339363857593e-03
5.207999999999999829e+01,5.899718812428639096e-03
5.211999999999999744e+01,4.366872253955841540e-03
5.215999999999999659e+01,7.091805196314367177e-03
5.220000000000000284e+01,6.463486600310481937e-03
5.224000000000000199e+01,5.835028141780665249e-03
5.228000000000000114e+01,8.133749546463056243e-03
5.232000000000000028e+01,6.813099650409568629e-03
5.235999999999999943e+01,8.951869692816435617e-03
5.239999999999999858e+01,7.364820584588169759e-03
5.243999999999999773e+01,5.192168026512064723e-03
5.247999999999999687e+01,6.532159607096535425e-03
5.252000000000000313e+01,6.434963975261973751e-03
5.256000000000000227e+01,4.687685224771870850e-03
5.260000000000000142e+01,6.559498806904841967e-03
5.264000000000000057e+01,6.302213464147062884e-03
5.267999999999999972e+01,5.565773071941904244e-03
5.271999999999999886e+01,5.308209586823103496e-03
5.275999999999999801e+01,6.221434996512987224e-03
5.279999999999999716e+01,4.739441787751297840e-03
5.284000000000000341e+01,4.428237611423566956e-03
5.288000000000000256e+01,6.086182442776709271e-03
5.292000000000000171e+01,3.858637036772304216e-03
5.296000000000000085e+01,4.930840620131111095e-03
5.300000000000000000e+01,8.185089392657858912e-03
5.303999999999999915e+01,5.265216402486866398e-03
5.307999999999999829e+01,6.443452514551262396e-03
5.311999999999999744e+01,7.036086346582861792e-03
5.315999999999999659e+01,6.776997998582909820e-03
5.320000000000000284e+01,6.677443420847392445e-03
5.324000000000000199e+01,6.790646675951255914e-03
5.328000000000000114e+01,4.561856132117605468e-03
5.332000000000000028e+01,5.473143215674170121e-03
5.335999999999999943e+01,8.140684157614236360e-03
5.339999999999999858e+01,6.017927793989729171e-03
5.343999999999999773e+01,6.183665363996871354e-03
5.347999999999999687e+01,6.189593223383305087e-03
5.352000000000000313e+01,6.887295341158185778e-03
5.356000000000000227e+01,8.542891754945613342e-03
5.360000000000000142e+01,5.301743219707126878e-03
5.364000000000000057e+01,6.211928743843410719e-03
5.367999999999999972e+01,4.673673169644083220e-03
5.371999999999999886e+01,6.115823929674624876e-03
5.375999999999999801e+01,7.983629392158089755e-03
5.379999999999999716e+01,5.007914243441183473e-03
5.384000000000000341e+01,6.236757491924583424e-03
5.388000000000000256e+01,4.218800079701359208e-03
5.392000000000000171e+01,6.405401202303733464e-03
5.396000000000000085e+01,8.166073471225774802e-03
5.400000000000000000e+01,6.520273304592307147e-03
5.403999999999999915e+01,5.619472284674007813e-03
5.407999999999999829e+01,2.270230854546577415e-03
5.411999999999999744e+01,6.957675854192351371e-03
5.415999999999999659e+01,6.641928880664715699e-03
5.420000000000000284e+01,7.443749285438824859e-03
5.424000000000000199e+01,5.797129555254416054e-03
5.428000000000000114e+01,5.800317278619863438e-03
5.432000000000000028e+01,6.229160667815332626e-03
5.435999999999999943e+01,6.285299885219241926e-03
5.439999999999999858e+01,6.660646918553887567e-03
5.443999999999999773e+01,4.960122117329224430e-03
5.447999999999999687e+01,4.802957126193101167e-03
5.452000000000000313e+01,5.763360063859932457e-03
5.456000000000000227e+01,6.776851123896684113e-03
5.460000000000000142e+01,4.224198799280804058e-03
5.464000000000000057e+01,4.226162441487441544e-03
5.467999999999999972e+01,7.634326019525756318e-03
5.471999999999999886e+01,6.411866544103727791e-03
5.475999999999999801e+01,6.413423397885101296e-03
5.479999999999999716e+01,5.563260892953480682e-03
5.484000000000000341e+01,7.906402624055003728e-03
5.488000000000000256e+01,7.641433339913540450e-03
5.492000000000000171e+01,6.737640878546150361e-03
5.496000000000000085e+01,5.354697290052351337e-03
5.500000000000000000e+01,8.229538088087949912e-03
5.503999999999999915e+01,7.804356227221468344e-03
5.507999999999999829e+01,5.835543570420863649e-03
5.511999999999999744e+01,7.060035631341938026e-03
5.515999999999999659e+01,8.550512821871820296e-03
5.520000000000000284e+01,6.581295647463351189e-03
5.524000000000000199e+01,7.752159403452217601e-03
5.528000000000000114e+01,7.698736670143922420e-03
5.532000000000000028e+01,7.006491447736204123e-03
5.535999999999999943e+01,8.922087424540939282e-03
5.539999999999999858e+01,7.697333343044279394e-03
5.543999999999999773e+01,7.004684841656367601e-03
5.547999999999999687e+01,6.205454064042443228e-03
5.552000000000000313e+01,7.641496804555608126e-03
5.556000000000000227e+01,6.948445643501336560e-03
5.560000000000000142e+01,7.000396312855523481e-03
5.564000000000000057e+01,7.424780925094847696e-03
5.567999999999999972e+01,5.507175867155562204e-03
5.571999999999999886e+01,6.623204577840817453e-03
5.575999999999999801e+01,7.206859543890357586e-03
5.579999999999999716e+01,9.387100584608124715e-03
5.584000000000000341e+01,6.191584585947765111e-03
5.588000000000000256e+01,5.923254643637983381e-03
5.592000000000000171e+01,8.635334820253732710e-03
5.596000000000000085e+01,7.089362032937221621e-03
5.600000000000000000e+01,5.862599814057393131e-03
5.603999999999999915e+01,7.829143895590163008e-03
5.607999999999999829e+01,6.655339088636570005e-03
5.611999999999999744e+01,6.492656975467264550e-03
5.615999999999999659e+01,8.405577500140580874e-03
5.620000000000000284e+01,6.858805380191769496e-03
5.624000000000000199e+01,6.961844085612594289e-03
5.628000000000000114e+01,7.490541828683217399e-03
5.632000000000000028e+01,6.582058896536391139e-03
5.635999999999999943e+01,8.121746902631406251e-03
5.639999999999999858e+01,6.361414589454366525e-03
5.643999999999999773e+01,8.805645146299775211e-03
5.647999999999999687e+01,7.311167596351065244e-03
5.652000000000000313e+01,8.264861259894768983e-03
5.656000000000000227e+01,9.218422492678547686e-03
5.660000000000000142e+01,5.594587899958750575e-03
5.664000000000000057e+01,7.399468377857141600e-03
5.667999999999999972e+01,5.425313074311493775e-03
5.671999999999999886e+01,8.347633041386495062e-03
5.675999999999999801e+01,5.734525570487454017e-03
5.679999999999999716e+01,6.580845676252712780e-03
5.684000000000000341e+01,8.065721758093983076e-03
5.688000000000000256e+01,6.782818284037837875e-03
5.692000000000000171e+01,7.681966742789172325e-03
5.696000000000000085e+01,8.527759465144770998e-03
5.700000000000000000e+01,8.947628563581343925e-03
5.703999999999999915e+01,6.812614356420191794e-03
5.707999999999999829e+01,7.019324338603969912e-03
5.711999999999999744e+01,5.522735053011866568e-03
5.715999999999999659e+01,6.367870094390003059e-03
5.720000000000000284e+01,7.319321793535139668e-03
5.724000000000000199e+01,7.046490375202883391e-03
5.728000000000000114e+01,6.188063833353268928e-03
5.732000000000000028e+01,7.139121956101641443e-03
5.735999999999999943e+01,7.344913111671101842e-03
5.739999999999999858e+01,6.166749443726922408e-03
5.743999999999999773e+01,8.288342472162587432e-03
5.747999999999999687e+01,7.588932983128262449e-03
5.752000000000000313e+01,8.645784508992913897e-03
5.756000000000000227e+01,8.159009505307634330e-03
5.760000000000000142e+01,7.618879866229014142e-03
5.764000000000000057e+01,7.185067641856544320e-03
5.767999999999999972e+01,8.081724757535374906e-03
5.771999999999999886e+01,9.776611344455307315e-03
5.775999999999999801e+01,6.894104101438474665e-03
5.779999999999999716e+01,8.056490086787297319e-03
5.784000000000000341e+01,6.078530211406261811e-03
5.788000000000000256e+01,6.655191876672262967e-03
5.792000000000000171e+01,9.201011220012855416e-03
5.796000000000000085e+01,5.306597295800016129e-03
5.800000000000000000e+01,9.076308519851271350e-03
5.803999999999999915e+01,9.758898220998213011e-03
5.807999999999999829e+01,5.385078698849037407e-03
5.811999999999999744e+01,8.675384531401906379e-03
5.815999999999999659e+01,7.601193197193606942e-03
5.820000000000000284e+01,8.709055997797570531e-03
5.824000000000000199e+01,9.390997307674571470e-03
5.828000000000000114e+01,9.966361158210959928e-03
5.832000000000000028e+01,8.252963873965818431e-03
5.835999999999999943e+01,8.455501030972086690e-03
5.839999999999999858e+01,7.061189109731786859e-03
5.843999999999999773e+01,9.498875542810380351e-03
5.847999999999999687e+01,7.784961334678137598e-03
5.852000000000000313e+01,7.135397942851387162e-03
5.856000000000000227e+01,7.869529398716481813e-03
5.860000000000000142e+01,8.177739983168483967e-03
5.864000000000000057e+01,6.622981933438361335e-03
5.867999999999999972e+01,7.835742775657369638e-03
5.871999999999999886e+01,1.021930276576970761e-02
5.875999999999999801e+01,6.907766777253532449e-03
5.879999999999999716e+01,9.024949575238565974e-03
5.884000000000000341e+01,9.119492101817894270e-03
5.888000000000000256e+01,5.701122600460282498e-03
5.892000000000000171e+01,8.350160017189184672e-03
5.896000000000000085e+01,8.657213406376648018e-03
5.900000000000000000e+01,6.462610855548472054e-03
5.903999999999999915e+01,8.100007691228898118e-03
5.907999999999999829e+01,8.779244543625166000e-03
5.911999999999999744e+01,9.724473338082443089e-03
5.915999999999999659e+01,7.901926498963233667e-03
5.920000000000000284e+01,6.611491708341715734e-03
5.924000000000000199e+01,8.407920735620123126e-03
5.928000000000000114e+01,6.372094460514335888e-03
5.932000000000000028e+01,7.263460159646913106e-03
5.935999999999999943e+01,7.569234313519843105e-03
5.939999999999999858e+01,7.715208941044052020e-03
5.943999999999999773e+01,8.020728073605857059e-03
5.947999999999999687e+01,8.539015773780203600e-03
5.952000000000000313e+01,9.695864060478016910e-03
5.956000000000000227e+01,7.499473470340720788e-03
5.960000000000000142e+01,9.454427192662828022e-03
5.964000000000000057e+01,8.056142175775148420e-03
5.967999999999999972e+01,8.946361827292248492e-03
5.971999999999999886e+01,9.144542565338977316e-03
5.975999999999999801e+01,8.437788483678859003e-03
5.979999999999999716e+01,8.529267451517592510e-03
5.984000000000000341e+01,8.407723656184421662e-03
5.988000000000000256e+01,9.456981004311387773e-03
5.992000000000000171e+01,6.886880126105675987e-03
5.996000000000000085e+01,7.563316285714379722e-03
