2.003999999999999915e+01,2.442089090845696309e-01
2.007999999999999829e+01,1.774404834306227419e-01
2.012000000000000099e+01,1.904348999344459836e-01
2.016000000000000014e+01,2.138412400062335850e-01
2.019999999999999929e+01,1.930456504180081967e-01
2.023999999999999844e+01,1.679248734964277900e-01
2.028000000000000114e+01,1.445470898559332584e-01
2.032000000000000028e+01,8.303551163026016979e-02
2.035999999999999943e+01,1.827739415319181715e-01
2.039999999999999858e+01,2.521805070885351774e-01
2.044000000000000128e+01,7.279986369751620390e-02
2.048000000000000043e+01,1.118836491758653517e-01
2.051999999999999957e+01,1.501096327232401273e-01
2.055999999999999872e+01,1.736076124058497649e-01
2.060000000000000142e+01,1.867119964426378342e-01
2.064000000000000057e+01,1.781532414930631081e-01
2.067999999999999972e+01,1.964769518612775046e-01
2.071999999999999886e+01,1.177183784993448556e-01
2.076000000000000156e+01,2.340181472789377715e-01
2.080000000000000071e+01,1.353390638948907265e-01
2.083999999999999986e+01,5.574037896968031536e-02
2.087999999999999901e+01,1.755343988653336185e-01
2.092000000000000171e+01,1.921778177975844160e-01
2.096000000000000085e+01,1.637519882458260967e-01
2.100000000000000000e+01,1.110621561862347728e-01
2.103999999999999915e+01,2.438947587043118481e-01
2.107999999999999829e+01,1.496119429016441738e-01
2.112000000000000099e+01,9.781529350842430026e-02
2.116000000000000014e+01,1.509205939927909801e-01
2.119999999999999929e+01,7.920297918140886684e-02
2.123999999999999844e+01,1.453289442224774686e-01
2.128000000000000114e+01,1.629179338301210422e-01
2.132000000000000028e+01,9.035938774257624984e-02
2.135999999999999943e+01,1.677807599665632199e-01
2.139999999999999858e+01,1.238466478367866719e-01
2.144000000000000128e+01,1.145965441782962196e-01
2.148000000000000043e+01,1.313615642437983566e-01
2.151999999999999957e+01,1.585377337040057011e-01
2.155999999999999872e+01,1.354429959466722511e-01
2.160000000000000142e+01,1.210255896489397243e-01
2.164000000000000057e+01,9.187956470177972845e-02
2.167999999999999972e+01,1.173557941553229622e-01
2.171999999999999886e+01,1.020967734873569482e-01
2.176000000000000156e+01,1.492619374602321136e-01
2.180000000000000071e+01,2.016367742527011286e-01
2.183999999999999986e+01,1.257207866415860076e-01
2.187999999999999901e+01,1.391023874921303027e-01
2.192000000000000171e+01,1.654955686326029518e-01
2.196000000000000085e+01,8.266935341056751152e-02
2.200000000000000000e+01,2.226411327941576201e-01
2.203999999999999915e+01,1.875101192466968603e-01
2.207999999999999829e+01,1.246469436157436328e-01
2.212000000000000099e+01,9.473361697393857528e-02
2.216000000000000014e+01,1.220429300884564583e-01
2.219999999999999929e+01,1.536948021267938447e-01
2.223999999999999844e+01,1.576144210024296166e-01
2.228000000000000114e+01,9.652565744234689604e-02
2.232000000000000028e+01,1.108640527121095287e-01
2.235999999999999943e+01,8.706749213677343613e-02
2.239999999999999858e+01,1.352305000606817686e-01
2.244000000000000128e+01,1.400571894133910977e-01
2.248000000000000043e+01,1.943043605842613430e-01
2.251999999999999957e+01,1.488675647906317068e-01
2.255999999999999872e+01,1.459161156935649128e-01
2.260000000000000142e+01,1.247679566808153895e-01
2.264000000000000057e+01,8.022174779608669259e-02
2.267999999999999972e+01,1.405766235364550309e-01
2.271999999999999886e+01,1.905366968314763099e-01
2.276000000000000156e+01,7.926374650299153335e-02
2.280000000000000071e+01,1.569797736718670511e-01
2.283999999999999986e+01,5.005680433840318383e-02
2.287999999999999901e+01,1.633306700816655743e-01
2.292000000000000171e+01,1.049687867492221649e-01
2.296000000000000085e+01,1.211668117320379157e-01
2.300000000000000000e+01,1.339049644628835800e-01
2.303999999999999915e+01,8.943627791150776662e-02
2.307999999999999829e+01,1.039234798064991583e-01
2.312000000000000099e+01,1.071487653603710177e-01
2.316000000000000014e+01,1.077809737808123336e-01
2.319999999999999929e+01,5.987511381731501492e-02
2.323999999999999844e+01,7.179193741872400003e-02
2.328000000000000114e+01,6.291100542456320999e-02
2.332000000000000028e+01,7.917726354573764724e-02
2.335999999999999943e+01,8.851589969572307148e-02
2.339999999999999858e+01,5.798521559025040378e-02
2.344000000000000128e+01,6.213740146594601277e-02
2.348000000000000043e+01,8.536848299352214897e-02
2.351999999999999957e+01,5.659376918774302462e-02
2.355999999999999872e+01,8.590778439295368440e-02
2.360000000000000142e+01,9.269008944867726529e-02
2.364000000000000057e+01,7.260623059636486798e-02
2.367999999999999972e+01,9.500708088614991109e-02
2.371999999999999886e+01,1.815647724919587647e-01
2.376000000000000156e+01,9.128491966971644112e-02
2.380000000000000071e+01,1.180419206865933185e-01
2.383999999999999986e+01,1.361372540991562519e-01
2.387999999999999901e+01,7.015179793342364578e-02
2.392000000000000171e+01,1.272713306816469492e-01
2.396000000000000085e+01,1.289172728376930532e-01
2.400000000000000000e+01,1.253690011012119632e-01
2.403999999999999915e+01,1.703734369628508716e-01
2.407999999999999829e+01,5.154343920425769054e-02
2.412000000000000099e+01,8.355867483858313294e-02
2.416000000000000014e+01,6.010020603171911668e-02
2.419999999999999929e+01,1.398081842019636700e-01
2.423999999999999844e+01,1.050941509444698191e-01
2.428000000000000114e+01,1.189326886662821769e-01
2.432000000000000028e+01,1.284437165348973342e-01
2.435999999999999943e+01,1.587669115152395005e-01
2.439999999999999858e+01,8.507063836162467863e-02
2.444000000000000128e+01,7.206325187659445852e-02
2.448000000000000043e+01,5.386137826140836860e-02
2.451999999999999957e+01,1.500952900356513631e-01
2.455999999999999872e+01,9.723156031376996300e-02
2.460000000000000142e+01,6.084543009605562075e-02
2.464000000000000057e+01,5.394016957894388897e-02
2.467999999999999972e+01,1.120580901003480345e-01
2.471999999999999886e+01,9.216294626185167482e-02
2.476000000000000156e+01,6.880692830008154626e-02
2.480000000000000071e+01,9.400318531018587997e-02
2.483999999999999986e+01,1.604660991625664335e-02
2.487999999999999901e+01,6.032759076327722653e-02
2.492000000000000171e+01,6.040395511360323322e-02
2.496000000000000085e+01,6.135376248038981045e-02
2.500000000000000000e+01,1.108557309700393678e-01
2.503999999999999915e+01,9.188020111661038269e-02
2.507999999999999829e+01,7.551181836573209183e-02
2.512000000000000099e+01,5.048103937686487797e-02
2.516000000000000014e+01,2.892424814869324137e-02
2.519999999999999929e+01,1.044651312683269051e-01
2.523999999999999844e+01,1.011257678228799639e-01
2.528000000000000114e+01,1.281337959589464726e-01
2.532000000000000028e+01,1.603494931719975369e-01
2.535999999999999943e+01,1.813019989349974881e-01
2.539999999999999858e+01,1.753873389186577925e-01
2.544000000000000128e+01,7.585525312648966345e-02
2.548000000000000043e+01,9.271103660070360505e-03
2.551999999999999957e+01,1.698173760454150527e-01
2.555999999999999872e+01,1.223171762426320253e-01
2.560000000000000142e+01,8.435891711696372197e-02
2.564000000000000057e+01,1.400305370802772120e-01
2.567999999999999972e+01,1.358931563611666393e-01
2.571999999999999886e+01,4.854082485060060015e-02
2.576000000000000156e+01,9.469506921607238892e-02
2.580000000000000071e+01,1.105143753131844764e-01
2.583999999999999986e+01,1.176708753158636211e-01
2.587999999999999901e+01,1.109632292678130183e-01
2.592000000000000171e+01,7.565434903749400364e-02
2.596000000000000085e+01,1.209718727715005937e-01
2.600000000000000000e+01,1.844999714620897679e-01
2.603999999999999915e+01,1.344719202815840564e-01
2.607999999999999829e+01,7.838158498107887506e-02
2.612000000000000099e+01,7.170965944671996162e-02
2.616000000000000014e+01,1.708037237624009663e-01
2.619999999999999929e+01,1.502733437435327390e-01
2.623999999999999844e+01,6.733298567175992344e-02
2.628000000000000114e+01,1.369704038190753814e-01
2.632000000000000028e+01,7.484690255394635394e-02
2.635999999999999943e+01,1.436289770245723352e-01
2.639999999999999858e+01,5.551038680842230316e-02
2.644000000000000128e+01,9.482978199742594927e-02
2.648000000000000043e+01,7.433972110795773747e-02
2.651999999999999957e+01,8.853077692487530681e-02
2.655999999999999872e+01,8.712352720892441171e-02
2.660000000000000142e+01,8.832255934303545608e-02
2.664000000000000057e+01,1.094655745123894047e-01
2.667999999999999972e+01,1.713578186931643266e-01
2.671999999999999886e+01,1.318299326846925079e-01
2.676000000000000156e+01,1.902657191994832631e-01
2.680000000000000071e+01,1.039370200979626291e-01
2.683999999999999986e+01,1.927248195797770514e-01
2.687999999999999901e+01,1.714235358156431521e-01
2.692000000000000171e+01,1.605303275228950055e-01
2.696000000000000085e+01,1.227690654285150118e-01
2.700000000000000000e+01,1.084191262321539950e-01
2.703999999999999915e+01,1.053440803955201649e-01
2.707999999999999829e+01,9.793995358932650053e-02
2.712000000000000099e+01,1.165477399649918061e-01
2.716000000000000014e+01,9.701783811927451595e-02
2.719999999999999929e+01,8.442830756532904157e-02
2.723999999999999844e+01,1.481300213532879828e-01
2.728000000000000114e+01,1.320834411184970969e-01
2.732000000000000028e+01,1.559188393805398531e-01
2.735999999999999943e+01,8.700260511398962004e-02
2.739999999999999858e+01,1.333874030088476881e-01
2.744000000000000128e+01,8.095231945126345197e-02
2.748000000000000043e+01,8.226930247529093410e-02
2.751999999999999957e+01,5.498414052495512183e-02
2.755999999999999872e+01,9.878872357160969897e-02
2.760000000000000142e+01,6.197794423934586266e-02
2.764000000000000057e+01,7.285093702523945391e-02
2.767999999999999972e+01,2.218001824309222617e-02
2.771999999999999886e+01,8.420929087068616814e-02
2.776000000000000156e+01,2.051917878777706761e-01
2.780000000000000071e+01,1.111914480058012605e-01
2.783999999999999986e+01,1.376932070139094411e-01
2.787999999999999901e+01,1.329919575261852560e-01
2.792000000000000171e+01,1.378313280670384333e-01
2.796000000000000085e+01,1.452762062846731927e-01
2.800000000000000000e+01,1.475245936295443705e-01
2.803999999999999915e+01,1.792519152418172723e-01
2.807999999999999829e+01,1.060907877005656114e-01
2.812000000000000099e+01,1.187561517408074335e-01
2.816000000000000014e+01,1.184229580493339207e-01
2.819999999999999929e+01,9.208789089010419038e-02
2.823999999999999844e+01,1.255726610704858137e-01
2.828000000000000114e+01,1.087826987065295264e-01
2.832000000000000028e+01,8.766294950914035877e-02
2.835999999999999943e+01,1.150934487712156201e-01
2.839999999999999858e+01,1.737364497679693698e-01
2.844000000000000128e+01,1.196888209032349465e-01
2.848000000000000043e+01,1.670714302512576743e-01
2.851999999999999957e+01,1.147666571644254674e-01
2.855999999999999872e+01,1.222815392587858624e-01
2.860000000000000142e+01,1.046612063851154045e-01
2.864000000000000057e+01,1.043830594633223807e-01
2.867999999999999972e+01,1.015086931753736016e-01
2.871999999999999886e+01,1.454505980231692586e-01
2.876000000000000156e+01,1.226466593317645376e-01
2.880000000000000071e+01,1.206523603040247916e-01
2.883999999999999986e+01,9.785714067818664097e-02
2.887999999999999901e+01,7.246558783718008712e-02
2.892000000000000171e+01,1.086272576446428717e-01
2.896000000000000085e+01,1.343905729175901564e-01
2.900000000000000000e+01,1.454210798974741869e-01
2.903999999999999915e+01,1.295823490460035754e-01
2.907999999999999829e+01,1.042120815483596336e-01
2.912000000000000099e+01,6.064139265724807770e-02
2.916000000000000014e+01,8.209133458678766204e-02
2.919999999999999929e+01,1.564254777986889000e-01
2.923999999999999844e+01,1.310718287192923770e-01
2.928000000000000114e+01,9.011832576046589771e-02
2.932000000000000028e+01,1.271886555093195981e-01
2.935999999999999943e+01,1.720650131783671710e-01
2.939999999999999858e+01,1.683997731441099766e-01
2.944000000000000128e+01,9.452075769301514219e-02
2.948000000000000043e+01,1.246720698028657842e-01
2.951999999999999957e+01,1.695644083356945553e-01
2.955999999999999872e+01,1.702494890747540679e-01
2.960000000000000142e+01,1.588020785669631563e-01
2.964000000000000057e+01,1.092155681100415859e-01
2.967999999999999972e+01,1.350520268393315126e-01
2.971999999999999886e+01,1.071453885204026457e-01
2.976000000000000156e+01,1.260544293223562484e-01
2.980000000000000071e+01,1.198275720622097446e-01
2.983999999999999986e+01,1.673514379653345818e-01
2.987999999999999901e+01,1.888724740690044812e-01
2.992000000000000171e+01,1.280430547497204419e-01
2.996000000000000085e+01,9.235704575857835164e-02
3.000000000000000000e+01,1.086878964560002159e-01
3.003999999999999915e+01,1.857044460496765359e-01
3.007999999999999829e+01,1.630327251862049576e-01
3.012000000000000099e+01,1.802413889334024688e-01
3.016000000000000014e+01,1.844503564587657019e-01
3.019999999999999929e+01,1.799940359812388924e-01
3.023999999999999844e+01,1.504015669737852057e-01
3.028000000000000114e+01,1.944979532100084563e-01
3.032000000000000028e+01,2.117243729812017250e-01
3.035999999999999943e+01,1.795417623760833525e-01
3.039999999999999858e+01,1.941744665750111121e-01
3.044000000000000128e+01,1.472616880895339098e-01
3.048000000000000043e+01,1.176900481450254971e-01
3.051999999999999957e+01,1.982163471308457103e-01
3.055999999999999872e+01,2.015931435633690205e-01
3.060000000000000142e+01,1.702978383625029513e-01
3.064000000000000057e+01,1.312038808886698826e-01
3.067999999999999972e+01,9.558076894280685687e-02
3.071999999999999886e+01,1.215098550043064024e-01
3.076000000000000156e+01,1.092992035622106645e-01
3.080000000000000071e+01,1.699102251586113999e-01
3.083999999999999986e+01,1.204299092986308717e-01
3.087999999999999901e+01,1.957843928024931290e-01
3.092000000000000171e+01,1.350409073778930935e-01
3.096000000000000085e+01,2.407427132694927863e-01
3.100000000000000000e+01,2.138140494840215233e-01
3.103999999999999915e+01,1.140700408963712525e-01
3.107999999999999829e+01,1.842388001065097536e-01
3.112000000000000099e+01,1.599200140311352047e-01
3.116000000000000014e+01,1.737472481560692339e-01
3.119999999999999929e+01,2.161847315362684652e-01
3.123999999999999844e+01,2.144140007909997037e-01
3.128000000000000114e+01,1.354933576359919345e-01
3.132000000000000028e+01,1.267934329188028231e-01
3.135999999999999943e+01,1.831128866831351620e-01
3.139999999999999858e+01,1.579479287395750553e-01
3.144000000000000128e+01,1.978023037379321725e-01
3.148000000000000043e+01,2.177211415289834751e-01
3.151999999999999957e+01,2.107693297609343763e-01
3.155999999999999872e+01,1.708786422797370363e-01
3.160000000000000142e+01,1.431271385985473654e-01
3.164000000000000057e+01,2.176709605134772296e-01
3.167999999999999972e+01,2.922175139203210814e-01
3.171999999999999886e+01,1.977239674881868525e-01
3.176000000000000156e+01,1.509118478845667410e-01
3.180000000000000071e+01,1.933916698316191229e-01
3.183999999999999986e+01,2.107344324566501337e-01
3.187999999999999901e+01,2.159434059560949026e-01
3.192000000000000171e+01,2.280900639106325789e-01
3.196000000000000085e+01,2.107651632449961954e-01
3.200000000000000000e+01,1.171568265109266538e-01
3.203999999999999915e+01,1.700547837601616707e-01
3.207999999999999829e+01,1.267308768531276719e-01
3.211999999999999744e+01,1.362895090328820058e-01
3.215999999999999659e+01,2.238703572643485629e-01
3.220000000000000284e+01,2.082941834481461529e-01
3.224000000000000199e+01,1.259701851199371558e-01
3.228000000000000114e+01,1.684801892124891121e-01
3.232000000000000028e+01,2.057912432936226388e-01
3.235999999999999943e+01,1.633511115871049135e-01
3.239999999999999858e+01,1.859297663472470052e-01
3.243999999999999773e+01,2.197802405437983553e-01
3.247999999999999687e+01,1.773470054342882740e-01
3.252000000000000313e+01,2.952899702344409238e-01
3.256000000000000227e+01,2.441923570297657720e-01
3.260000000000000142e+01,2.130353341597811812e-01
3.264000000000000057e+01,2.590333679061314065e-01
3.267999999999999972e+01,2.807607503623588130e-01
3.271999999999999886e+01,2.426751246509463167e-01
3.275999999999999801e+01,2.392670635567508142e-01
3.279999999999999716e+01,2.705365443099703726e-01
3.284000000000000341e+01,2.584637863433765226e-01
3.288000000000000256e+01,2.325228976106393231e-01
3.292000000000000171e+01,2.785355889191241108e-01
3.296000000000000085e+01,3.947680651035314625e-01
3.300000000000000000e+01,6.566394025982376093e-01
3.303999999999999915e+01,1.000000000000000000e+00
3.307999999999999829e+01,8.709095541772902127e-01
3.311999999999999744e+01,4.678849816448679699e-01
3.315999999999999659e+01,3.058566610959452259e-01
3.320000000000000284e+01,2.755969088443221415e-01
3.324000000000000199e+01,2.756800169835418868e-01
3.328000000000000114e+01,2.601609942630964678e-01
3.332000000000000028e+01,2.021663457829576405e-01
3.335999999999999943e+01,2.577355643681770170e-01
3.339999999999999858e+01,2.552251600946132681e-01
3.343999999999999773e+01,2.683204370011449402e-01
3.347999999999999687e+01,2.259367041025369949e-01
3.352000000000000313e+01,2.242983065791456232e-01
3.356000000000000227e+01,1.793172604794979752e-01
3.360000000000000142e+01,2.322959932669089178e-01
3.364000000000000057e+01,2.488671215204524556e-01
3.367999999999999972e+01,2.645729565780423065e-01
3.371999999999999886e+01,2.256665314094274399e-01
3.375999999999999801e+01,2.578463219184368160e-01
3.379999999999999716e+01,2.397482376503820012e-01
3.384000000000000341e+01,1.930444107791912112e-01
3.388000000000000256e+01,2.451670896041908687e-01
3.392000000000000171e+01,3.180964935581525044e-01
3.396000000000000085e+01,2.523255394854243550e-01
3.400000000000000000e+01,2.385691681210246884e-01
3.403999999999999915e+01,1.797361025472417329e-01
3.407999999999999829e+01,2.743432592788358493e-01
3.411999999999999744e+01,2.025096085765576426e-01
3.415999999999999659e+01,1.783560185146515487e-01
3.420000000000000284e+01,1.914798319503255575e-01
3.424000000000000199e+01,2.869591083967347744e-01
3.428000000000000114e+01,2.914165855342399358e-01
3.432000000000000028e+01,2.230568507457723615e-01
3.435999999999999943e+01,2.292505348788899944e-01
3.439999999999999858e+01,2.042374990383901689e-01
3.443999999999999773e+01,2.113004128901611878e-01
3.447999999999999687e+01,2.790464981901236152e-01
3.452000000000000313e+01,3.121182504160651683e-01
3.456000000000000227e+01,2.619700197242290085e-01
3.460000000000000142e+01,2.560340544139424468e-01
3.464000000000000057e+01,2.526997942234426864e-01
3.467999999999999972e+01,3.343214051690995836e-01
3.471999999999999886e+01,2.416998913541055782e-01
3.475999999999999801e+01,2.062938448076896414e-01
3.479999999999999716e+01,2.636455768677650746e-01
3.484000000000000341e+01,2.473129147966883490e-01
3.488000000000000256e+01,2.838612206960364204e-01
3.492000000000000171e+01,2.155171838056557099e-01
3.496000000000000085e+01,2.364632896515611871e-01
3.500000000000000000e+01,3.059558641697387449e-01
3.503999999999999915e+01,2.445494416563056272e-01
3.507999999999999829e+01,3.521866237626757323e-01
3.511999999999999744e+01,2.673758432576386901e-01
3.515999999999999659e+01,3.446735322508065469e-01
3.520000000000000284e+01,3.196793776588773284e-01
3.524000000000000199e+01,3.388971241316602323e-01
3.528000000000000114e+01,3.416447150569096869e-01
3.532000000000000028e+01,3.582631445860451902e-01
3.535999999999999943e+01,2.847260462193624830e-01
3.539999999999999858e+01,2.970112953301428660e-01
3.543999999999999773e+01,2.988945011984251443e-01
3.547999999999999687e+01,3.649278540608362209e-01
3.552000000000000313e+01,4.006207355929127800e-01
3.556000000000000227e+01,3.565606097531500152e-01
3.560000000000000142e+01,3.653810420273695958e-01
3.564000000000000057e+01,4.114780580862839043e-01
3.567999999999999972e+01,2.755294271295475883e-01
3.571999999999999886e+01,3.034227192892824942e-01
3.575999999999999801e+01,3.573230063535652867e-01
3.579999999999999716e+01,3.245350598452007573e-01
3.584000000000000341e+01,3.186209488995292438e-01
3.588000000000000256e+01,2.528920309718296622e-01
3.592000000000000171e+01,3.076606124241301754e-01
3.596000000000000085e+01,3.164845205187852284e-01
3.600000000000000000e+01,3.235749285712005707e-01
3.603999999999999915e+01,2.786524143421210686e-01
3.607999999999999829e+01,3.022141365488814624e-01
3.611999999999999744e+01,2.850324115052819129e-01
3.615999999999999659e+01,3.337342187646695768e-01
3.620000000000000284e+01,2.914131337646402309e-01
3.624000000000000199e+01,3.323132594829765751e-01
3.628000000000000114e+01,2.917261955775321547e-01
3.632000000000000028e+01,3.152888005003670613e-01
3.635999999999999943e+01,2.608317150508133730e-01
3.639999999999999858e+01,3.138685627773931119e-01
3.643999999999999773e+01,2.741486092302434785e-01
3.647999999999999687e+01,2.222922480302355619e-01
3.652000000000000313e+01,2.805304102902018148e-01
3.656000000000000227e+01,2.962911024364835999e-01
3.660000000000000142e+01,2.713080740947773628e-01
3.664000000000000057e+01,2.740653121174658202e-01
3.667999999999999972e+01,2.776893216045223656e-01
3.671999999999999886e+01,2.553066076559194486e-01
3.675999999999999801e+01,2.710667261352943669e-01
3.679999999999999716e+01,2.781577995943889658e-01
3.684000000000000341e+01,2.653102846926617686e-01
3.688000000000000256e+01,2.689333789657756824e-01
3.692000000000000171e+01,1.659292195635446165e-01
3.696000000000000085e+01,2.302338222049075123e-01
3.700000000000000000e+01,3.040738761297112069e-01
3.703999999999999915e+01,2.435462497417891781e-01
3.707999999999999829e+01,2.237619322166737312e-01
3.711999999999999744e+01,2.143798838633410586e-01
3.715999999999999659e+01,3.150919946531444693e-01
3.720000000000000284e+01,2.684330410847748372e-01
3.724000000000000199e+01,1.931664094800678300e-01
3.728000000000000114e+01,2.574679994325622112e-01
3.732000000000000028e+01,1.934699530679586665e-01
3.735999999999999943e+01,2.959135548511760416e-01
3.739999999999999858e+01,2.345151406699745311e-01
3.743999999999999773e+01,3.135517431645139519e-01
3.747999999999999687e+01,2.790256836244818239e-01
3.752000000000000313e+01,2.991128616434171605e-01
3.756000000000000227e+01,2.550498453598797899e-01
3.760000000000000142e+01,2.959410380169263388e-01
3.764000000000000057e+01,2.562111530746609134e-01
3.767999999999999972e+01,2.901659109626351651e-01
3.771999999999999886e+01,2.573697248756799394e-01
3.775999999999999801e+01,2.696508915536366957e-01
3.779999999999999716e+01,2.134472963215606200e-01
3.784000000000000341e+01,3.236850759996773852e-01
3.788000000000000256e+01,3.567691862506647271e-01
3.792000000000000171e+01,2.979625389429841897e-01
3.796000000000000085e+01,3.119734888791777516e-01
3.800000000000000000e+01,3.329186622605053714e-01
3.803999999999999915e+01,3.694668982946565094e-01
3.807999999999999829e+01,3.869427263018614949e-01
3.811999999999999744e+01,3.983494164785557623e-01
3.815999999999999659e+01,3.646770671562237776e-01
3.820000000000000284e+01,3.734811615377305327e-01
3.824000000000000199e+01,2.843261128179060959e-01
3.828000000000000114e+01,3.590115299472008137e-01
3.832000000000000028e+01,2.811239279773615762e-01
3.835999999999999943e+01,2.067027997334382194e-01
3.839999999999999858e+01,2.475764419552729800e-01
3.843999999999999773e+01,2.650430402331943047e-01
3.847999999999999687e+01,1.880179035819673772e-01
3.852000000000000313e+01,2.462258516353223736e-01
3.856000000000000227e+01,2.238121983839110596e-01
3.860000000000000142e+01,2.456085335338130948e-01
3.864000000000000057e+01,2.318613041223014926e-01
3.867999999999999972e+01,1.999082113345577727e-01
3.871999999999999886e+01,2.433729417576904752e-01
3.875999999999999801e+01,1.992808674450517459e-01
3.879999999999999716e+01,1.161775927007930587e-01
3.884000000000000341e+01,1.761091962824402890e-01
3.888000000000000256e+01,1.918282367063678939e-01
3.892000000000000171e+01,1.884743909374997639e-01
3.896000000000000085e+01,1.062324885613397524e-01
3.900000000000000000e+01,1.852299835846092091e-01
3.903999999999999915e+01,1.237904564207903818e-01
3.907999999999999829e+01,1.230314821778909773e-01
3.911999999999999744e+01,1.318067524189070472e-01
3.915999999999999659e+01,1.951943266569935720e-01
3.920000000000000284e+01,1.276805358040233596e-01
3.924000000000000199e+01,1.537888823072320610e-01
3.928000000000000114e+01,8.713881088074328096e-02
3.932000000000000028e+01,1.011075383045908077e-01
3.935999999999999943e+01,1.116070806273020272e-01
3.939999999999999858e+01,7.442621899386611672e-02
3.943999999999999773e+01,9.705881915537908911e-02
3.947999999999999687e+01,6.160833544815032953e-02
3.952000000000000313e+01,8.337060940301783962e-02
3.956000000000000227e+01,1.155337635717243044e-01
3.960000000000000142e+01,8.441244837578647242e-02
3.964000000000000057e+01,9.923430196179897078e-02
3.967999999999999972e+01,8.371331615803130621e-02
3.971999999999999886e+01,1.002652744326222589e-01
3.975999999999999801e+01,5.439955846110903354e-02
3.979999999999999716e+01,8.828548190455436095e-02
3.984000000000000341e+01,9.356224727450890288e-02
3.988000000000000256e+01,5.809342503268104946e-02
3.992000000000000171e+01,7.550270176618070761e-02
3.996000000000000085e+01,6.863718310552793800e-02
4.000000000000000000e+01,5.743522882915150923e-02
4.003999999999999915e+01,4.883190574924298893e-02
4.007999999999999829e+01,8.963904577445529209e-02
4.011999999999999744e+01,1.495156092137646942e-01
4.015999999999999659e+01,3.427906500155275538e-02
4.020000000000000284e+01,7.161237311720709819e-02
4.024000000000000199e+01,1.124110847780663697e-01
4.028000000000000114e+01,5.178194728667739194e-02
4.032000000000000028e+01,1.021120563217870897e-01
4.035999999999999943e+01,6.921888081777646806e-02
4.039999999999999858e+01,8.746975865596630373e-02
4.043999999999999773e+01,6.237407151189338500e-02
4.047999999999999687e+01,0.000000000000000000e+00
4.052000000000000313e+01,6.418901272507850087e-02
4.056000000000000227e+01,7.636253018099556367e-02
4.060000000000000142e+01,6.599466032142067839e-02
4.064000000000000057e+01,8.943298323024864716e-02
4.067999999999999972e+01,1.449437037421784091e-01
4.071999999999999886e+01,2.489976368446422672e-01
4.075999999999999801e+01,1.857400965282915428e-01
4.079999999999999716e+01,1.658244060763750249e-01
4.084000000000000341e+01,1.311691674698951260e-01
4.088000000000000256e+01,1.337875298040004657e-01
4.092000000000000171e+01,3.769775550049324180e-03
4.096000000000000085e+01,3.499030297521113497e-02
4.100000000000000000e+01,4.366921538685785559e-02
4.103999999999999915e+01,2.373828663094262881e-02
4.107999999999999829e+01,8.962647204055455841e-02
4.111999999999999744e+01,1.243041121497521356e-01
4.115999999999999659e+01,6.448849175304324777e-02
4.120000000000000284e+01,7.228730705972154225e-02
4.124000000000000199e+01,7.921652567780022858e-02
4.128000000000000114e+01,9.914630400146315359e-02
4.132000000000000028e+01,6.619326823197040077e-02
4.135999999999999943e+01,4.624074662845747974e-02
4.139999999999999858e+01,4.535691980536608880e-02
4.143999999999999773e+01,3.233386187392357086e-02
4.147999999999999687e+01,8.952573885049942837e-02
4.152000000000000313e+01,4.615594700870303407e-02
4.156000000000000227e+01,7.386793073306970048e-02
4.160000000000000142e+01,8.250550268788221786e-02
4.164000000000000057e+01,1.128122913975495717e-01
4.167999999999999972e+01,8.070031291059948098e-02
4.171999999999999886e+01,6.939061944115015867e-02
4.175999999999999801e+01,5.547726088017148477e-02
4.179999999999999716e+01,1.273826066282782721e-01
4.184000000000000341e+01,8.052149124686060200e-02
4.188000000000000256e+01,2.585532527801159830e-02
4.192000000000000171e+01,1.194236015467814854e-01
4.196000000000000085e+01,1.072286413428578389e-01
4.200000000000000000e+01,5.948820391412216330e-02
4.203999999999999915e+01,1.253066925036308565e-01
4.207999999999999829e+01,9.143007969528309242e-02
4.211999999999999744e+01,7.748863800866405416e-02
4.215999999999999659e+01,6.441084832348868694e-02
4.220000000000000284e+01,7.213507041818593979e-02
4.224000000000000199e+01,4.951499585575192680e-02
4.228000000000000114e+01,9.364185601429267369e-02
4.232000000000000028e+01,3.113838857416938860e-02
4.235999999999999943e+01,9.433007176236024582e-02
4.239999999999999858e+01,6.216090238302172943e-02
4.243999999999999773e+01,8.026773888821388259e-02
4.247999999999999687e+01,3.855601139398841248e-02
4.252000000000000313e+01,8.959766793439881416e-02
4.256000000000000227e+01,2.707377067533776535e-02
4.260000000000000142e+01,1.075826113807601403e-01
4.264000000000000057e+01,3.898351863938992468e-02
4.267999999999999972e+01,1.220859803003901817e-01
4.271999999999999886e+01,4.047651141550778070e-02
4.275999999999999801e+01,6.462358291268471833e-02
4.279999999999999716e+01,7.663064912823040753e-02
4.284000000000000341e+01,4.875732896436793529e-02
4.288000000000000256e+01,7.376042281045774862e-02
4.292000000000000171e+01,1.247664357664730189e-01
4.296000000000000085e+01,7.000864300473565172e-02
4.300000000000000000e+01,1.002019852602629157e-01
4.303999999999999915e+01,5.844003797065112221e-02
4.307999999999999829e+01,7.995702521496993176e-02
4.311999999999999744e+01,5.205771851602344208e-02
4.315999999999999659e+01,5.449562529693387225e-02
4.320000000000000284e+01,8.293629179915291971e-02
4.324000000000000199e+01,3.595401011622412213e-02
4.328000000000000114e+01,6.265318349120445329e-02
4.332000000000000028e+01,4.513726626040288903e-02
4.335999999999999943e+01,8.916635177941673041e-02
4.339999999999999858e+01,5.777239803407318436e-02
4.343999999999999773e+01,9.399160488318539231e-02
4.347999999999999687e+01,7.559299567431558564e-02
4.352000000000000313e+01,1.092035499608107058e-01
4.356000000000000227e+01,5.958899812399710838e-02
4.360000000000000142e+01,5.764913325419765422e-02
4.364000000000000057e+01,1.259229737230893598e-01
4.367999999999999972e+01,7.542930565154812306e-02
4.371999999999999886e+01,8.387977680835381755e-02
4.375999999999999801e+01,1.270015508867268494e-01
4.379999999999999716e+01,9.903448899146494178e-02
4.384000000000000341e+01,1.005373672916707040e-01
4.388000000000000256e+01,7.516256016384492700e-02
4.392000000000000171e+01,1.304039333590836514e-01
4.396000000000000085e+01,8.854979356900263832e-02
4.400000000000000000e+01,1.065065198164011767e-01
4.403999999999999915e+01,1.001861281498060557e-01
4.407999999999999829e+01,5.398464423992990063e-02
4.411999999999999744e+01,1.057369507590902175e-01
4.415999999999999659e+01,7.253003721240727786e-02
4.420000000000000284e+01,1.320755513686611426e-01
4.424000000000000199e+01,1.370028168406882130e-01
4.428000000000000114e+01,6.130522492621075237e-02
4.432000000000000028e+01,8.182753719625993072e-02
4.435999999999999943e+01,8.587452517363923510e-02
4.439999999999999858e+01,6.651107650655276038e-02
4.443999999999999773e+01,9.655560903613000234e-02
4.447999999999999687e+01,1.187936109411221325e-01
4.452000000000000313e+01,1.254230836719841258e-01
4.456000000000000227e+01,1.398499317981416468e-01
4.460000000000000142e+01,1.352006604195679362e-01
4.464000000000000057e+01,1.530857842584211481e-01
4.467999999999999972e+01,1.380245638889512072e-01
4.471999999999999886e+01,9.088386273910512014e-02
4.475999999999999801e+01,1.104886845824870623e-01
4.479999999999999716e+01,7.980936995315496274e-02
4.484000000000000341e+01,1.193430775684432288e-01
4.488000000000000256e+01,9.212176541417829712e-02
4.492000000000000171e+01,4.322349300351571721e-02
4.496000000000000085e+01,1.156844601952678603e-01
4.500000000000000000e+01,7.371159843185483285e-02
4.503999999999999915e+01,6.034110757208941550e-02
4.507999999999999829e+01,1.024464369763936483e-01
4.511999999999999744e+01,6.652708942159146766e-02
4.515999999999999659e+01,6.874579263627070280e-02
4.520000000000000284e+01,1.325084511898566852e-01
4.524000000000000199e+01,1.061099577064410215e-01
4.528000000000000114e+01,1.299858534515878628e-01
4.532000000000000028e+01,1.079117477053362500e-01
4.535999999999999943e+01,1.127060583088151241e-01
4.539999999999999858e+01,8.368672864977889925e-02
4.543999999999999773e+01,6.766559063688148967e-02
4.547999999999999687e+01,1.140551347720234754e-01
4.552000000000000313e+01,5.467941592206167906e-02
4.556000000000000227e+01,8.025337482201341799e-02
4.560000000000000142e+01,1.439651340236205446e-01
4.564000000000000057e+01,1.331194650496873855e-01
4.567999999999999972e+01,8.239179304037852480e-02
4.571999999999999886e+01,5.939921865032761483e-02
4.575999999999999801e+01,1.014178256129474737e-01
4.579999999999999716e+01,1.338953781520059727e-01
4.584000000000000341e+01,4.760419258130416803e-02
4.588000000000000256e+01,1.164802846197803693e-01
4.592000000000000171e+01,9.519483753461452369e-02
4.596000000000000085e+01,1.311184821733644978e-01
4.600000000000000000e+01,1.219586244318252855e-01
4.603999999999999915e+01,1.067251204389069175e-01
4.607999999999999829e+01,5.160938571258931462e-02
4.611999999999999744e+01,1.135177992756721405e-01
4.615999999999999659e+01,8.699830949179676587e-02
4.620000000000000284e+01,1.185546610107723053e-01
4.624000000000000199e+01,9.115719436665742359e-02
4.628000000000000114e+01,1.669136057687463093e-01
4.632000000000000028e+01,1.334367539986872631e-01
4.635999999999999943e+01,8.174966705034197867e-02
4.639999999999999858e+01,1.245475278613015629e-01
4.643999999999999773e+01,7.198223635469304382e-02
4.647999999999999687e+01,8.442771634431263383e-02
4.652000000000000313e+01,7.692909768093804390e-02
4.656000000000000227e+01,7.462605732949334492e-02
4.660000000000000142e+01,9.572318267290895466e-02
4.664000000000000057e+01,1.185482959976527501e-01
4.667999999999999972e+01,1.101596990194539244e-01
4.671999999999999886e+01,1.078334754717243243e-01
4.675999999999999801e+01,1.176378059689063837e-01
4.679999999999999716e+01,7.022177192126281831e-02
4.684000000000000341e+01,8.521564584837867939e-02
4.688000000000000256e+01,6.552815083254333317e-02
4.692000000000000171e+01,1.091174044496111273e-01
4.696000000000000085e+01,9.635308864039339449e-02
4.700000000000000000e+01,1.078555970257617236e-01
4.703999999999999915e+01,1.080825727281968934e-01
4.707999999999999829e+01,7.362806563866888809e-02
4.711999999999999744e+01,1.007164209375342040e-01
4.715999999999999659e+01,1.052596546733201160e-01
4.720000000000000284e+01,1.132643300086998567e-01
4.724000000000000199e+01,1.108602450098838677e-01
4.728000000000000114e+01,8.157653914983538368e-02
4.732000000000000028e+01,5.662109277772274518e-02
4.735999999999999943e+01,9.060771358194162628e-02
4.739999999999999858e+01,1.315232069277392224e-01
4.743999999999999773e+01,8.661072688615059634e-02
4.747999999999999687e+01,8.850383894299805598e-02
4.752000000000000313e+01,1.363356341307300490e-01
4.756000000000000227e+01,1.165439977744017336e-01
4.760000000000000142e+01,1.357559094273597111e-01
4.764000000000000057e+01,1.298217676863624159e-01
4.767999999999999972e+01,1.126117289455940973e-01
4.771999999999999886e+01,1.370058284979528140e-01
4.775999999999999801e+01,9.030883786624263609e-02
4.779999999999999716e+01,1.138231845137773479e-01
4.784000000000000341e+01,8.618477798586947347e-02
4.788000000000000256e+01,9.928353247412988192e-02
4.792000000000000171e+01,1.444505632312642895e-01
4.796000000000000085e+01,1.237277071418130536e-01
4.800000000000000000e+01,9.259565809192120411e-02
4.803999999999999915e+01,1.056682237699849147e-01
4.807999999999999829e+01,1.091984371457523223e-01
4.811999999999999744e+01,1.205239994044051410e-01
4.815999999999999659e+01,8.936548830668808452e-02
4.820000000000000284e+01,1.102134766374598396e-01
4.824000000000000199e+01,1.067819562249899268e-01
4.828000000000000114e+01,1.397529381419187755e-01
4.832000000000000028e+01,1.432430485895060668e-01
4.835999999999999943e+01,1.302555577641871798e-01
4.839999999999999858e+01,1.371996632016256046e-01
4.843999999999999773e+01,1.163966012558137891e-01
4.847999999999999687e+01,1.285283829993921489e-01
4.852000000000000313e+01,8.777325208538946932e-02
4.856000000000000227e+01,1.267647739996278222e-01
4.860000000000000142e+01,1.241388582874196206e-01
4.864000000000000057e+01,1.145709300889298787e-01
4.867999999999999972e+01,1.483403661038086296e-01
4.871999999999999886e+01,1.110181654593615785e-01
4.875999999999999801e+01,1.421729832234046031e-01
4.879999999999999716e+01,1.152394117547546892e-01
4.884000000000000341e+01,9.610077931254763783e-02
4.888000000000000256e+01,1.714456829018987383e-01
4.892000000000000171e+01,9.247776099899106261e-02
4.896000000000000085e+01,1.114608743790335699e-01
4.900000000000000000e+01,1.356381771130617253e-01
4.903999999999999915e+01,1.277335399280583317e-01
4.907999999999999829e+01,1.016171192182080130e-01
4.911999999999999744e+01,1.084351778809100747e-01
4.915999999999999659e+01,1.403857173666193114e-01
4.920000000000000284e+01,1.151145261193613628e-01
4.924000000000000199e+01,9.417050140952573645e-02
4.928000000000000114e+01,1.130959545750262751e-01
4.932000000000000028e+01,1.224783495743575479e-01
4.935999999999999943e+01,1.751977217004170584e-01
4.939999999999999858e+01,1.299515979502861573e-01
4.943999999999999773e+01,1.592503089062491384e-01
4.947999999999999687e+01,9.405102323741366954e-02
4.952000000000000313e+01,1.276693402720447679e-01
4.956000000000000227e+01,1.370073971599559681e-01
4.960000000000000142e+01,1.064612195718600829e-01
4.964000000000000057e+01,1.348558112813611487e-01
4.967999999999999972e+01,1.346356435459896139e-01
4.971999999999999886e+01,1.075344659914415357e-01
4.975999999999999801e+01,1.367733308318356822e-01
4.979999999999999716e+01,1.018550338102337111e-01
4.984000000000000341e+01,1.345462542147088381e-01
4.988000000000000256e+01,1.524927804892864114e-01
4.992000000000000171e+01,8.981123883522622309e-02
4.996000000000000085e+01,1.198788460325623112e-01
5.000000000000000000e+01,1.360685769883428764e-01
5.003999999999999915e+01,1.123738230002902239e-01
5.007999999999999829e+01,1.580222222149987865e-01
5.011999999999999744e+01,1.559841151665266323e-01
5.015999999999999659e+01,1.279316340288010057e-01
5.020000000000000284e+01,1.189428383149769980e-01
5.024000000000000199e+01,1.047448917182752792e-01
5.028000000000000114e+01,1.789614808258048195e-01
5.032000000000000028e+01,1.517445055606927995e-01
5.035999999999999943e+01,1.323216040695333329e-01
5.039999999999999858e+01,1.172252087915277297e-01
5.043999999999999773e+01,1.307281104938504690e-01
5.047999999999999687e+01,1.650283106269567757e-01
5.052000000000000313e+01,1.369047114371226836e-01
5.056000000000000227e+01,1.547180648731934782e-01
5.060000000000000142e+01,1.317797283904488248e-01
5.064000000000000057e+01,1.253041682705321735e-01
5.067999999999999972e+01,1.326907031503936352e-01
5.071999999999999886e+01,9.239039022003907309e-02
5.075999999999999801e+01,1.613096085022678317e-01
5.079999999999999716e+01,1.643373232819429763e-01
5.084000000000000341e+01,1.482853664677180328e-01
5.088000000000000256e+01,1.556311389795001221e-01
5.092000000000000171e+01,1.109555188433085510e-01
5.096000000000000085e+01,1.919701538279229569e-01
5.100000000000000000e+01,1.230052102793014746e-01
5.103999999999999915e+01,1.641265247523959192e-01
5.107999999999999829e+01,1.133495904018446687e-01
5.111999999999999744e+01,1.258470138549489525e-01
5.115999999999999659e+01,1.279334455332260256e-01
5.120000000000000284e+01,1.551511967745897724e-01
5.124000000000000199e+01,1.520195281532903120e-01
5.128000000000000114e+01,9.513248956029742021e-02
5.132000000000000028e+01,1.292600532499220967e-01
5.135999999999999943e+01,1.633791456886977966e-01
5.139999999999999858e+01,9.606405897016796758e-02
5.143999999999999773e+01,1.223641648180959773e-01
5.147999999999999687e+01,1.313180071507843161e-01
5.152000000000000313e+01,1.558672387128996473e-01
5.156000000000000227e+01,1.665377060111672136e-01
5.160000000000000142e+01,1.459916623208012132e-01
5.164000000000000057e+01,1.973885424041517678e-01
5.167999999999999972e+01,1.724907836763064084e-01
5.171999999999999886e+01,1.683896175153713759e-01
5.175999999999999801e+01,1.504095732415767495e-01
5.179999999999999716e+01,1.514923035995892897e-01
5.184000000000000341e+01,1.595013790511179141e-01
5.188000000000000256e+01,1.649010286511193024e-01
5.192000000000000171e+01,1.711587744207877793e-01
5.196000000000000085e+01,1.730732764038259985e-01
5.200000000000000000e+01,1.186313399654806283e-01
5.203999999999999915e+01,1.898790438632774469e-01
5.207999999999999829e+01,1.172147578274186641e-01
5.211999999999999744e+01,1.372983910736284840e-01
5.215999999999999659e+01,1.825127974076683202e-01
5.220000000000000284e+01,1.557666999118275664e-01
5.224000000000000199e+01,1.957618674561728833e-01
5.228000000000000114e+01,1.698646890152771816e-01
5.232000000000000028e+01,1.612962168032593124e-01
5.235999999999999943e+01,1.839266072143038722e-01
5.239999999999999858e+01,1.640705106699282545e-01
5.243999999999999773e+01,1.260007179373069663e-01
5.247999999999999687e+01,1.676753465922952713e-01
5.252000000000000313e+01,1.434574926432283515e-01
5.256000000000000227e+01,1.920489249601728954e-01
5.260000000000000142e+01,1.227346572685064918e-01
5.264000000000000057e+01,1.921129813321844348e-01
5.267999999999999972e+01,1.444524460453960046e-01
5.271999999999999886e+01,1.600653577701683927e-01
5.275999999999999801e+01,1.297240328203025650e-01
5.279999999999999716e+01,1.435846129919111647e-01
5.284000000000000341e+01,1.799749205714619715e-01
5.288000000000000256e+01,1.608751749917262941e-01
5.292000000000000171e+01,1.608375664893315071e-01
5.296000000000000085e+01,1.564561449552473171e-01
5.300000000000000000e+01,1.347275946534337299e-01
5.303999999999999915e+01,1.780060816002605184e-01
5.307999999999999829e+01,1.605930843522939133e-01
5.311999999999999744e+01,1.648427689259039930e-01
5.315999999999999659e+01,1.517452336525750289e-01
5.320000000000000284e+01,1.698460828364590225e-01
5.324000000000000199e+01,1.766678700180435713e-01
5.328000000000000114e+01,1.574735070657904135e-01
5.332000000000000028e+01,2.067535667645577224e-01
5.335999999999999943e+01,1.606665349699478162e-01
5.339999999999999858e+01,1.917227422642457102e-01
5.343999999999999773e+01,1.308793573165586144e-01
5.347999999999999687e+01,1.818546138281414148e-01
5.352000000000000313e+01,1.608686151063657421e-01
5.356000000000000227e+01,1.858178612753178249e-01
5.360000000000000142e+01,1.630786202082833702e-01
5.364000000000000057e+01,1.689368545373883534e-01
5.367999999999999972e+01,1.487787110346318609e-01
5.371999999999999886e+01,1.520166802019148888e-01
5.375999999999999801e+01,1.231700226134876952e-01
5.379999999999999716e+01,1.575961972519572540e-01
5.384000000000000341e+01,1.755416511545969116e-01
5.388000000000000256e+01,1.501328894213796172e-01
5.392000000000000171e+01,1.281817439609589382e-01
5.396000000000000085e+01,1.521656156932420789e-01
5.400000000000000000e+01,1.683375375879779257e-01
5.403999999999999915e+01,1.602266491181291996e-01
5.407999999999999829e+01,1.278329275138938015e-01
5.411999999999999744e+01,1.431079044186513438e-01
5.415999999999999659e+01,1.158953924966844573e-01
5.420000000000000284e+01,1.770951848383172378e-01
5.424000000000000199e+01,1.394598399599245586e-01
5.428000000000000114e+01,1.468924439180676056e-01
5.432000000000000028e+01,1.274414195297621788e-01
5.435999999999999943e+01,1.166490781329222876e-01
5.439999999999999858e+01,1.552590482519572157e-01
5.443999999999999773e+01,1.401118495849119072e-01
5.447999999999999687e+01,1.830357788716282519e-01
5.452000000000000313e+01,1.349263873294451466e-01
5.456000000000000227e+01,1.873655018911288550e-01
5.460000000000000142e+01,1.496381362820574656e-01
5.464000000000000057e+01,1.829851005137759501e-01
5.467999999999999972e+01,1.894482314708249016e-01
5.471999999999999886e+01,1.560242134171640760e-01
5.475999999999999801e+01,1.286579920636974905e-01
5.479999999999999716e+01,1.177521790136131091e-01
5.484000000000000341e+01,1.822550129440529132e-01
5.488000000000000256e+01,1.617925245016160196e-01
5.492000000000000171e+01,1.369851073071739755e-01
5.496000000000000085e+01,1.754498620153601973e-01
5.500000000000000000e+01,1.514882671827415539e-01
5.503999999999999915e+01,1.673928713739187835e-01
5.507999999999999829e+01,1.330074872531747110e-01
5.511999999999999744e+01,1.592935253626022452e-01
5.515999999999999659e+01,1.248868952475135352e-01
5.520000000000000284e+01,1.424827798455000627e-01
5.524000000000000199e+01,1.375289433803293937e-01
5.528000000000000114e+01,1.342981766191765625e-01
5.532000000000000028e+01,1.466606359562259709e-01
5.535999999999999943e+01,1.477428264914507072e-01
5.539999999999999858e+01,1.262752048843089892e-01
5.543999999999999773e+01,1.472742131961872758e-01
5.547999999999999687e+01,1.864670151203057513e-01
5.552000000000000313e+01,1.432947889479573855e-01
5.556000000000000227e+01,1.538586449559611047e-01
5.560000000000000142e+01,1.644116161140652121e-01
5.564000000000000057e+01,1.801549968389625778e-01
5.567999999999999972e+01,1.638126578576363235e-01
5.571999999999999886e+01,1.145176902025342308e-01
5.575999999999999801e+01,1.640367731617298763e-01
5.579999999999999716e+01,1.623985717548124819e-01
5.584000000000000341e+01,1.728857556476698920e-01
5.588000000000000256e+01,8.540375495635395275e-02
5.592000000000000171e+01,1.591515200380671791e-01
5.596000000000000085e+01,1.644041857194743494e-01
5.600000000000000000e+01,1.358371771407402284e-01
5.603999999999999915e+01,1.254636433970136022e-01
5.607999999999999829e+01,1.506212856734753802e-01
5.611999999999999744e+01,1.558293645443758757e-01
5.615999999999999659e+01,1.514904916129024837e-01
5.620000000000000284e+01,1.367377579115043595e-01
5.624000000000000199e+01,1.462465885803456711e-01
5.628000000000000114e+01,1.488090577306539763e-01
5.632000000000000028e+01,1.392238254061315961e-01
5.635999999999999943e+01,1.278935032099665081e-01
5.639999999999999858e+01,1.781007608080462934e-01
5.643999999999999773e+01,1.572119871749443620e-01
5.647999999999999687e+01,1.839905686324957157e-01
5.652000000000000313e+01,9.806253582729974883e-02
5.656000000000000227e+01,1.785652216647902746e-01
5.660000000000000142e+01,1.775691508188991241e-01
5.664000000000000057e+01,1.366848380117848261e-01
5.667999999999999972e+01,1.243962700958301387e-01
5.671999999999999886e+01,7.221941467904743894e-02
5.675999999999999801e+01,1.214566992247509414e-01
5.679999999999999716e+01,1.325394231255198063e-01
5.684000000000000341e+01,1.306072633462785626e-01
5.688000000000000256e+01,1.512025312249405395e-01
5.692000000000000171e+01,1.067696980190364631e-01
5.696000000000000085e+01,1.039357432819132815e-01
5.700000000000000000e+01,1.279635788820324138e-01
5.703999999999999915e+01,1.181711482071487601e-01
5.707999999999999829e+01,1.196365107704175645e-01
5.711999999999999744e+01,1.713695227007495103e-01
5.715999999999999659e+01,9.392471829426202179e-02
5.720000000000000284e+01,1.317639825464212988e-01
5.724000000000000199e+01,9.763987397360214537e-02
5.728000000000000114e+01,1.259197304571254006e-01
5.732000000000000028e+01,1.143109578927850589e-01
5.735999999999999943e+01,1.165604777712280771e-01
5.739999999999999858e+01,8.759018503969470681e-02
5.743999999999999773e+01,1.071535871213072783e-01
5.747999999999999687e+01,1.197699445903157855e-01
5.752000000000000313e+01,1.072346245241850016e-01
5.756000000000000227e+01,8.948598670134383370e-02
5.760000000000000142e+01,9.686502527321122491e-02
5.764000000000000057e+01,1.597127343912063402e-01
5.767999999999999972e+01,1.453955030299017015e-01
5.771999999999999886e+01,1.293324076236739562e-01
5.775999999999999801e+01,1.279942631599549907e-01
5.779999999999999716e+01,1.587187708239262973e-01
5.784000000000000341e+01,1.460868086416067801e-01
5.788000000000000256e+01,1.438452981036430767e-01
5.792000000000000171e+01,8.697775160904432090e-02
5.796000000000000085e+01,9.164689688639850174e-02
5.800000000000000000e+01,1.595864835614015376e-01
5.803999999999999915e+01,8.794511859094270023e-02
5.807999999999999829e+01,6.830462890778865592e-02
5.811999999999999744e+01,1.006649917421373053e-01
5.815999999999999659e+01,6.019457184830361018e-02
5.820000000000000284e+01,1.194036998085728218e-01
5.824000000000000199e+01,1.109833166875502791e-01
5.828000000000000114e+01,9.128100256913050659e-02
5.832000000000000028e+01,8.283577582498982683e-02
5.835999999999999943e+01,8.911515847632259235e-02
5.839999999999999858e+01,1.005833795780853995e-01
5.843999999999999773e+01,1.181073025582253244e-01
5.847999999999999687e+01,8.707307418874145333e-02
5.852000000000000313e+01,1.219096498027230635e-01
5.856000000000000227e+01,9.345096316574008632e-02
5.860000000000000142e+01,8.838561128290831070e-02
5.864000000000000057e+01,7.897321305645123302e-02
5.867999999999999972e+01,7.388260769405866069e-02
5.871999999999999886e+01,1.147243099178889281e-01
5.875999999999999801e+01,9.487129463499011095e-02
5.879999999999999716e+01,9.321018307073533626e-02
5.884000000000000341e+01,9.240322850033896862e-02
5.888000000000000256e+01,1.141225630977280719e-01
5.892000000000000171e+01,9.421858545966059484e-02
5.896000000000000085e+01,9.077264806552955145e-02
5.900000000000000000e+01,1.072522729365290445e-01
5.903999999999999915e+01,8.124163106491609498e-02
5.907999999999999829e+01,6.908830253458485282e-02
5.911999999999999744e+01,4.912010963200364594e-02
5.915999999999999659e+01,1.045581045712911522e-01
5.920000000000000284e+01,9.063226955853163902e-02
5.924000000000000199e+01,7.842725003935618888e-02
5.928000000000000114e+01,8.007943001245056147e-02
5.932000000000000028e+01,2.537100469032885566e-02
5.935999999999999943e+01,2.786404320833137799e-02
5.939999999999999858e+01,8.495786420340818712e-02
5.943999999999999773e+01,5.101556368389437851e-02
5.947999999999999687e+01,2.832969021439138077e-02
5.952000000000000313e+01,6.631273429679986064e-02
5.956000000000000227e+01,3.926617448768610075e-02
5.960000000000000142e+01,5.555076273589579228e-02
5.964000000000000057e+01,8.222480075715725423e-02
5.967999999999999972e+01,3.520030459999767131e-02
5.971999999999999886e+01,3.410754678400142875e-02
5.975999999999999801e+01,2.953399126766365415e-02
5.979999999999999716e+01,5.268751840015162280e-02
5.984000000000000341e+01,3.074966480073207040e-02
5.988000000000000256e+01,8.508447538448794811e-02
5.992000000000000171e+01,6.051929798451381043e-02
5.996000000000000085e+01,4.981093299016924741e-02
