2.003999999999999915e+01,1.275447460247136101e-02
2.007999999999999829e+01,1.455555764421335649e-02
2.012000000000000099e+01,7.641165171258706978e-03
2.016000000000000014e+01,1.158808509932818080e-02
2.019999999999999929e+01,6.949607963767490300e-03
2.023999999999999844e+01,1.115622932437505474e-02
2.028000000000000114e+01,7.102649559319473491e-03
2.032000000000000028e+01,1.573147899263265329e-02
2.035999999999999943e+01,7.449898840763827419e-03
2.039999999999999858e+01,8.338613249494201268e-03
2.044000000000000128e+01,1.462535086861957781e-02
2.048000000000000043e+01,1.349739678814946935e-02
2.051999999999999957e+01,9.182296620856261749e-03
2.055999999999999872e+01,1.403749126708992399e-02
2.060000000000000142e+01,1.173815105262639678e-02
2.064000000000000057e+01,1.646281342223310240e-02
2.067999999999999972e+01,5.903045770028847103e-03
2.071999999999999886e+01,1.531007412618232491e-02
2.076000000000000156e+01,8.001811016375018695e-03
2.080000000000000071e+01,2.449378597215378164e-03
2.083999999999999986e+01,8.798886250832201050e-03
2.087999999999999901e+01,1.586359812475058098e-02
2.092000000000000171e+01,7.773958680850878364e-03
2.096000000000000085e+01,8.139183897490492869e-03
2.100000000000000000e+01,7.723712791213207564e-03
2.103999999999999915e+01,7.373054535158951421e-03
2.107999999999999829e+01,5.981543433449173011e-03
2.112000000000000099e+01,6.150746041340645655e-03
2.116000000000000014e+01,1.412442200292491137e-02
2.119999999999999929e+01,1.487852488999039623e-02
2.123999999999999844e+01,1.465681434662876106e-02
2.128000000000000114e+01,1.137803724245186124e-02
2.132000000000000028e+01,1.486310714808565699e-02
2.135999999999999943e+01,5.145001300471233573e-03
2.139999999999999858e+01,9.995442065205820126e-03
2.144000000000000128e+01,7.105996836408304436e-03
2.148000000000000043e+01,1.754935426271184845e-02
2.151999999999999957e+01,1.381394875418563359e-02
2.155999999999999872e+01,1.261484508532126174e-02
2.160000000000000142e+01,1.063504604201892696e-02
2.164000000000000057e+01,1.327280215846218803e-02
2.167999999999999972e+01,1.109743496429286581e-02
2.171999999999999886e+01,2.417926302926707086e-03
2.176000000000000156e+01,9.607748069009505731e-03
2.180000000000000071e+01,8.082096976138160305e-03
2.183999999999999986e+01,1.631209518092115521e-02
2.187999999999999901e+01,1.361528913499290144e-02
2.192000000000000171e+01,1.241415890100386679e-02
2.196000000000000085e+01,1.186319543227798770e-02
2.200000000000000000e+01,1.573467020548326156e-02
2.203999999999999915e+01,1.511821804866642603e-02
2.207999999999999829e+01,8.127703318341472985e-03
2.212000000000000099e+01,1.089283832829436756e-02
2.216000000000000014e+01,1.040579068163280559e-02
2.219999999999999929e+01,6.536482116987478441e-03
2.223999999999999844e+01,9.235904529585337031e-03
2.228000000000000114e+01,1.167494594109320764e-02
2.232000000000000028e+01,1.040653081280993632e-02
2.235999999999999943e+01,9.983400569010980607e-03
2.239999999999999858e+01,9.039732864615330696e-03
2.244000000000000128e+01,1.056732922868338850e-02
2.248000000000000043e+01,7.737077682881890982e-03
2.251999999999999957e+01,2.305035672559567917e-03
2.255999999999999872e+01,6.693683260367002015e-03
2.260000000000000142e+01,1.147234197594604495e-02
2.264000000000000057e+01,1.111268308697580323e-02
2.267999999999999972e+01,8.541468960216208606e-03
2.271999999999999886e+01,1.312433903018859864e-02
2.276000000000000156e+01,1.198353922460190096e-02
2.280000000000000071e+01,7.460479449510489490e-03
2.283999999999999986e+01,8.660642490233218249e-03
2.287999999999999901e+01,1.337269689178092157e-02
2.292000000000000171e+01,1.281635580680162180e-02
2.296000000000000085e+01,1.447112296309876166e-02
2.300000000000000000e+01,8.971359052614747559e-03
2.303999999999999915e+01,7.373721729687151595e-03
2.307999999999999829e+01,9.418054408345461967e-03
2.312000000000000099e+01,8.015088461053841012e-03
2.316000000000000014e+01,1.305077662073866017e-02
2.319999999999999929e+01,1.515947957934241433e-02
2.323999999999999844e+01,8.227516143838623994e-03
2.328000000000000114e+01,2.075799884853014345e-03
2.332000000000000028e+01,8.476419242030056381e-03
2.335999999999999943e+01,6.356685693200276634e-03
2.339999999999999858e+01,1.392756474576964214e-02
2.344000000000000128e+01,1.856394265389901604e-03
2.348000000000000043e+01,4.028577873916594672e-03
2.351999999999999957e+01,1.439547354062394383e-02
2.355999999999999872e+01,7.917003843004666655e-03
2.360000000000000142e+01,9.698285492330552260e-03
2.364000000000000057e+01,7.967230175420966440e-03
2.367999999999999972e+01,2.788877117808587474e-03
2.371999999999999886e+01,1.061813444478247777e-02
2.376000000000000156e+01,3.878397404111172484e-03
2.380000000000000071e+01,9.105644277680059046e-03
2.383999999999999986e+01,6.918204763135951847e-03
2.387999999999999901e+01,5.445974211288436527e-03
2.392000000000000171e+01,6.379970905185571896e-03
2.396000000000000085e+01,8.094215850543835106e-03
2.400000000000000000e+01,1.158030577005018632e-03
2.403999999999999915e+01,8.270082790717871168e-03
2.407999999999999829e+01,5.821156639788824423e-03
2.412000000000000099e+01,1.026616024950702949e-02
2.416000000000000014e+01,6.060733893255854272e-03
2.419999999999999929e+01,7.513493340403981473e-03
2.423999999999999844e+01,1.059201059154481726e-02
2.428000000000000114e+01,7.686703720737582922e-03
2.432000000000000028e+01,1.544759834017327138e-02
2.435999999999999943e+01,1.150122268167010076e-02
2.439999999999999858e+01,8.465174294780466319e-03
2.444000000000000128e+01,1.303848695970043908e-02
2.448000000000000043e+01,8.441056866101519229e-03
2.451999999999999957e+01,1.093267465237104073e-02
2.455999999999999872e+01,6.529920487107347335e-03
2.460000000000000142e+01,9.411331815077804072e-03
2.464000000000000057e+01,8.715368595310576255e-03
2.467999999999999972e+01,1.185649539330846727e-02
2.471999999999999886e+01,5.891918974479696917e-03
2.476000000000000156e+01,7.471664951015349193e-03
2.480000000000000071e+01,8.075603124765930868e-03
2.483999999999999986e+01,1.056545670019064243e-02
2.487999999999999901e+01,9.477936107269321203e-03
2.492000000000000171e+01,9.886096068682310306e-03
2.496000000000000085e+01,8.928213506434242580e-03
2.500000000000000000e+01,1.362851801222414623e-02
2.503999999999999915e+01,7.402023262625477551e-03
2.507999999999999829e+01,3.841914241700074544e-03
2.512000000000000099e+01,8.216363159030209973e-03
2.516000000000000014e+01,1.376129719858311916e-02
2.519999999999999929e+01,8.314393073374625603e-03
2.523999999999999844e+01,1.093212540071868133e-02
2.528000000000000114e+01,1.309436398246579224e-02
2.532000000000000028e+01,1.102883746841199636e-02
2.535999999999999943e+01,8.117582361421347634e-03
2.539999999999999858e+01,1.008404500718053549e-02
2.544000000000000128e+01,4.895980443306612202e-03
2.548000000000000043e+01,1.147978496251221212e-02
2.551999999999999957e+01,8.242456744223067289e-03
2.555999999999999872e+01,8.126789149494757433e-03
2.560000000000000142e+01,6.970275854319346771e-03
2.564000000000000057e+01,9.520775769874222083e-03
2.567999999999999972e+01,8.623981106322989656e-03
2.571999999999999886e+01,1.039357318315590681e-02
2.576000000000000156e+01,8.585792482745296939e-03
2.580000000000000071e+01,6.712753832556645275e-03
2.583999999999999986e+01,1.062798190287786784e-02
2.587999999999999901e+01,5.242391103196630819e-03
2.592000000000000171e+01,5.905223799691589233e-03
2.596000000000000085e+01,7.543425396146176062e-03
2.600000000000000000e+01,8.791173547479297357e-03
2.603999999999999915e+01,4.705491982075643044e-03
2.607999999999999829e+01,1.115593636451880921e-02
2.612000000000000099e+01,9.931541313866636134e-03
2.616000000000000014e+01,1.007275045313753975e-02
2.619999999999999929e+01,1.112428970945904955e-02
2.623999999999999844e+01,9.509005219528958441e-03
2.628000000000000114e+01,8.739011810812723907e-03
2.632000000000000028e+01,9.724857818751007910e-03
2.635999999999999943e+01,6.417901212617885265e-03
2.639999999999999858e+01,6.492763207118729639e-03
2.644000000000000128e+01,2.534979363214519364e-03
2.648000000000000043e+01,6.901990581255365229e-03
2.651999999999999957e+01,1.172405828609788744e-02
2.655999999999999872e+01,1.056230547321259684e-02
2.660000000000000142e+01,1.161166665570968932e-02
2.664000000000000057e+01,1.005924388657514559e-02
2.667999999999999972e+01,8.376525396464478551e-03
2.671999999999999886e+01,3.896905594284107589e-03
2.676000000000000156e+01,6.376258888359232629e-03
2.680000000000000071e+01,1.139192230547957443e-02
2.683999999999999986e+01,1.035872648519493844e-02
2.687999999999999901e+01,9.390352746995756297e-03
2.692000000000000171e+01,4.844608065279089673e-03
2.696000000000000085e+01,6.932640984474491841e-03
2.700000000000000000e+01,9.540770311555486771e-03
2.703999999999999915e+01,8.181293911011062667e-03
2.707999999999999829e+01,1.293528200266952019e-02
2.712000000000000099e+01,7.998218210711829576e-03
2.716000000000000014e+01,1.346720374926188048e-02
2.719999999999999929e+01,1.314748726869687141e-02
2.723999999999999844e+01,7.689460455255006828e-03
2.728000000000000114e+01,1.153181740290610928e-02
2.732000000000000028e+01,1.082121660484980548e-02
2.735999999999999943e+01,6.858441370330412880e-03
2.739999999999999858e+01,6.862838777948887178e-03
2.744000000000000128e+01,1.989082818052593203e-03
2.748000000000000043e+01,9.732708212740668469e-03
2.751999999999999957e+01,4.858520052603945358e-03
2.755999999999999872e+01,1.084565599139867068e-02
2.760000000000000142e+01,6.491349182354172985e-03
2.764000000000000057e+01,2.266904819102495174e-03
2.767999999999999972e+01,3.570573435827078482e-03
2.771999999999999886e+01,8.060945252937514599e-03
2.776000000000000156e+01,9.494260752806110010e-03
2.780000000000000071e+01,8.000598323265996695e-03
2.783999999999999986e+01,1.151473582822492951e-02
2.787999999999999901e+01,8.524741603704907855e-03
2.792000000000000171e+01,1.106286073855273881e-02
2.796000000000000085e+01,8.527709840999162308e-03
2.800000000000000000e+01,9.114223424154318728e-03
2.803999999999999915e+01,1.002571757232345942e-02
2.807999999999999829e+01,3.067257898860230921e-03
2.812000000000000099e+01,5.929496612765585914e-03
2.816000000000000014e+01,1.308410498171861704e-02
2.819999999999999929e+01,6.840430923182280396e-03
2.823999999999999844e+01,8.856515546495396379e-03
2.828000000000000114e+01,6.904996402373058534e-03
2.832000000000000028e+01,8.920651354723082432e-03
2.835999999999999943e+01,1.119624821564193032e-02
2.839999999999999858e+01,4.496226001673282908e-03
2.844000000000000128e+01,2.218652209977164339e-03
2.848000000000000043e+01,9.046346589430131688e-03
2.851999999999999957e+01,9.955262711820669561e-03
2.855999999999999872e+01,5.335635614184393478e-03
2.860000000000000142e+01,7.089632060766974143e-03
2.864000000000000057e+01,4.615868659799033519e-03
2.867999999999999972e+01,7.670219819605742471e-03
2.871999999999999886e+01,9.683730211056248635e-03
2.876000000000000156e+01,6.884128483946490296e-03
2.880000000000000071e+01,3.433921088748122068e-03
2.883999999999999986e+01,5.316711020350273556e-03
2.887999999999999901e+01,4.077407242904068294e-03
2.892000000000000171e+01,5.244338615194290773e-03
2.896000000000000085e+01,1.350032488609760085e-02
2.900000000000000000e+01,4.065445282309170828e-03
2.903999999999999915e+01,6.272362064641203924e-03
2.907999999999999829e+01,1.147086671034297858e-02
2.912000000000000099e+01,7.693753419332077098e-03
2.916000000000000014e+01,4.046504976927469723e-03
2.919999999999999929e+01,3.195727100686514884e-03
2.923999999999999844e+01,8.653534618074757226e-03
2.928000000000000114e+01,1.202987565554391840e-02
2.932000000000000028e+01,7.080990695466336110e-03
2.935999999999999943e+01,1.110729697303917268e-02
2.939999999999999858e+01,9.019708897750227869e-03
2.944000000000000128e+01,4.720576270868716978e-03
2.948000000000000043e+01,9.006400097529737234e-03
2.951999999999999957e+01,5.617389865809856511e-03
2.955999999999999872e+01,9.707670454985816225e-03
2.960000000000000142e+01,2.741080672612427466e-03
2.964000000000000057e+01,2.798507701494369962e-03
2.967999999999999972e+01,1.092057820167354615e-02
2.971999999999999886e+01,7.010191085489858934e-03
2.976000000000000156e+01,6.871862855226228660e-03
2.980000000000000071e+01,6.408126349175476827e-03
2.983999999999999986e+01,1.030180131621424681e-02
2.987999999999999901e+01,1.009779672049373155e-02
2.992000000000000171e+01,3.714859431625923414e-03
2.996000000000000085e+01,1.164032563753854103e-02
3.000000000000000000e+01,8.704039591123032688e-03
3.003999999999999915e+01,4.596836538403894362e-03
3.007999999999999829e+01,3.806418741355942128e-03
3.012000000000000099e+01,9.389626891340334749e-03
3.016000000000000014e+01,1.048492094738522409e-02
3.019999999999999929e+01,7.807731758029387570e-03
3.023999999999999844e+01,7.536779805063749567e-03
3.028000000000000114e+01,9.541986827119059572e-03
3.032000000000000028e+01,5.628418437548923792e-03
3.035999999999999943e+01,5.486909882377869439e-03
3.039999999999999858e+01,5.085033162199317433e-03
3.044000000000000128e+01,8.975529701288667214e-03
3.048000000000000043e+01,7.337486055484044277e-03
3.051999999999999957e+01,8.886150036300659305e-03
3.055999999999999872e+01,8.808623696724447033e-03
3.060000000000000142e+01,6.844750450784841019e-03
3.064000000000000057e+01,5.986331827542385429e-03
3.067999999999999972e+01,7.664229460842682425e-03
3.071999999999999886e+01,7.780976188978509268e-03
3.076000000000000156e+01,6.336572075181813417e-03
3.080000000000000071e+01,5.412270376304396773e-03
3.083999999999999986e+01,3.252013773461404945e-03
3.087999999999999901e+01,7.660501805959367937e-03
3.092000000000000171e+01,5.759980401507166538e-03
3.096000000000000085e+01,1.159890868027093833e-02
3.100000000000000000e+01,7.096399585909928844e-03
3.103999999999999915e+01,4.674933181074703015e-03
3.107999999999999829e+01,7.326310994825806742e-03
3.112000000000000099e+01,9.847400106345416057e-03
3.116000000000000014e+01,1.119757398205557981e-02
3.119999999999999929e+01,7.669600434052804491e-03
3.123999999999999844e+01,1.038517627897525553e-02
3.128000000000000114e+01,8.027487339746775669e-03
3.132000000000000028e+01,7.685802370367002083e-03
3.135999999999999943e+01,7.604064051951085583e-03
3.139999999999999858e+01,7.261959149326015217e-03
3.144000000000000128e+01,5.488782804312523043e-03
3.148000000000000043e+01,9.243725446309051727e-03
3.151999999999999957e+01,7.014855411337525201e-03
3.155999999999999872e+01,5.371128154992643039e-03
3.160000000000000142e+01,8.019775991641778928e-03
3.164000000000000057e+01,6.245551236233570259e-03
3.167999999999999972e+01,1.286116892522236842e-02
3.171999999999999886e+01,5.102922316622664038e-03
3.176000000000000156e+01,4.303656708270145979e-03
3.180000000000000071e+01,6.886218236862621037e-03
3.183999999999999986e+01,9.533609688300293677e-03
3.187999999999999901e+01,8.083324738575340881e-03
3.192000000000000171e+01,4.746694969140852725e-03
3.196000000000000085e+01,9.344633950622538779e-03
3.200000000000000000e+01,4.446646249685858206e-03
3.203999999999999915e+01,9.239284808246015640e-03
3.207999999999999829e+01,2.454743617231769284e-03
3.211999999999999744e+01,5.751063785981953835e-03
3.215999999999999659e+01,8.787018571929707325e-03
3.220000000000000284e+01,4.863574321342995464e-03
3.224000000000000199e+01,9.329973400400367461e-03
3.228000000000000114e+01,6.641856082485252805e-03
3.232000000000000028e+01,8.831467456444546185e-03
3.235999999999999943e+01,5.817737428913841852e-03
3.239999999999999858e+01,4.494817266990984786e-03
3.243999999999999773e+01,6.618764416024647095e-03
3.247999999999999687e+01,9.002659986516319685e-03
3.252000000000000313e+01,1.307736561231163420e-02
3.256000000000000227e+01,1.233896512658036980e-02
3.260000000000000142e+01,1.844482257707232226e-03
3.264000000000000057e+01,0.000000000000000000e+00
3.267999999999999972e+01,9.211967421813604603e-03
3.271999999999999886e+01,1.191981076521222982e-02
3.275999999999999801e+01,4.546376166893595708e-03
3.279999999999999716e+01,8.684665573895950993e-03
3.284000000000000341e+01,6.578987741381595554e-03
3.288000000000000256e+01,8.960804512184982959e-03
3.292000000000000171e+01,1.082210045239022020e-02
3.296000000000000085e+01,4.182073363431253882e-02
3.300000000000000000e+01,8.478636527381988586e-02
3.303999999999999915e+01,4.320087858002205627e-02
3.307999999999999829e+01,1.091578481594766142e-02
3.311999999999999744e+01,8.418420169524298488e-03
3.315999999999999659e+01,7.741944914716763007e-03
3.320000000000000284e+01,9.601789900063769506e-03
3.324000000000000199e+01,6.453412361925242764e-03
3.328000000000000114e+01,6.751903462613836199e-03
3.332000000000000028e+01,6.724991851925485493e-03
3.335999999999999943e+01,7.023069216098308358e-03
3.339999999999999858e+01,1.206879865480650453e-02
3.343999999999999773e+01,7.878760336648429896e-03
3.347999999999999687e+01,4.468985319151665137e-03
3.352000000000000313e+01,5.091431780579257910e-03
3.356000000000000227e+01,4.933201773917141215e-03
3.360000000000000142e+01,9.067350021845716271e-03
3.364000000000000057e+01,8.583511352411790987e-03
3.367999999999999972e+01,3.741842478049769473e-03
3.371999999999999886e+01,7.485136759815276541e-03
3.375999999999999801e+01,4.073916984189822864e-03
3.379999999999999716e+01,1.119883536017440492e-02
3.384000000000000341e+01,5.185636873574751143e-03
3.388000000000000256e+01,5.025756979404241015e-03
3.392000000000000171e+01,7.077002652059994313e-03
3.396000000000000085e+01,8.802846625049744189e-03
3.400000000000000000e+01,6.431017548169369082e-03
3.403999999999999915e+01,5.815040091706724298e-03
3.407999999999999829e+01,5.589091910580686398e-03
3.411999999999999744e+01,5.362938094219488368e-03
3.415999999999999659e+01,7.933262684781731272e-03
3.420000000000000284e+01,5.950640405529193655e-03
3.424000000000000199e+01,8.520554041780774648e-03
3.428000000000000114e+01,7.903343342994469806e-03
3.432000000000000028e+01,5.334752456114020581e-03
3.435999999999999943e+01,7.253658512132843579e-03
3.439999999999999858e+01,6.375675396613331505e-03
3.443999999999999773e+01,6.733231235425900241e-03
3.447999999999999687e+01,8.651521903305625302e-03
3.452000000000000313e+01,1.128503835357633732e-02
3.456000000000000227e+01,5.788454576585473979e-03
3.460000000000000142e+01,7.445973776210987674e-03
3.464000000000000057e+01,8.843131513413985539e-03
3.467999999999999972e+01,6.012538951088489646e-03
3.471999999999999886e+01,4.547564110319854414e-03
3.475999999999999801e+01,5.879068624953712359e-03
3.479999999999999716e+01,9.616817584418268713e-03
3.484000000000000341e+01,1.237877461231312592e-02
3.488000000000000256e+01,1.312431317506028948e-02
3.492000000000000171e+01,1.048761092757863680e-02
3.496000000000000085e+01,2.257336414878984010e-03
3.500000000000000000e+01,7.229807605072839476e-03
3.503999999999999915e+01,4.072179326788319051e-03
3.507999999999999829e+01,7.808498134700903731e-03
3.511999999999999744e+01,6.406519066427559042e-03
3.515999999999999659e+01,7.345745849771686056e-03
3.520000000000000284e+01,1.088633519716771664e-02
3.524000000000000199e+01,6.166747067643788341e-03
3.528000000000000114e+01,7.820793042071652948e-03
3.532000000000000028e+01,5.767403027086949810e-03
3.535999999999999943e+01,4.754435933866964226e-03
3.539999999999999858e+01,7.838732453772825903e-03
3.543999999999999773e+01,8.581415582274943762e-03
3.547999999999999687e+01,5.551623811991621832e-03
3.552000000000000313e+01,5.708547572321229918e-03
3.556000000000000227e+01,1.126351844471685723e-02
3.560000000000000142e+01,8.688390733881197828e-03
3.564000000000000057e+01,5.722824816820112036e-03
3.567999999999999972e+01,1.186253845265625162e-02
3.571999999999999886e+01,1.078270196716560325e-02
3.575999999999999801e+01,8.011644219132909792e-03
3.579999999999999716e+01,6.150931763814956703e-03
3.584000000000000341e+01,1.020858016159153191e-02
3.588000000000000256e+01,6.136130418760333757e-03
3.592000000000000171e+01,7.266610870180698935e-03
3.596000000000000085e+01,1.125861173626219007e-02
3.600000000000000000e+01,1.512033161440812755e-02
3.603999999999999915e+01,8.315426275149834234e-03
3.607999999999999829e+01,8.729665414390075373e-03
3.611999999999999744e+01,8.948584593089985856e-03
3.615999999999999659e+01,1.020792795819326984e-02
3.620000000000000284e+01,1.289793054673560140e-02
3.624000000000000199e+01,1.214065524940233058e-02
3.628000000000000114e+01,1.047262945914960094e-02
3.632000000000000028e+01,1.361729952166404294e-02
3.635999999999999943e+01,1.058304707137256405e-02
3.639999999999999858e+01,1.099566819199907994e-02
3.643999999999999773e+01,1.270887059085500440e-02
3.647999999999999687e+01,1.006424721101822038e-02
3.652000000000000313e+01,5.273129633941772004e-03
3.656000000000000227e+01,8.351548917153298057e-03
3.660000000000000142e+01,1.253543224462010629e-02
3.664000000000000057e+01,1.190621591021759004e-02
3.667999999999999972e+01,1.218734625963236416e-02
3.671999999999999886e+01,1.136260932477710546e-02
3.675999999999999801e+01,1.333435490692101190e-02
3.679999999999999716e+01,1.394007668205624918e-02
3.684000000000000341e+01,1.487079293323093424e-02
3.688000000000000256e+01,1.137864487573161422e-02
3.692000000000000171e+01,1.465036848849711644e-02
3.696000000000000085e+01,1.226348383534067894e-02
3.700000000000000000e+01,1.592504019360607009e-02
3.703999999999999915e+01,1.698482904054261430e-02
3.707999999999999829e+01,1.576804625088535500e-02
3.711999999999999744e+01,1.884364728022893537e-02
3.715999999999999659e+01,1.892724601413575333e-02
3.720000000000000284e+01,2.109189717528615893e-02
3.724000000000000199e+01,1.954911538215682240e-02
3.728000000000000114e+01,2.242879598555733850e-02
3.732000000000000028e+01,2.725945088129601637e-02
3.735999999999999943e+01,2.148852180858487615e-02
3.739999999999999858e+01,2.664397155216152724e-02
3.743999999999999773e+01,3.095371179884543258e-02
3.747999999999999687e+01,3.331207685275795749e-02
3.752000000000000313e+01,3.423938007553599394e-02
3.756000000000000227e+01,3.249987744669970841e-02
3.760000000000000142e+01,4.129651897650714332e-02
3.764000000000000057e+01,4.261345677091812889e-02
3.767999999999999972e+01,4.965364084019071450e-02
3.771999999999999886e+01,6.092117051464256833e-02
3.775999999999999801e+01,7.511526261149317762e-02
3.779999999999999716e+01,8.865876326744029368e-02
3.784000000000000341e+01,1.029174949540289374e-01
3.788000000000000256e+01,1.273871754303817216e-01
3.792000000000000171e+01,1.668156636076759680e-01
3.796000000000000085e+01,2.182111580833150377e-01
3.800000000000000000e+01,3.089551462490923717e-01
3.803999999999999915e+01,4.337794560218896645e-01
3.807999999999999829e+01,6.104397787730082570e-01
3.811999999999999744e+01,8.172130343572727718e-01
3.815999999999999659e+01,9.732555440982431083e-01
3.820000000000000284e+01,1.000000000000000000e+00
3.824000000000000199e+01,9.116249395073112716e-01
3.828000000000000114e+01,7.384386123154981219e-01
3.832000000000000028e+01,5.820321900013633032e-01
3.835999999999999943e+01,4.238695113724614272e-01
3.839999999999999858e+01,2.893808889515674942e-01
3.843999999999999773e+01,2.188906034282987467e-01
3.847999999999999687e+01,1.734401966478146817e-01
3.852000000000000313e+01,1.307862751665349044e-01
3.856000000000000227e+01,1.066683163244417087e-01
3.860000000000000142e+01,8.989958426906011213e-02
3.864000000000000057e+01,7.599237686487921029e-02
3.867999999999999972e+01,6.572716412273836573e-02
3.871999999999999886e+01,5.526663553013289043e-02
3.875999999999999801e+01,4.935864999824005755e-02
3.879999999999999716e+01,4.280007460624209170e-02
3.884000000000000341e+01,4.157451234902807824e-02
3.888000000000000256e+01,3.794230297605603874e-02
3.892000000000000171e+01,3.339934728347217219e-02
3.896000000000000085e+01,3.360405245466247665e-02
3.900000000000000000e+01,2.847534839626260361e-02
3.903999999999999915e+01,2.490738637537031133e-02
3.907999999999999829e+01,2.452614551273308782e-02
3.911999999999999744e+01,2.512029435336172317e-02
3.915999999999999659e+01,2.603944133748196249e-02
3.920000000000000284e+01,2.084470946056423205e-02
3.924000000000000199e+01,2.436502779038209401e-02
3.928000000000000114e+01,2.073084078881591921e-02
3.932000000000000028e+01,1.956794453958955043e-02
3.935999999999999943e+01,1.554312779728400477e-02
3.939999999999999858e+01,1.906265659323063896e-02
3.943999999999999773e+01,1.731381601743895229e-02
3.947999999999999687e+01,1.465423000728252427e-02
3.952000000000000313e+01,1.173429024899950643e-02
3.956000000000000227e+01,1.486279554898209919e-02
3.960000000000000142e+01,1.317820586625848001e-02
3.964000000000000057e+01,1.507057320084070721e-02
3.967999999999999972e+01,1.670258704022408586e-02
3.971999999999999886e+01,1.065978294536969358e-02
3.975999999999999801e+01,1.274667741856048454e-02
3.979999999999999716e+01,1.548376685845690923e-02
3.984000000000000341e+01,1.184682179982378750e-02
3.988000000000000256e+01,1.211202994939125990e-02
3.992000000000000171e+01,9.580357653427235345e-03
3.996000000000000085e+01,9.975251257618342540e-03
4.000000000000000000e+01,1.147561428077909819e-02
4.003999999999999915e+01,9.853901236601082456e-03
4.007999999999999829e+01,1.297985082669137792e-02
4.011999999999999744e+01,1.447962520882102068e-02
4.015999999999999659e+01,8.434660676865431833e-03
4.020000000000000284e+01,1.123482619381312164e-02
4.024000000000000199e+01,1.338440412700529596e-02
4.028000000000000114e+01,1.696464773329375841e-02
4.032000000000000028e+01,8.707567966583706562e-03
4.035999999999999943e+01,9.425696826305932433e-03
4.039999999999999858e+01,1.066394327661152747e-02
4.043999999999999773e+01,1.450356057435235255e-02
4.047999999999999687e+01,1.053828281466093197e-02
4.052000000000000313e+01,7.483357809052449544e-03
4.056000000000000227e+01,1.145246687701721895e-02
4.060000000000000142e+01,9.828012595466679990e-03
4.064000000000000057e+01,8.073284660884919722e-03
4.067999999999999972e+01,6.318361461105153828e-03
4.071999999999999886e+01,9.701336881108369933e-03
4.075999999999999801e+01,1.132805978026064572e-02
4.079999999999999716e+01,6.190514724646075176e-03
4.084000000000000341e+01,7.426612562222094371e-03
4.088000000000000256e+01,1.393068759711011025e-02
4.092000000000000171e+01,9.833184291190405144e-03
4.096000000000000085e+01,9.702875063034117550e-03
4.100000000000000000e+01,1.106827180844955141e-02
4.103999999999999915e+01,8.140889145913357897e-03
4.107999999999999829e+01,9.570935724640121378e-03
4.111999999999999744e+01,1.139102270752384571e-02
4.115999999999999659e+01,6.511881467028740079e-03
4.120000000000000284e+01,7.876305364210413676e-03
4.124000000000000199e+01,8.785260745336774535e-03
4.128000000000000114e+01,7.352611966921741675e-03
4.132000000000000028e+01,1.073266694526561413e-02
4.135999999999999943e+01,3.836340089856146544e-03
4.139999999999999858e+01,1.020780821675022938e-02
4.143999999999999773e+01,9.294696102183435185e-03
4.147999999999999687e+01,8.251311662456049106e-03
4.152000000000000313e+01,1.163039632184348533e-02
4.156000000000000227e+01,6.684274332655912830e-03
4.160000000000000142e+01,5.119994972237099096e-03
4.164000000000000057e+01,6.417245005414020168e-03
4.167999999999999972e+01,8.689888788700564706e-03
4.171999999999999886e+01,6.539675914377113090e-03
4.175999999999999801e+01,5.559974403529050098e-03
4.179999999999999716e+01,6.010940968590749479e-03
4.184000000000000341e+01,6.396674939879888958e-03
4.188000000000000256e+01,9.383782034953882037e-03
4.192000000000000171e+01,1.054959928060238139e-02
4.196000000000000085e+01,7.032403598830017262e-03
4.200000000000000000e+01,8.067756099556918845e-03
4.203999999999999915e+01,7.932210563560361874e-03
4.207999999999999829e+01,1.111346925281516372e-02
4.211999999999999744e+01,7.855657885460047563e-03
4.215999999999999659e+01,8.239846681323237734e-03
4.220000000000000284e+01,6.867785232685099869e-03
4.224000000000000199e+01,9.462919885232260950e-03
4.228000000000000114e+01,6.724650493207804010e-03
4.232000000000000028e+01,5.742245810611383561e-03
4.235999999999999943e+01,1.022293815181035855e-02
4.239999999999999858e+01,9.890539936538466845e-03
4.243999999999999773e+01,1.183431991879537945e-02
4.247999999999999687e+01,8.509735334940975171e-03
4.252000000000000313e+01,1.006289556710409511e-02
4.256000000000000227e+01,1.252641177817877260e-02
4.260000000000000142e+01,5.559057225598161740e-03
4.264000000000000057e+01,8.477463175878710219e-03
4.267999999999999972e+01,1.055016791264985765e-02
4.271999999999999886e+01,9.370722494020522139e-03
4.275999999999999801e+01,1.053249494107610408e-02
4.279999999999999716e+01,1.442572029085223417e-02
4.284000000000000341e+01,1.090428928768395408e-02
4.288000000000000256e+01,9.333841366092629141e-03
4.292000000000000171e+01,1.238098224363567805e-02
4.296000000000000085e+01,1.048495512535372459e-02
4.300000000000000000e+01,1.470241766558430530e-02
4.303999999999999915e+01,1.417182982335559067e-02
4.307999999999999829e+01,1.071428820631692425e-02
4.311999999999999744e+01,1.115890491926549259e-02
4.315999999999999659e+01,1.407481845481951127e-02
4.320000000000000284e+01,1.263291683464571984e-02
4.324000000000000199e+01,1.249160724213010248e-02
4.328000000000000114e+01,1.241514565679276323e-02
4.332000000000000028e+01,1.474494198468800574e-02
4.335999999999999943e+01,1.622903817401674664e-02
4.339999999999999858e+01,1.628208182730526282e-02
4.343999999999999773e+01,1.783083531131348862e-02
4.347999999999999687e+01,1.359091251160376816e-02
4.352000000000000313e+01,1.552951935472234382e-02
4.356000000000000227e+01,1.603707391472845162e-02
4.360000000000000142e+01,2.103214002421057577e-02
4.364000000000000057e+01,2.368560570483540031e-02
4.367999999999999972e+01,2.061543458020256847e-02
4.371999999999999886e+01,2.216285351934279071e-02
4.375999999999999801e+01,1.870206656499605324e-02
4.379999999999999716e+01,2.675302100475208944e-02
4.384000000000000341e+01,3.239733616950989797e-02
4.388000000000000256e+01,3.257817149437219895e-02
4.392000000000000171e+01,3.379944327263303266e-02
4.396000000000000085e+01,4.171955868767843884e-02
4.400000000000000000e+01,4.339572450491665373e-02
4.403999999999999915e+01,4.955940256718216474e-02
4.407999999999999829e+01,5.481234246675533578e-02
4.411999999999999744e+01,5.622778196334012046e-02
4.415999999999999659e+01,7.240692153814616561e-02
4.420000000000000284e+01,8.702493151694944140e-02
4.424000000000000199e+01,1.020329868320005301e-01
4.428000000000000114e+01,1.262113744571152774e-01
4.432000000000000028e+01,1.458368312100944419e-01
4.435999999999999943e+01,1.593484172589550996e-01
4.439999999999999858e+01,1.688924250228496793e-01
4.443999999999999773e+01,1.617211787540883405e-01
4.447999999999999687e+01,1.568911530699850232e-01
4.452000000000000313e+01,1.464675702330959228e-01
4.456000000000000227e+01,1.290195687360392585e-01
4.460000000000000142e+01,1.104657124114035438e-01
4.464000000000000057e+01,9.750503503938465211e-02
4.467999999999999972e+01,8.122717144802947542e-02
4.471999999999999886e+01,6.937178201434378300e-02
4.475999999999999801e+01,5.374393235168130334e-02
4.479999999999999716e+01,4.767665079490132629e-02
4.484000000000000341e+01,4.108886725063946171e-02
4.488000000000000256e+01,3.697238324795624337e-02
4.492000000000000171e+01,3.480688555167860132e-02
4.496000000000000085e+01,2.997459370169440820e-02
4.500000000000000000e+01,2.806887571908897941e-02
4.503999999999999915e+01,2.486218611755389163e-02
4.507999999999999829e+01,2.308616977694718034e-02
4.511999999999999744e+01,2.196035681289328426e-02
4.515999999999999659e+01,1.823278917359311829e-02
4.520000000000000284e+01,1.535054252421152142e-02
4.524000000000000199e+01,1.851674991203013793e-02
4.528000000000000114e+01,1.231712993503365078e-02
4.532000000000000028e+01,1.925523281246896076e-02
4.535999999999999943e+01,1.669743012695179205e-02
4.539999999999999858e+01,9.521659114260689477e-03
4.543999999999999773e+01,9.044734077935663585e-03
4.547999999999999687e+01,1.260004942688319751e-02
4.552000000000000313e+01,1.270810155976377122e-02
4.556000000000000227e+01,1.008432132511614433e-02
4.560000000000000142e+01,1.077735088013006236e-02
4.564000000000000057e+01,1.290105458131938186e-02
4.567999999999999972e+01,1.255308275387882061e-02
4.571999999999999886e+01,7.131868969015430805e-03
4.575999999999999801e+01,1.133626396990155757e-02
4.579999999999999716e+01,7.605693998601387520e-03
4.584000000000000341e+01,1.044389231138540680e-02
4.588000000000000256e+01,1.035514127559485423e-02
4.592000000000000171e+01,1.065643823179332483e-02
4.596000000000000085e+01,7.380394342874858037e-03
4.600000000000000000e+01,5.600064331519861993e-03
4.603999999999999915e+01,7.526779779181383412e-03
4.607999999999999829e+01,6.461507032127371090e-03
4.611999999999999744e+01,5.786282593222055043e-03
4.615999999999999659e+01,6.671811447108553020e-03
4.620000000000000284e+01,8.012427897908262417e-03
4.624000000000000199e+01,7.206565516828221558e-03
4.628000000000000114e+01,9.522396513450727060e-03
4.632000000000000028e+01,7.480417286436255413e-03
4.635999999999999943e+01,7.714622453680093465e-03
4.639999999999999858e+01,1.243634359663532175e-02
4.643999999999999773e+01,8.377591669207108335e-03
4.647999999999999687e+01,8.741316681653534676e-03
4.652000000000000313e+01,5.527701734230102380e-03
4.656000000000000227e+01,1.102914856498616453e-02
4.660000000000000142e+01,8.010279227489026238e-03
4.664000000000000057e+01,8.633417135186779306e-03
4.667999999999999972e+01,5.158902037537451378e-03
4.671999999999999886e+01,2.789866981822664623e-03
4.675999999999999801e+01,6.664405853023440927e-03
4.679999999999999716e+01,8.652623426794053135e-03
4.684000000000000341e+01,6.348070761243441475e-03
4.688000000000000256e+01,8.335917343285554476e-03
4.692000000000000171e+01,2.844074859739860288e-03
4.696000000000000085e+01,7.107921383502951301e-03
4.700000000000000000e+01,9.290329439093688441e-03
4.703999999999999915e+01,6.334458461614784000e-03
4.707999999999999829e+01,9.427044430005063549e-03
4.711999999999999744e+01,2.828610130746068985e-03
4.715999999999999659e+01,5.205395207348076890e-03
4.720000000000000284e+01,1.024860097988275313e-02
4.724000000000000199e+01,6.381256622071429171e-03
4.728000000000000114e+01,7.521742929478999508e-03
4.732000000000000028e+01,7.361261222177143890e-03
4.735999999999999943e+01,6.290046537201499956e-03
4.739999999999999858e+01,8.275487838121927536e-03
4.743999999999999773e+01,7.854295554918145142e-03
4.747999999999999687e+01,6.912605457540122594e-03
4.752000000000000313e+01,4.669947661612333309e-03
4.756000000000000227e+01,8.475747570336927481e-03
4.760000000000000142e+01,7.533504305042684583e-03
4.764000000000000057e+01,9.647917405036112934e-03
4.767999999999999972e+01,8.315070703486988207e-03
4.771999999999999886e+01,8.998253896879464253e-03
4.775999999999999801e+01,6.364255739794510459e-03
4.779999999999999716e+01,6.786914200924969165e-03
4.784000000000000341e+01,7.144349553072923756e-03
4.788000000000000256e+01,1.055844164990014759e-02
4.792000000000000171e+01,8.899295267060900946e-03
4.796000000000000085e+01,8.605787535548629907e-03
4.800000000000000000e+01,1.045838846620274036e-02
4.803999999999999915e+01,9.123886813604209500e-03
4.807999999999999829e+01,6.163222536199860872e-03
4.811999999999999744e+01,5.088510461455210063e-03
4.815999999999999659e+01,1.477087616159914298e-03
4.820000000000000284e+01,2.353183592013043633e-03
4.824000000000000199e+01,6.025780232430345482e-03
4.828000000000000114e+01,6.901509642790333229e-03
4.832000000000000028e+01,9.077839111264094166e-03
4.835999999999999943e+01,4.945186711910850436e-03
4.839999999999999858e+01,7.316267481184934342e-03
4.843999999999999773e+01,4.679149755108334002e-03
4.847999999999999687e+01,3.862945638478183959e-03
4.852000000000000313e+01,4.867655194526446412e-03
4.856000000000000227e+01,8.798944245595600663e-03
4.860000000000000142e+01,5.510703536020658891e-03
4.864000000000000057e+01,4.953924961028630981e-03
4.867999999999999972e+01,8.234274342961984960e-03
4.871999999999999886e+01,7.286895619775634290e-03
4.875999999999999801e+01,8.290509273260545861e-03
4.879999999999999716e+01,9.489057984531845333e-03
4.884000000000000341e+01,5.224134696667436482e-03
4.888000000000000256e+01,6.617436226305490818e-03
4.892000000000000171e+01,9.246299600235692237e-03
4.896000000000000085e+01,1.044411922736450914e-02
4.900000000000000000e+01,7.349172029696525790e-03
4.903999999999999915e+01,8.221431682642598229e-03
4.907999999999999829e+01,8.508156888391139525e-03
4.911999999999999744e+01,8.599582683977839356e-03
4.915999999999999659e+01,5.243751017603559723e-03
4.920000000000000284e+01,6.310400590875405759e-03
4.924000000000000199e+01,4.840341100858842720e-03
4.928000000000000114e+01,6.101744757136107374e-03
4.932000000000000028e+01,6.192261884901883659e-03
4.935999999999999943e+01,5.762284170394303164e-03
4.939999999999999858e+01,7.088182357367045841e-03
4.943999999999999773e+01,7.828546666229682996e-03
4.947999999999999687e+01,6.422437264999215738e-03
4.952000000000000313e+01,6.577086468043034234e-03
4.956000000000000227e+01,6.796593605678762431e-03
4.960000000000000142e+01,5.389940521322155766e-03
4.964000000000000057e+01,6.649711990046200394e-03
4.967999999999999972e+01,7.258910797751101651e-03
4.971999999999999886e+01,5.136283814048928260e-03
4.975999999999999801e+01,8.541804714350530181e-03
4.979999999999999716e+01,6.288737646180959408e-03
4.984000000000000341e+01,5.076116389736150779e-03
4.988000000000000256e+01,5.879528442757357871e-03
4.992000000000000171e+01,7.723386433967205540e-03
4.996000000000000085e+01,4.038735034234851827e-03
5.000000000000000000e+01,8.678915876824592687e-03
5.003999999999999915e+01,8.115783266439123914e-03
5.007999999999999829e+01,7.422391925758823304e-03
5.011999999999999744e+01,6.923937729518755101e-03
5.015999999999999659e+01,8.051282311564511920e-03
5.020000000000000284e+01,5.080979452673336540e-03
5.024000000000000199e+01,6.858355288961707000e-03
5.028000000000000114e+01,3.952731350071410354e-03
5.032000000000000028e+01,8.786587698653092193e-03
5.035999999999999943e+01,6.661073717998258065e-03
5.039999999999999858e+01,4.080105701400957817e-03
5.043999999999999773e+01,5.661464235437263168e-03
5.047999999999999687e+01,4.901233153276960200e-03
5.052000000000000313e+01,6.807428015299835100e-03
5.056000000000000227e+01,6.762268361393694582e-03
5.060000000000000142e+01,4.050323469483641838e-03
5.064000000000000057e+01,7.126684501882389264e-03
5.067999999999999972e+01,7.731377909642960997e-03
5.071999999999999886e+01,7.490382813512822500e-03
5.075999999999999801e+01,6.078503465220799241e-03
5.079999999999999716e+01,6.357463069226164561e-03
5.084000000000000341e+01,9.628044934773285352e-03
5.088000000000000256e+01,6.134374780000878720e-03
5.092000000000000171e+01,7.323345233050239898e-03
5.096000000000000085e+01,9.292606619116055428e-03
5.100000000000000000e+01,5.928477745171793767e-03
5.103999999999999915e+01,7.051872181843254692e-03
5.107999999999999829e+01,6.874304547607059009e-03
5.111999999999999744e+01,8.387576371523722263e-03
5.115999999999999659e+01,7.169024680382929220e-03
5.120000000000000284e+01,5.690137704840218802e-03
5.124000000000000199e+01,6.682560324753633423e-03
5.128000000000000114e+01,7.739843598232108539e-03
5.132000000000000028e+01,6.780734394887691190e-03
5.135999999999999943e+01,8.878287437400796470e-03
5.139999999999999858e+01,7.138351585137472574e-03
5.143999999999999773e+01,6.113668262373151904e-03
5.147999999999999687e+01,7.885490725959677996e-03
5.152000000000000313e+01,4.714158725355009107e-03
5.156000000000000227e+01,4.924685098270629308e-03
5.160000000000000142e+01,4.679759332201823691e-03
5.164000000000000057e+01,6.320791333202879433e-03
5.167999999999999972e+01,4.969843991959116240e-03
5.171999999999999886e+01,6.545481141059051287e-03
5.175999999999999801e+01,1.013715457152587762e-02
5.179999999999999716e+01,6.704420786805186105e-03
5.184000000000000341e+01,5.157645085314029910e-03
5.188000000000000256e+01,6.537454127094269839e-03
5.192000000000000171e+01,7.656929022647411542e-03
5.196000000000000085e+01,7.930717374499785671e-03
5.200000000000000000e+01,8.594563329595154497e-03
5.203999999999999915e+01,6.656665485336836670e-03
5.207999999999999829e+01,8.620940135018916733e-03
5.211999999999999744e+01,9.284254357823639239e-03
5.215999999999999659e+01,5.589767588853706073e-03
5.220000000000000284e+01,8.138863346342331204e-03
5.224000000000000199e+01,4.444022531802181014e-03
5.228000000000000114e+01,7.773234317791910368e-03
5.232000000000000028e+01,9.021016045456469942e-03
5.235999999999999943e+01,9.423111861739602926e-03
5.239999999999999858e+01,5.402367903339097902e-03
5.243999999999999773e+01,9.121107583703026711e-03
5.247999999999999687e+01,8.221890128945308351e-03
5.252000000000000313e+01,4.785968795917752532e-03
5.256000000000000227e+01,7.658669720736778312e-03
5.260000000000000142e+01,7.279236108442994728e-03
5.264000000000000057e+01,9.306075142422402455e-03
5.267999999999999972e+01,8.991328037961557329e-03
5.271999999999999886e+01,6.334994858292412011e-03
5.275999999999999801e+01,9.336892629623295622e-03
5.279999999999999716e+01,5.704619740368767344e-03
5.284000000000000341e+01,5.389168085755754664e-03
5.288000000000000256e+01,9.496203488126794129e-03
5.292000000000000171e+01,7.749538367215655713e-03
5.296000000000000085e+01,7.563637288525063875e-03
5.300000000000000000e+01,5.751581362556547686e-03
5.303999999999999915e+01,6.605955364383056874e-03
5.307999999999999829e+01,9.216211085027766273e-03
5.311999999999999744e+01,8.184098116771090087e-03
5.315999999999999659e+01,1.085904186281518718e-02
5.320000000000000284e+01,7.420128878998120611e-03
5.324000000000000199e+01,8.858977657356851762e-03
5.328000000000000114e+01,7.631045434251249038e-03
5.332000000000000028e+01,8.224034471656109860e-03
5.335999999999999943e+01,6.215281796361112922e-03
5.339999999999999858e+01,9.214369460770885020e-03
5.343999999999999773e+01,8.180853968331023088e-03
5.347999999999999687e+01,3.765127005279634426e-03
5.352000000000000313e+01,9.170138581874801367e-03
5.356000000000000227e+01,8.851528971499988963e-03
5.360000000000000142e+01,8.727862006743615508e-03
5.364000000000000057e+01,7.693471991727092278e-03
5.367999999999999972e+01,1.082141364913078579e-02
5.371999999999999886e+01,1.030698756611211908e-02
5.375999999999999801e+01,1.044277851774398982e-02
5.379999999999999716e+01,4.399674525693101149e-03
5.384000000000000341e+01,8.047231254543018783e-03
5.388000000000000256e+01,6.166284789180245633e-03
5.392000000000000171e+01,9.618375297040487881e-03
5.396000000000000085e+01,7.541962737151947267e-03
5.400000000000000000e+01,4.619866858391253293e-03
5.403999999999999915e+01,7.095847304850006095e-03
5.407999999999999829e+01,4.758755658562587205e-03
5.411999999999999744e+01,5.283213134234266209e-03
5.415999999999999659e+01,6.392849114575204286e-03
5.420000000000000284e+01,5.811292982295592977e-03
5.424000000000000199e+01,1.043269600449325471e-02
5.428000000000000114e+01,7.509382433478303809e-03
5.432000000000000028e+01,8.683362384293904015e-03
5.435999999999999943e+01,7.385680527809254138e-03
5.439999999999999858e+01,9.339783209710942127e-03
5.443999999999999773e+01,9.797811645285542034e-03
5.447999999999999687e+01,7.068747677948854398e-03
5.452000000000000313e+01,7.266272627191213730e-03
5.456000000000000227e+01,7.528663415017204305e-03
5.460000000000000142e+01,9.221742512971814118e-03
5.464000000000000057e+01,1.058945260217020352e-02
5.467999999999999972e+01,8.509913955414479328e-03
5.471999999999999886e+01,6.365163075568886289e-03
5.475999999999999801e+01,9.618489659117551369e-03
5.479999999999999716e+01,8.514019424199192540e-03
5.484000000000000341e+01,7.344337145886768205e-03
5.488000000000000256e+01,7.930539431829615807e-03
5.492000000000000171e+01,8.581608125443495119e-03
5.496000000000000085e+01,8.061799206248549191e-03
5.500000000000000000e+01,8.127170119593471811e-03
5.503999999999999915e+01,1.072889579772887299e-02
5.507999999999999829e+01,8.257394314713938435e-03
5.511999999999999744e+01,9.037678508260165236e-03
5.515999999999999659e+01,9.102359541261598880e-03
5.520000000000000284e+01,9.622142398361326759e-03
5.524000000000000199e+01,8.320656462269543016e-03
5.528000000000000114e+01,7.084037502936218339e-03
5.532000000000000028e+01,7.603303803409418478e-03
5.535999999999999943e+01,8.707750505509896308e-03
5.539999999999999858e+01,1.013722102326711401e-02
5.543999999999999773e+01,7.729209032673232949e-03
5.547999999999999687e+01,1.175990224045835204e-02
5.552000000000000313e+01,8.831233275926426637e-03
5.556000000000000227e+01,8.894194034304444066e-03
5.560000000000000142e+01,6.485494945572134982e-03
5.564000000000000057e+01,7.523699842317991410e-03
5.567999999999999972e+01,5.960166693816170563e-03
5.571999999999999886e+01,9.144320903268792280e-03
5.575999999999999801e+01,1.187302954985809331e-02
5.579999999999999716e+01,6.991984843747649572e-03
5.584000000000000341e+01,5.037531140870090372e-03
5.588000000000000256e+01,1.017217489169707292e-02
5.592000000000000171e+01,8.737692076330063826e-03
5.596000000000000085e+01,8.668860558676829212e-03
5.600000000000000000e+01,8.339701344453715262e-03
5.603999999999999915e+01,9.116036905205730789e-03
5.607999999999999829e+01,6.184969293918854763e-03
5.611999999999999744e+01,1.014788202882625605e-02
5.615999999999999659e+01,8.712373498342456529e-03
5.620000000000000284e+01,8.252281671160302881e-03
5.624000000000000199e+01,5.645726820081849000e-03
5.628000000000000114e+01,1.090874000263477098e-02
5.632000000000000028e+01,7.781530706895623678e-03
5.635999999999999943e+01,6.735404126496427439e-03
5.639999999999999858e+01,8.876026083779619061e-03
5.643999999999999773e+01,7.634441249614414698e-03
5.647999999999999687e+01,8.018665184380607477e-03
5.652000000000000313e+01,6.386504862475279876e-03
5.656000000000000227e+01,1.093289479700869718e-02
5.660000000000000142e+01,9.300394214094740222e-03
5.664000000000000057e+01,8.903467679236151677e-03
5.667999999999999972e+01,8.116136198149357522e-03
5.671999999999999886e+01,8.109104755477436477e-03
5.675999999999999801e+01,9.467725875157975354e-03
5.679999999999999716e+01,1.167168632201787994e-02
5.684000000000000341e+01,9.387774850638151702e-03
5.688000000000000256e+01,1.042069100032531198e-02
5.692000000000000171e+01,7.681166143543517906e-03
5.696000000000000085e+01,8.193429871991854060e-03
5.700000000000000000e+01,1.020142486678546866e-02
5.703999999999999915e+01,1.064831056302707225e-02
5.707999999999999829e+01,6.867481369623134983e-03
5.711999999999999744e+01,9.525359967107483242e-03
5.715999999999999659e+01,9.191267885122004697e-03
5.720000000000000284e+01,9.767554924935835728e-03
5.724000000000000199e+01,7.091714762541190611e-03
5.728000000000000114e+01,6.692076256722817411e-03
5.732000000000000028e+01,8.763756957614500867e-03
5.735999999999999943e+01,8.233702268999699980e-03
5.739999999999999858e+01,9.784731939755127519e-03
5.743999999999999773e+01,9.774652944277886779e-03
5.747999999999999687e+01,7.813230371996176052e-03
5.752000000000000313e+01,5.526443343657501568e-03
5.756000000000000227e+01,7.271915796635381249e-03
5.760000000000000142e+01,8.301788946216429044e-03
5.764000000000000057e+01,9.981885263945602590e-03
5.767999999999999972e+01,1.179189151464989267e-02
5.771999999999999886e+01,1.516266933217485721e-02
5.775999999999999801e+01,7.346542968830681655e-03
5.779999999999999716e+01,8.245496151839434851e-03
5.784000000000000341e+01,9.209320358450389168e-03
5.788000000000000256e+01,1.101848559950294182e-02
5.792000000000000171e+01,7.038997383565670507e-03
5.796000000000000085e+01,8.392552527276721588e-03
5.800000000000000000e+01,1.130687968043200993e-02
5.803999999999999915e+01,9.798375974606312114e-03
5.807999999999999829e+01,9.330331106283765510e-03
5.811999999999999744e+01,6.715826185965838475e-03
5.815999999999999659e+01,1.132050064817392149e-02
5.820000000000000284e+01,6.104094033377202057e-03
5.824000000000000199e+01,1.161898169180391148e-02
5.828000000000000114e+01,9.068845781806431083e-03
5.832000000000000028e+01,8.014443224808064092e-03
5.835999999999999943e+01,8.780969895543814033e-03
5.839999999999999858e+01,7.466076119208337088e-03
5.843999999999999773e+01,1.193950059740876007e-02
5.847999999999999687e+01,8.608058472547159418e-03
5.852000000000000313e+01,9.243838184267926320e-03
5.856000000000000227e+01,8.838824298655133943e-03
5.860000000000000142e+01,6.482468606732083756e-03
5.864000000000000057e+01,1.082497975771325692e-02
5.867999999999999972e+01,1.074466106142437857e-02
5.871999999999999886e+01,8.647961586220396027e-03
5.875999999999999801e+01,1.019328851548725531e-02
5.879999999999999716e+01,7.185707462578638099e-03
5.884000000000000341e+01,1.094203273103456359e-02
5.888000000000000256e+01,6.893492028747821160e-03
5.892000000000000171e+01,1.260065924011806102e-02
5.896000000000000085e+01,1.245413547622811756e-02
5.900000000000000000e+01,1.113674048595469229e-02
5.903999999999999915e+01,1.066468836384892177e-02
5.907999999999999829e+01,9.151843466424747567e-03
5.911999999999999744e+01,8.549380725932772748e-03
5.915999999999999659e+01,9.182496017107990433e-03
5.920000000000000284e+01,8.969936209562472812e-03
5.924000000000000199e+01,1.142381613076171899e-02
5.928000000000000114e+01,8.674397205562451099e-03
5.932000000000000028e+01,9.306848920878619397e-03
5.935999999999999943e+01,8.118038355892488386e-03
5.939999999999999858e+01,9.465589447977606347e-03
5.943999999999999773e+01,7.886212627113696125e-03
5.947999999999999687e+01,9.038315076686755795e-03
5.952000000000000313e+01,8.434194661185879377e-03
5.956000000000000227e+01,1.114690610329140998e-02
5.960000000000000142e+01,9.957102450866337981e-03
5.964000000000000057e+01,1.136869999720476095e-02
5.967999999999999972e+01,8.617625926273939779e-03
5.971999999999999886e+01,1.002889307578535942e-02
5.975999999999999801e+01,9.618898577313806861e-03
5.979999999999999716e+01,8.493308253201783953e-03
5.984000000000000341e+01,9.253688658706042333e-03
5.988000000000000256e+01,8.973277553530601552e-03
5.992000000000000171e+01,6.156174267993059536e-03
5.996000000000000085e+01,8.802195828301785305e-03
