2.003999999999999915e+01,2.519316647476481374e-02
2.007999999999999829e+01,2.415560289587865422e-02
2.012000000000000099e+01,1.799341647207957501e-02
2.016000000000000014e+01,2.058515095368071077e-02
2.019999999999999929e+01,2.018742306794459040e-02
2.023999999999999844e+01,1.530562035135338457e-02
2.028000000000000114e+01,1.704257779338807025e-02
2.032000000000000028e+01,1.749820117476895073e-02
2.035999999999999943e+01,2.435906854857027709e-02
2.039999999999999858e+01,1.371138130610718465e-02
2.044000000000000128e+01,2.260017554769710307e-02
2.048000000000000043e+01,1.526151141649495502e-02
2.051999999999999957e+01,2.222818522779361830e-02
2.055999999999999872e+01,1.403498085124737539e-02
2.060000000000000142e+01,1.769167963647982206e-02
2.064000000000000057e+01,1.334128808678840261e-02
2.067999999999999972e+01,1.379476965985751251e-02
2.071999999999999886e+01,1.424801298502550995e-02
2.076000000000000156e+01,2.174704793979083048e-02
2.080000000000000071e+01,1.066994744726500882e-02
2.083999999999999986e+01,1.816850563702835514e-02
2.087999999999999901e+01,2.107623010523469731e-02
2.092000000000000171e+01,1.021193028145163557e-02
2.096000000000000085e+01,1.557461233465837029e-02
2.100000000000000000e+01,2.072353970455903180e-02
2.103999999999999915e+01,2.341679372279677207e-02
2.107999999999999829e+01,2.290706813069286543e-02
2.112000000000000099e+01,1.876733075735647488e-02
2.116000000000000014e+01,1.494762863166755780e-02
2.119999999999999929e+01,1.561152484103164526e-02
2.123999999999999844e+01,2.236038977054919177e-02
2.128000000000000114e+01,2.014134124033933881e-02
2.132000000000000028e+01,2.325995511776418959e-02
2.135999999999999943e+01,1.879850980819692055e-02
2.139999999999999858e+01,2.714778884697346614e-02
2.144000000000000128e+01,2.257910712794291078e-02
2.148000000000000043e+01,2.067913686961967215e-02
2.151999999999999957e+01,1.899244334512166510e-02
2.155999999999999872e+01,1.997446117365109935e-02
2.160000000000000142e+01,1.444399978477562199e-02
2.164000000000000057e+01,1.467823248986603948e-02
2.167999999999999972e+01,8.293227840608929924e-03
2.171999999999999886e+01,9.594561704366439889e-03
2.176000000000000156e+01,1.303081650563805115e-02
2.180000000000000071e+01,2.233852321477829833e-02
2.183999999999999986e+01,2.417292812010978648e-02
2.187999999999999901e+01,1.757320890442799072e-02
2.192000000000000171e+01,1.460302282057833814e-02
2.196000000000000085e+01,2.027999719006787216e-02
2.200000000000000000e+01,1.720257318923623310e-02
2.203999999999999915e+01,1.540600551493750275e-02
2.207999999999999829e+01,1.691869666932289268e-02
2.212000000000000099e+01,2.387580718380664241e-02
2.216000000000000014e+01,1.097568406928844248e-02
2.219999999999999929e+01,8.430849553272829269e-03
2.223999999999999844e+01,2.531573606924962180e-02
2.228000000000000114e+01,1.924740594608617683e-02
2.232000000000000028e+01,1.008285257280521104e-02
2.235999999999999943e+01,1.298171605087029314e-02
2.239999999999999858e+01,1.726819340017123061e-02
2.244000000000000128e+01,1.899223748414827911e-02
2.248000000000000043e+01,9.079415761631778881e-03
2.251999999999999957e+01,1.987741104538033945e-02
2.255999999999999872e+01,1.797096012232838116e-02
2.260000000000000142e+01,1.681157462573639599e-02
2.264000000000000057e+01,2.280473625752657899e-02
2.267999999999999972e+01,1.555966137468283925e-02
2.271999999999999886e+01,1.290494081023650479e-02
2.276000000000000156e+01,1.505409056887297044e-02
2.280000000000000071e+01,1.837733760182041695e-02
2.283999999999999986e+01,2.105979535777294243e-02
2.287999999999999901e+01,4.525566691180551125e-03
2.292000000000000171e+01,1.873740924314769990e-02
2.296000000000000085e+01,1.469338752825430881e-02
2.300000000000000000e+01,1.758839639865796695e-02
2.303999999999999915e+01,1.343713396710490698e-02
2.307999999999999829e+01,1.675869215948256122e-02
2.312000000000000099e+01,1.463534938116410611e-02
2.316000000000000014e+01,1.592802200711375404e-02
2.319999999999999929e+01,1.241634173026355190e-02
2.323999999999999844e+01,1.498962748156914583e-02
2.328000000000000114e+01,1.542751095396244394e-02
2.332000000000000028e+01,1.757328114706095332e-02
2.335999999999999943e+01,1.854447121693158715e-02
2.339999999999999858e+01,1.385724388070105895e-02
2.344000000000000128e+01,3.084566967478481834e-03
2.348000000000000043e+01,1.718626890960744599e-02
2.351999999999999957e+01,6.199591958303574471e-03
2.355999999999999872e+01,1.506966637932437812e-02
2.360000000000000142e+01,1.337045377895997554e-02
2.364000000000000057e+01,1.668862637572469249e-02
2.367999999999999972e+01,8.156415492271812048e-03
2.371999999999999886e+01,1.563766671232649438e-02
2.376000000000000156e+01,1.041447011038208574e-02
2.380000000000000071e+01,1.138299681209667055e-02
2.383999999999999986e+01,1.405940953459705947e-02
2.387999999999999901e+01,1.235850055606914008e-02
2.392000000000000171e+01,1.044383296391834977e-02
2.396000000000000085e+01,2.198043444993059634e-02
2.400000000000000000e+01,1.643550859113316817e-02
2.403999999999999915e+01,2.007153053231078982e-02
2.407999999999999829e+01,1.452611918643875039e-02
2.412000000000000099e+01,5.243933992075043744e-03
2.416000000000000014e+01,8.345437314047401620e-03
2.419999999999999929e+01,1.507647069897451696e-02
2.423999999999999844e+01,8.996297586560380449e-03
2.428000000000000114e+01,5.157800049005965663e-03
2.432000000000000028e+01,1.498408716358027443e-02
2.435999999999999943e+01,1.466811835086099039e-02
2.439999999999999858e+01,1.328432604433775477e-02
2.444000000000000128e+01,1.275435471689927679e-02
2.448000000000000043e+01,1.286468825618023760e-02
2.451999999999999957e+01,2.685332223691560063e-02
2.455999999999999872e+01,2.258608979719230539e-02
2.460000000000000142e+01,1.575642118478741416e-02
2.464000000000000057e+01,1.671984518434312811e-02
2.467999999999999972e+01,1.885736392773193493e-02
2.471999999999999886e+01,1.811217224913125659e-02
2.476000000000000156e+01,9.466642719354264462e-03
2.480000000000000071e+01,6.585803030186535879e-03
2.483999999999999986e+01,1.363321626903374328e-02
2.487999999999999901e+01,2.132093383620075125e-02
2.492000000000000171e+01,1.833260457600128027e-02
2.496000000000000085e+01,5.949324785747803386e-03
2.500000000000000000e+01,1.342279442958055000e-02
2.503999999999999915e+01,9.045878762637264356e-03
2.507999999999999829e+01,9.579588325322145950e-03
2.512000000000000099e+01,1.577122926863408145e-02
2.516000000000000014e+01,1.075303291522625680e-02
2.519999999999999929e+01,1.011167148361323716e-02
2.523999999999999844e+01,1.470120915405659714e-02
2.528000000000000114e+01,1.864995426326784833e-02
2.532000000000000028e+01,1.437808667975522085e-02
2.535999999999999943e+01,1.725876256350776169e-02
2.539999999999999858e+01,1.255937382243268660e-02
2.544000000000000128e+01,2.195180034301853766e-02
2.548000000000000043e+01,1.501000373155528776e-02
2.551999999999999957e+01,1.009636496738777062e-02
2.555999999999999872e+01,1.073389896234518311e-02
2.560000000000000142e+01,1.222525237502852802e-02
2.564000000000000057e+01,1.030010398108998845e-02
2.567999999999999972e+01,1.328558000918023466e-02
2.571999999999999886e+01,1.445592456190915830e-02
2.576000000000000156e+01,6.231317507784995581e-03
2.580000000000000071e+01,7.080897855415075638e-03
2.583999999999999986e+01,2.351690533598429014e-02
2.587999999999999901e+01,1.176854789794512003e-02
2.592000000000000171e+01,1.176332843170790031e-02
2.596000000000000085e+01,8.982154903705274682e-03
2.600000000000000000e+01,1.356704004005396605e-02
2.603999999999999915e+01,9.717795456034246382e-03
2.607999999999999829e+01,2.879080590203779953e-03
2.612000000000000099e+01,9.918664012229596455e-03
2.616000000000000014e+01,1.076603616688376168e-02
2.619999999999999929e+01,1.150640466830031572e-02
2.623999999999999844e+01,1.235328552116483729e-02
2.628000000000000114e+01,1.170530823269671193e-02
2.632000000000000028e+01,1.308548771472509142e-02
2.635999999999999943e+01,1.371811515257996029e-02
2.639999999999999858e+01,1.744647954587849603e-02
2.644000000000000128e+01,1.434208411934956469e-02
2.648000000000000043e+01,1.646858612583840253e-02
2.651999999999999957e+01,1.806105193131925593e-02
2.655999999999999872e+01,1.613025666259644553e-02
2.660000000000000142e+01,6.939669241635510952e-03
2.664000000000000057e+01,7.463816267366075313e-03
2.667999999999999972e+01,1.193776410576224273e-02
2.671999999999999886e+01,1.715877182510300303e-02
2.676000000000000156e+01,1.298482659159189319e-02
2.680000000000000071e+01,1.147958565807400549e-02
2.683999999999999986e+01,9.226792034303090903e-03
2.687999999999999901e+01,1.829010297312443079e-02
2.692000000000000171e+01,1.251380125133620680e-02
2.696000000000000085e+01,1.559816931141820746e-02
2.700000000000000000e+01,1.761471037809916526e-02
2.703999999999999915e+01,1.450661928555659411e-02
2.707999999999999829e+01,1.887134343294917874e-02
2.712000000000000099e+01,1.736412910859938541e-02
2.716000000000000014e+01,1.361474925359905733e-02
2.719999999999999929e+01,9.544848340836862080e-03
2.723999999999999844e+01,1.123963398444683542e-02
2.728000000000000114e+01,1.442878496008106852e-02
2.732000000000000028e+01,7.368917995002282825e-03
2.735999999999999943e+01,1.525492794136816023e-02
2.739999999999999858e+01,1.545411254164597535e-02
2.744000000000000128e+01,3.909666630013199605e-03
2.748000000000000043e+01,1.574498178005856452e-02
2.751999999999999957e+01,1.081903893516642130e-02
2.755999999999999872e+01,7.280703016156104580e-03
2.760000000000000142e+01,1.324358419315292343e-02
2.764000000000000057e+01,8.743930940191681905e-03
2.767999999999999972e+01,1.150357606104097409e-02
2.771999999999999886e+01,1.351566730715825400e-02
2.776000000000000156e+01,1.424641447838996544e-02
2.780000000000000071e+01,1.508367190131127723e-02
2.783999999999999986e+01,1.666798769765848523e-02
2.787999999999999901e+01,1.825205560875272151e-02
2.792000000000000171e+01,1.321687776646657785e-02
2.796000000000000085e+01,7.647661784934063969e-03
2.800000000000000000e+01,1.745135397045760248e-02
2.803999999999999915e+01,1.252219001711563952e-02
2.807999999999999829e+01,1.485232389918462320e-02
2.812000000000000099e+01,1.120375993424956550e-02
2.816000000000000014e+01,1.150499478990186022e-02
2.819999999999999929e+01,1.746415688050464987e-02
2.823999999999999844e+01,1.755137899184631631e-02
2.828000000000000114e+01,7.496339899578836202e-03
2.832000000000000028e+01,1.505612715816460716e-02
2.835999999999999943e+01,1.097904069578352695e-02
2.839999999999999858e+01,1.405449360883101809e-02
2.844000000000000128e+01,2.075947087779799610e-02
2.848000000000000043e+01,2.223305602004033155e-02
2.851999999999999957e+01,1.089542890406622680e-02
2.855999999999999872e+01,2.069564278157483284e-02
2.860000000000000142e+01,7.649389542493122834e-03
2.864000000000000057e+01,1.317878448690937981e-02
2.867999999999999972e+01,1.016728812825740992e-02
2.871999999999999886e+01,1.260020224611124381e-02
2.876000000000000156e+01,1.449907714791955245e-02
2.880000000000000071e+01,6.682722263250086975e-03
2.883999999999999986e+01,1.957717587813287072e-02
2.887999999999999901e+01,2.606589850600164390e-02
2.892000000000000171e+01,9.814911615823224827e-03
2.896000000000000085e+01,1.822478014639711263e-02
2.900000000000000000e+01,7.631470075438405096e-03
2.903999999999999915e+01,1.145024450833277002e-02
2.907999999999999829e+01,1.804447820160571397e-02
2.912000000000000099e+01,1.769919043851150495e-02
2.916000000000000014e+01,1.340360598456580808e-02
2.919999999999999929e+01,8.573981722335130562e-03
2.923999999999999844e+01,1.143068585120749631e-02
2.928000000000000114e+01,1.151143144959828127e-02
2.932000000000000028e+01,1.767713489247164579e-02
2.935999999999999943e+01,1.733034867298895859e-02
2.939999999999999858e+01,5.453445361963240971e-03
2.944000000000000128e+01,7.348077840814777779e-03
2.948000000000000043e+01,1.020328254417948201e-02
2.951999999999999957e+01,1.305823715485303869e-02
2.955999999999999872e+01,2.007650476024091038e-02
2.960000000000000142e+01,2.399853931663939455e-02
2.964000000000000057e+01,1.361474769762490399e-02
2.967999999999999972e+01,1.582815322355824589e-02
2.971999999999999886e+01,1.377098721709263222e-02
2.976000000000000156e+01,1.224736094120965763e-02
2.980000000000000071e+01,1.008293602017972315e-02
2.983999999999999986e+01,1.635214488749234946e-02
2.987999999999999901e+01,1.760347580220738423e-02
2.992000000000000171e+01,1.106121994965447893e-02
2.996000000000000085e+01,1.241880757761091268e-02
3.000000000000000000e+01,1.740591746172858584e-02
3.003999999999999915e+01,1.513323056337201843e-02
3.007999999999999829e+01,1.264677676003955580e-02
3.012000000000000099e+01,7.170847237061011605e-03
3.016000000000000014e+01,1.567996859336596646e-02
3.019999999999999929e+01,1.650226083478609565e-02
3.023999999999999844e+01,1.134585237568460671e-02
3.028000000000000114e+01,1.921367237098244724e-02
3.032000000000000028e+01,1.597840615346907134e-02
3.035999999999999943e+01,7.298229220227804570e-03
3.039999999999999858e+01,1.303013496028108432e-02
3.044000000000000128e+01,1.150224337946060757e-02
3.048000000000000043e+01,1.456469567208622598e-02
3.051999999999999957e+01,4.709174985234964791e-03
3.055999999999999872e+01,9.158978727055802627e-03
3.060000000000000142e+01,7.630081283795422421e-03
3.064000000000000057e+01,6.634722386638695901e-03
3.067999999999999972e+01,1.215135162045699602e-02
3.071999999999999886e+01,9.767634980945559889e-03
3.076000000000000156e+01,6.636360374865513632e-03
3.080000000000000071e+01,1.012383176750329163e-02
3.083999999999999986e+01,1.083534252990121620e-02
3.087999999999999901e+01,1.208039151536305887e-02
3.092000000000000171e+01,6.706190709447836309e-03
3.096000000000000085e+01,7.737219628365253100e-03
3.100000000000000000e+01,5.244981496844036521e-03
3.103999999999999915e+01,1.759185729422894570e-02
3.107999999999999829e+01,6.558472490632892907e-03
3.112000000000000099e+01,5.453332162178716608e-03
3.116000000000000014e+01,1.982785377668703358e-02
3.119999999999999929e+01,1.854440170627536574e-03
3.123999999999999844e+01,9.609459209069933991e-03
3.128000000000000114e+01,7.435729064431976544e-03
3.132000000000000028e+01,7.183390931033589201e-03
3.135999999999999943e+01,8.852444755034712814e-03
3.139999999999999858e+01,1.532535727268845641e-02
3.144000000000000128e+01,1.186952039190199149e-02
3.148000000000000043e+01,8.413430780266635545e-03
3.151999999999999957e+01,4.423298237628906122e-03
3.155999999999999872e+01,4.809992056233136984e-03
3.160000000000000142e+01,4.235610719104285563e-03
3.164000000000000057e+01,9.425910015952550930e-03
3.167999999999999972e+01,1.002536105445599873e-02
3.171999999999999886e+01,1.297323568285023432e-02
3.176000000000000156e+01,8.661311213652198027e-03
3.180000000000000071e+01,8.299180665605580820e-03
3.183999999999999986e+01,7.403006755836951357e-03
3.187999999999999901e+01,6.186305489031750440e-03
3.192000000000000171e+01,9.346430098908908163e-03
3.196000000000000085e+01,5.460271400519401547e-03
3.200000000000000000e+01,5.310390295556164514e-03
3.203999999999999915e+01,8.790028700916472509e-03
3.207999999999999829e+01,1.088155918741342057e-02
3.211999999999999744e+01,6.887628413648224854e-03
3.215999999999999659e+01,7.270523193525653058e-03
3.220000000000000284e+01,1.224375953173116767e-02
3.224000000000000199e+01,6.327423131333063770e-03
3.228000000000000114e+01,7.456862854625268856e-03
3.232000000000000028e+01,1.221582171136136735e-02
3.235999999999999943e+01,0.000000000000000000e+00
3.239999999999999858e+01,1.137744878652780997e-02
3.243999999999999773e+01,1.250587274082846229e-02
3.247999999999999687e+01,1.843815393510288281e-02
3.252000000000000313e+01,1.123894339937733626e-02
3.256000000000000227e+01,5.213817001013777534e-03
3.260000000000000142e+01,1.125209367096787622e-02
3.264000000000000057e+01,1.536847152198577045e-02
3.267999999999999972e+01,7.634453778796214396e-03
3.271999999999999886e+01,1.826256266890385546e-02
3.275999999999999801e+01,7.005021106430166927e-03
3.279999999999999716e+01,1.805965315229374202e-02
3.284000000000000341e+01,2.142745252983541127e-02
3.288000000000000256e+01,1.048942137092775603e-02
3.292000000000000171e+01,1.407022752266024607e-02
3.296000000000000085e+01,1.551561836621146752e-02
3.300000000000000000e+01,4.149790921471320677e-03
3.303999999999999915e+01,1.509613676202863249e-02
3.307999999999999829e+01,1.269747406030117751e-02
3.311999999999999744e+01,1.147289474217638369e-02
3.315999999999999659e+01,1.932249291925420762e-02
3.320000000000000284e+01,1.340005027547658961e-02
3.324000000000000199e+01,1.420310837544225095e-02
3.328000000000000114e+01,1.319102482429509830e-02
3.332000000000000028e+01,9.830009421881719459e-03
3.335999999999999943e+01,6.682254816666920172e-03
3.339999999999999858e+01,1.132758103246262957e-02
3.343999999999999773e+01,8.819863918650664922e-03
3.347999999999999687e+01,1.143627678660168179e-02
3.352000000000000313e+01,1.512001447049315592e-02
3.356000000000000227e+01,1.698861012639214102e-02
3.360000000000000142e+01,1.394608085184034091e-02
3.364000000000000057e+01,1.207763426097179307e-02
3.367999999999999972e+01,1.191706044626007939e-02
3.371999999999999886e+01,1.463869767575489561e-02
3.375999999999999801e+01,2.184391633455688014e-02
3.379999999999999716e+01,3.853984233795007628e-03
3.384000000000000341e+01,9.777594780472045194e-03
3.388000000000000256e+01,8.227887317513784063e-03
3.392000000000000171e+01,1.970240340951894334e-02
3.396000000000000085e+01,1.345483057498957254e-02
3.400000000000000000e+01,1.553412790018484681e-02
3.403999999999999915e+01,1.248878364416447680e-02
3.407999999999999829e+01,1.061752147958783081e-02
3.411999999999999744e+01,1.066764755745389093e-02
3.415999999999999659e+01,9.222904887516269329e-03
3.420000000000000284e+01,8.631970059714411461e-03
3.424000000000000199e+01,1.113676163472514767e-02
3.428000000000000114e+01,1.513590911976793116e-02
3.432000000000000028e+01,1.977534822690123206e-02
3.435999999999999943e+01,1.587388838569279634e-02
3.439999999999999858e+01,1.197217188331871872e-02
3.443999999999999773e+01,1.127293954382015476e-02
3.447999999999999687e+01,1.068020846473875622e-02
3.452000000000000313e+01,6.457447568040066213e-03
3.456000000000000227e+01,1.269671666256068192e-02
3.460000000000000142e+01,7.512619695606872344e-03
3.464000000000000057e+01,8.840505529472518151e-03
3.467999999999999972e+01,9.207312061928568658e-03
3.471999999999999886e+01,1.202929617554151197e-02
3.475999999999999801e+01,1.122125014849740220e-02
3.479999999999999716e+01,1.094673706820165245e-02
3.484000000000000341e+01,1.504904593427157898e-02
3.488000000000000256e+01,9.115842742402468363e-03
3.492000000000000171e+01,9.587863945210448394e-03
3.496000000000000085e+01,1.336912664023720033e-02
3.500000000000000000e+01,1.159871434483856004e-02
3.503999999999999915e+01,1.463215584365660897e-02
3.507999999999999829e+01,7.523326986073182628e-03
3.511999999999999744e+01,1.354547809751721794e-02
3.515999999999999659e+01,1.241458356423554531e-02
3.520000000000000284e+01,1.501996231718373716e-02
3.524000000000000199e+01,1.175339166887866271e-02
3.528000000000000114e+01,1.254336828691164467e-02
3.532000000000000028e+01,1.130468444946873888e-02
3.535999999999999943e+01,1.508337003404828548e-02
3.539999999999999858e+01,1.768745928957365585e-02
3.543999999999999773e+01,1.580745325506112062e-02
3.547999999999999687e+01,1.563531757390743474e-02
3.552000000000000313e+01,1.567643978259481222e-02
3.556000000000000227e+01,8.457757778894224934e-03
3.560000000000000142e+01,2.323097152694587539e-02
3.564000000000000057e+01,1.814693350193082033e-02
3.567999999999999972e+01,2.256410169725209941e-02
3.571999999999999886e+01,1.587817641136824928e-02
3.575999999999999801e+01,2.456514884758940337e-02
3.579999999999999716e+01,2.449770433870498976e-02
3.584000000000000341e+01,1.941237385506963675e-02
3.588000000000000256e+01,2.105254056174055144e-02
3.592000000000000171e+01,3.208715513644532641e-02
3.596000000000000085e+01,3.073757955575286832e-02
3.600000000000000000e+01,2.020655464370428936e-02
3.603999999999999915e+01,2.536870116466908437e-02
3.607999999999999829e+01,2.700757379752105267e-02
3.611999999999999744e+01,1.967851299602238133e-02
3.615999999999999659e+01,1.693978842269630233e-02
3.620000000000000284e+01,2.210089893084656032e-02
3.624000000000000199e+01,2.736850833045601297e-02
3.628000000000000114e+01,2.430873225593125839e-02
3.632000000000000028e+01,2.605280825274463793e-02
3.635999999999999943e+01,2.309927166267576257e-02
3.639999999999999858e+01,2.249415236322297243e-02
3.643999999999999773e+01,1.954009701298745419e-02
3.647999999999999687e+01,1.690605628969682472e-02
3.652000000000000313e+01,2.217185021716287091e-02
3.656000000000000227e+01,2.060487070329285533e-02
3.660000000000000142e+01,2.875261222996560243e-02
3.664000000000000057e+01,2.611753312490236456e-02
3.667999999999999972e+01,2.198758188011833148e-02
3.671999999999999886e+01,2.362230443163716720e-02
3.675999999999999801e+01,2.621758940879740513e-02
3.679999999999999716e+01,2.294092288494617438e-02
3.684000000000000341e+01,2.446810773251364632e-02
3.688000000000000256e+01,2.919777345871939558e-02
3.692000000000000171e+01,3.435421124889316558e-02
3.696000000000000085e+01,2.947513418145031316e-02
3.700000000000000000e+01,3.089452067974415503e-02
3.703999999999999915e+01,3.711775828025697804e-02
3.707999999999999829e+01,3.170411042269277724e-02
3.711999999999999744e+01,3.600518290575182440e-02
3.715999999999999659e+01,3.592891581291767639e-02
3.720000000000000284e+01,4.001595143136644356e-02
3.724000000000000199e+01,3.929861524919125298e-02
3.728000000000000114e+01,4.520001634366122706e-02
3.732000000000000028e+01,4.715110976392893061e-02
3.735999999999999943e+01,5.209116735822998806e-02
3.739999999999999858e+01,5.425525549253862323e-02
3.743999999999999773e+01,5.962182375172613708e-02
3.747999999999999687e+01,6.957872646236769321e-02
3.752000000000000313e+01,7.056769385426028829e-02
3.756000000000000227e+01,7.486589923877454145e-02
3.760000000000000142e+01,7.478676445515607119e-02
3.764000000000000057e+01,9.552518435556246745e-02
3.767999999999999972e+01,9.331036688844612792e-02
3.771999999999999886e+01,1.029454295396078356e-01
3.775999999999999801e+01,1.241100981674194276e-01
3.779999999999999716e+01,1.367338632166532342e-01
3.784000000000000341e+01,1.472222063892312527e-01
3.788000000000000256e+01,1.732969604889220416e-01
3.792000000000000171e+01,2.015066137747852093e-01
3.796000000000000085e+01,2.330255045148706128e-01
3.800000000000000000e+01,2.798105319327607310e-01
3.803999999999999915e+01,3.349224240725401369e-01
3.807999999999999829e+01,4.041261144605546307e-01
3.811999999999999744e+01,5.005528406422766752e-01
3.815999999999999659e+01,6.159822343106382547e-01
3.820000000000000284e+01,7.195612249548785089e-01
3.824000000000000199e+01,8.394739322465107900e-01
3.828000000000000114e+01,9.290670973438949209e-01
3.832000000000000028e+01,9.968813625342067830e-01
3.835999999999999943e+01,1.000000000000000000e+00
3.839999999999999858e+01,9.400243801263757915e-01
3.843999999999999773e+01,8.892296886703430214e-01
3.847999999999999687e+01,7.532418277098332782e-01
3.852000000000000313e+01,6.334809249905734019e-01
3.856000000000000227e+01,5.424376698824592280e-01
3.860000000000000142e+01,4.317506750756469613e-01
3.864000000000000057e+01,3.592827923766812037e-01
3.867999999999999972e+01,2.957823217137416916e-01
3.871999999999999886e+01,2.679387703486635908e-01
3.875999999999999801e+01,2.159676418404943843e-01
3.879999999999999716e+01,1.774477624358648808e-01
3.884000000000000341e+01,1.564359371929178455e-01
3.888000000000000256e+01,1.399076864877637494e-01
3.892000000000000171e+01,1.166534171939789533e-01
3.896000000000000085e+01,1.172059256268561528e-01
3.900000000000000000e+01,9.886200002747481952e-02
3.903999999999999915e+01,9.909370861320314361e-02
3.907999999999999829e+01,8.843583525369559661e-02
3.911999999999999744e+01,7.510874814834030133e-02
3.915999999999999659e+01,6.978825016956737015e-02
3.920000000000000284e+01,6.638913359556289362e-02
3.924000000000000199e+01,5.903970676303832432e-02
3.928000000000000114e+01,5.926983677852548649e-02
3.932000000000000028e+01,5.949970351053261719e-02
3.935999999999999943e+01,6.282528975383808167e-02
3.939999999999999858e+01,5.504777756266265865e-02
3.943999999999999773e+01,5.976069135022339662e-02
3.947999999999999687e+01,6.361927740484266125e-02
3.952000000000000313e+01,5.520042654157145817e-02
3.956000000000000227e+01,6.663830551464294816e-02
3.960000000000000142e+01,5.565673468218741010e-02
3.964000000000000057e+01,5.791289576410717233e-02
3.967999999999999972e+01,5.878093869757219231e-02
3.971999999999999886e+01,6.167712036514897550e-02
3.975999999999999801e+01,5.411075128926141897e-02
3.979999999999999716e+01,4.398192558150957471e-02
3.984000000000000341e+01,4.250023626063707816e-02
3.988000000000000256e+01,3.952367049284735701e-02
3.992000000000000171e+01,4.700912750172304977e-02
3.996000000000000085e+01,3.367650465945261351e-02
4.000000000000000000e+01,3.806545047603134002e-02
4.003999999999999915e+01,3.967842327918064127e-02
4.007999999999999829e+01,4.502766280008530658e-02
4.011999999999999744e+01,4.034138321001685956e-02
4.015999999999999659e+01,3.042369577195699545e-02
4.020000000000000284e+01,3.790730263575840808e-02
4.024000000000000199e+01,3.460808402222797370e-02
4.028000000000000114e+01,3.397755156462611142e-02
4.032000000000000028e+01,3.259944827270647161e-02
4.035999999999999943e+01,2.759130730253607500e-02
4.039999999999999858e+01,2.888162532170627378e-02
4.043999999999999773e+01,2.472701905747992299e-02
4.047999999999999687e+01,2.921954831869365277e-02
4.052000000000000313e+01,2.260897763790775672e-02
4.056000000000000227e+01,2.400499419930585132e-02
4.060000000000000142e+01,2.508047166655721916e-02
4.064000000000000057e+01,3.875313152660882915e-02
4.067999999999999972e+01,3.406314523943727163e-02
4.071999999999999886e+01,4.047572882770823083e-02
4.075999999999999801e+01,3.183516506821986586e-02
4.079999999999999716e+01,3.867425027626486544e-02
4.084000000000000341e+01,3.206155846781114094e-02
4.088000000000000256e+01,4.434477245561730535e-02
4.092000000000000171e+01,4.040050055841460513e-02
4.096000000000000085e+01,4.211413872121692187e-02
4.100000000000000000e+01,4.617618798304049671e-02
4.103999999999999915e+01,5.322719646562164980e-02
4.107999999999999829e+01,4.896158819391838168e-02
4.111999999999999744e+01,4.982009962054679414e-02
4.115999999999999659e+01,5.420136025272641322e-02
4.120000000000000284e+01,4.342271491564449193e-02
4.124000000000000199e+01,5.047239459763584041e-02
4.128000000000000114e+01,4.748655360729543695e-02
4.132000000000000028e+01,4.631533313894318354e-02
4.135999999999999943e+01,3.863160685624839746e-02
4.139999999999999858e+01,4.834917326021628825e-02
4.143999999999999773e+01,3.404591694307868011e-02
4.147999999999999687e+01,3.490203459040710360e-02
4.152000000000000313e+01,2.892537212024506518e-02
4.156000000000000227e+01,2.358899152714174011e-02
4.160000000000000142e+01,2.326997195702793994e-02
4.164000000000000057e+01,2.070876736619999339e-02
4.167999999999999972e+01,1.921487660796167285e-02
4.171999999999999886e+01,1.804099342363413988e-02
4.175999999999999801e+01,2.081689075430925850e-02
4.179999999999999716e+01,1.579918532724996702e-02
4.184000000000000341e+01,1.878806541949608680e-02
4.188000000000000256e+01,1.526443899748028583e-02
4.192000000000000171e+01,1.419598046542950957e-02
4.196000000000000085e+01,1.067182042341952193e-02
4.200000000000000000e+01,1.259205298305032285e-02
4.203999999999999915e+01,1.622014706628738256e-02
4.207999999999999829e+01,1.621820115615568367e-02
4.211999999999999744e+01,1.536192395964549803e-02
4.215999999999999659e+01,1.578647600817089866e-02
4.220000000000000284e+01,1.791888936494274998e-02
4.224000000000000199e+01,1.503340813257090375e-02
4.228000000000000114e+01,2.164912423694278359e-02
4.232000000000000028e+01,1.481306133273762107e-02
4.235999999999999943e+01,2.100121062326544899e-02
4.239999999999999858e+01,1.747411182173087482e-02
4.243999999999999773e+01,2.867935357545261382e-02
4.247999999999999687e+01,2.130843070062782632e-02
4.252000000000000313e+01,1.575212673259254043e-02
4.256000000000000227e+01,1.435911826128622934e-02
4.260000000000000142e+01,1.723616326213166586e-02
4.264000000000000057e+01,2.032645656930623032e-02
4.267999999999999972e+01,1.434204958311487664e-02
4.271999999999999886e+01,1.422906634649594160e-02
4.275999999999999801e+01,1.657124986920300788e-02
4.279999999999999716e+01,1.816585921951506533e-02
4.284000000000000341e+01,1.890613631432941366e-02
4.288000000000000256e+01,1.665692051455214956e-02
4.292000000000000171e+01,1.814396760989345214e-02
4.296000000000000085e+01,1.098334615204001920e-02
4.300000000000000000e+01,2.207807946135264404e-02
4.303999999999999915e+01,2.206970943674848099e-02
4.307999999999999829e+01,1.949887836540372191e-02
4.311999999999999744e+01,1.735481101283399552e-02
4.315999999999999659e+01,2.311056937358852217e-02
4.320000000000000284e+01,2.032541688737126914e-02
4.324000000000000199e+01,2.704146044573883453e-02
4.328000000000000114e+01,2.543010910798011726e-02
4.332000000000000028e+01,2.050899019560214337e-02
4.335999999999999943e+01,2.145929417135728628e-02
4.339999999999999858e+01,3.457974470790496635e-02
4.343999999999999773e+01,2.752265888480669512e-02
4.347999999999999687e+01,2.857891440283839499e-02
4.352000000000000313e+01,3.016869113050829956e-02
4.356000000000000227e+01,3.923126091605211307e-02
4.360000000000000142e+01,3.687045252613162238e-02
4.364000000000000057e+01,3.568371335990570825e-02
4.367999999999999972e+01,4.357113752897431858e-02
4.371999999999999886e+01,5.359345307742190839e-02
4.375999999999999801e+01,4.856261724011354947e-02
4.379999999999999716e+01,5.100457413763932052e-02
4.384000000000000341e+01,5.269895546293126842e-02
4.388000000000000256e+01,5.449982539625103373e-02
4.392000000000000171e+01,6.035723096647860331e-02
4.396000000000000085e+01,6.941710788567244383e-02
4.400000000000000000e+01,7.484694222717969136e-02
4.403999999999999915e+01,8.945769744868453666e-02
4.407999999999999829e+01,9.179100961454407515e-02
4.411999999999999744e+01,1.059741932842888784e-01
4.415999999999999659e+01,1.105488845222759725e-01
4.420000000000000284e+01,1.304964621221375576e-01
4.424000000000000199e+01,1.369922581291042885e-01
4.428000000000000114e+01,1.536297969563932275e-01
4.432000000000000028e+01,1.711211300043093964e-01
4.435999999999999943e+01,1.944838845943598071e-01
4.439999999999999858e+01,2.073840821955112157e-01
4.443999999999999773e+01,2.250881209384898718e-01
4.447999999999999687e+01,2.428986474818970454e-01
4.452000000000000313e+01,2.579331949817998959e-01
4.456000000000000227e+01,2.722201659403496454e-01
4.460000000000000142e+01,2.631268581000137385e-01
4.464000000000000057e+01,2.584103590152544982e-01
4.467999999999999972e+01,2.526260091398343510e-01
4.471999999999999886e+01,2.278384595037794003e-01
4.475999999999999801e+01,2.191711016806784096e-01
4.479999999999999716e+01,1.839207239116109893e-01
4.484000000000000341e+01,1.723703579254694529e-01
4.488000000000000256e+01,1.505709503628748225e-01
4.492000000000000171e+01,1.342159314716043217e-01
4.496000000000000085e+01,1.129497723593358427e-01
4.500000000000000000e+01,9.648745363513534790e-02
4.503999999999999915e+01,9.038039276682328926e-02
4.507999999999999829e+01,8.085680392567126673e-02
4.511999999999999744e+01,6.407339800438208166e-02
4.515999999999999659e+01,6.629265014774031461e-02
4.520000000000000284e+01,5.687500590351069613e-02
4.524000000000000199e+01,5.514366851440224981e-02
4.528000000000000114e+01,5.234447952703347867e-02
4.532000000000000028e+01,4.495442392189529651e-02
4.535999999999999943e+01,4.023304763501145409e-02
4.539999999999999858e+01,3.476409367613553930e-02
4.543999999999999773e+01,3.260436710341024086e-02
4.547999999999999687e+01,3.610254450677505278e-02
4.552000000000000313e+01,3.746528969621282235e-02
4.556000000000000227e+01,2.612355772087612132e-02
4.560000000000000142e+01,2.599114708177012803e-02
4.564000000000000057e+01,2.692604494509824239e-02
4.567999999999999972e+01,2.689984870102922476e-02
4.571999999999999886e+01,2.121520500816424099e-02
4.575999999999999801e+01,2.001412659261994631e-02
4.579999999999999716e+01,2.244254916645478659e-02
4.584000000000000341e+01,1.633005733988085115e-02
4.588000000000000256e+01,2.441611129201361891e-02
4.592000000000000171e+01,2.193284818006631734e-02
4.596000000000000085e+01,1.272355700365631129e-02
4.600000000000000000e+01,2.080879429305147743e-02
4.603999999999999915e+01,2.440992202482070855e-02
4.607999999999999829e+01,1.733497444788743500e-02
4.611999999999999744e+01,1.517062378076606578e-02
4.615999999999999659e+01,1.450061303321020963e-02
4.620000000000000284e+01,2.269124617050633647e-02
4.624000000000000199e+01,1.572196655470661439e-02
4.628000000000000114e+01,1.078081684326607018e-02
4.632000000000000028e+01,1.822332582082676969e-02
4.635999999999999943e+01,1.723167772732197775e-02
4.639999999999999858e+01,1.068833929900466807e-02
4.643999999999999773e+01,1.375295063733850999e-02
4.647999999999999687e+01,1.372130620622206802e-02
4.652000000000000313e+01,1.144747018591699660e-02
4.656000000000000227e+01,7.892264785947665853e-03
4.660000000000000142e+01,1.341121879095616767e-02
4.664000000000000057e+01,1.199062775769727841e-02
4.667999999999999972e+01,1.185085988555910179e-02
4.671999999999999886e+01,1.534059176448112141e-02
4.675999999999999801e+01,3.883926248913296009e-03
4.679999999999999716e+01,1.228398082465637087e-02
4.684000000000000341e+01,1.107553936136478935e-02
4.688000000000000256e+01,1.435066166787517597e-02
4.692000000000000171e+01,8.871352061772589531e-03
4.696000000000000085e+01,1.577570028323197274e-02
4.700000000000000000e+01,1.584726101112712490e-02
4.703999999999999915e+01,1.111443674760939464e-02
4.707999999999999829e+01,1.235978839437168464e-02
4.711999999999999744e+01,1.275080202476115004e-02
4.715999999999999659e+01,1.089962320452269456e-02
4.720000000000000284e+01,5.845429616452077828e-03
4.724000000000000199e+01,1.360192559611456131e-02
4.728000000000000114e+01,1.228371509081636892e-02
4.732000000000000028e+01,1.619637396791957090e-02
4.735999999999999943e+01,6.870763111136832593e-03
4.739999999999999858e+01,1.302479233829492711e-02
4.743999999999999773e+01,7.328406104302283806e-03
4.747999999999999687e+01,1.220079050048628565e-02
4.752000000000000313e+01,1.333636955180496700e-02
4.756000000000000227e+01,9.881078970316764173e-03
4.760000000000000142e+01,1.325802783329078395e-02
4.764000000000000057e+01,1.183059089725261269e-02
4.767999999999999972e+01,1.189749183486165512e-02
4.771999999999999886e+01,7.160006865778603333e-03
4.775999999999999801e+01,8.827729008747160419e-03
4.779999999999999716e+01,1.124248265900417744e-02
4.784000000000000341e+01,1.461778382123509606e-02
4.788000000000000256e+01,1.318869886141408633e-02
4.792000000000000171e+01,1.101203283768386124e-02
4.796000000000000085e+01,1.876358862247459042e-02
4.800000000000000000e+01,1.231605154857582339e-02
4.803999999999999915e+01,1.173993106353547061e-02
4.807999999999999829e+01,1.724874317203894600e-02
4.811999999999999744e+01,1.240175131379029315e-02
4.815999999999999659e+01,1.545457843887150344e-02
4.820000000000000284e+01,1.284895477707955098e-02
4.824000000000000199e+01,1.195118429370087797e-02
4.828000000000000114e+01,1.724510416392897871e-02
4.832000000000000028e+01,9.941301183688433865e-03
4.835999999999999943e+01,1.854416911228060072e-02
4.839999999999999858e+01,1.380200787788530940e-02
4.843999999999999773e+01,1.044742546491540976e-02
4.847999999999999687e+01,1.392508131192873345e-02
4.852000000000000313e+01,1.153076988282385196e-02
4.856000000000000227e+01,1.084431120141259031e-02
4.860000000000000142e+01,1.763063879404089609e-02
4.864000000000000057e+01,1.043138872506580578e-02
4.867999999999999972e+01,6.434603651942301904e-03
4.871999999999999886e+01,8.095718193872570786e-03
4.875999999999999801e+01,9.009250541254575778e-03
4.879999999999999716e+01,1.066981304992616411e-02
4.884000000000000341e+01,7.525988144386912097e-03
4.888000000000000256e+01,5.235951321720053349e-03
4.892000000000000171e+01,6.575411288915853671e-03
4.896000000000000085e+01,8.555143172778740396e-03
4.900000000000000000e+01,9.253502392740095908e-03
4.903999999999999915e+01,1.144619765579024846e-02
4.907999999999999829e+01,7.980440947488212991e-03
4.911999999999999744e+01,6.756326379433956475e-03
4.915999999999999659e+01,1.204417506829557998e-02
4.920000000000000284e+01,1.081950739018353556e-02
4.924000000000000199e+01,1.311757804195183563e-02
4.928000000000000114e+01,1.328021141883730522e-02
4.932000000000000028e+01,1.045334323289843007e-02
4.935999999999999943e+01,9.227568688591401141e-03
4.939999999999999858e+01,8.535307439449217257e-03
4.943999999999999773e+01,1.061847804614868274e-02
4.947999999999999687e+01,1.152703337212987282e-02
4.952000000000000313e+01,1.659887482668795378e-02
4.956000000000000227e+01,1.430413519561115482e-02
4.960000000000000142e+01,1.019423194672000425e-02
4.964000000000000057e+01,1.110167889898747845e-02
4.967999999999999972e+01,1.232912271101471724e-02
4.971999999999999886e+01,1.419683741674990056e-02
4.975999999999999801e+01,7.737148504286140739e-03
4.979999999999999716e+01,5.547503372782239608e-03
4.984000000000000341e+01,2.183242476000474448e-03
4.988000000000000256e+01,7.466104452269440965e-03
4.992000000000000171e+01,1.360275311157197083e-02
4.996000000000000085e+01,1.173227197126389294e-02
5.000000000000000000e+01,1.082233543557216404e-02
5.003999999999999915e+01,9.058056953190894364e-03
5.007999999999999829e+01,1.049624158226280385e-02
5.011999999999999744e+01,4.888118459728588855e-03
5.015999999999999659e+01,6.432505423687609122e-03
5.020000000000000284e+01,1.320775789357123663e-02
5.024000000000000199e+01,7.598800987193850276e-03
5.028000000000000114e+01,8.501805830213563994e-03
5.032000000000000028e+01,1.516946616395158272e-02
5.035999999999999943e+01,7.744788491705462651e-03
5.039999999999999858e+01,9.714539197429540932e-03
5.043999999999999773e+01,9.655609096174841421e-03
5.047999999999999687e+01,7.995030251152198189e-03
5.052000000000000313e+01,9.323397866817824745e-03
5.056000000000000227e+01,3.925731226425937907e-03
5.060000000000000142e+01,7.815734665541789611e-03
5.064000000000000057e+01,9.677057028479081266e-03
5.067999999999999972e+01,6.627231471304896072e-03
5.071999999999999886e+01,6.032561959305727389e-03
5.075999999999999801e+01,1.034848311168372337e-02
5.079999999999999716e+01,1.114111056284549685e-02
5.084000000000000341e+01,1.075912090273056267e-02
5.088000000000000256e+01,1.443365751137130372e-02
5.092000000000000171e+01,7.965902442988479631e-03
5.096000000000000085e+01,6.622253828308463305e-03
5.100000000000000000e+01,1.243111416948261203e-02
5.103999999999999915e+01,1.428964836935003174e-02
5.107999999999999829e+01,1.145055016923184760e-02
5.111999999999999744e+01,1.192067170999069198e-02
5.115999999999999659e+01,9.614805269812669308e-03
5.120000000000000284e+01,1.243304496029770841e-02
5.124000000000000199e+01,1.300908670847946216e-02
5.128000000000000114e+01,1.038210819715365205e-02
5.132000000000000028e+01,1.213192945013213953e-02
5.135999999999999943e+01,1.163955259928748341e-02
5.139999999999999858e+01,1.274826664423695660e-02
5.143999999999999773e+01,1.172154050694605015e-02
5.147999999999999687e+01,1.026750260177809911e-02
5.152000000000000313e+01,1.073482951867250033e-02
5.156000000000000227e+01,5.650459155400216170e-03
5.160000000000000142e+01,1.337677249130601702e-02
5.164000000000000057e+01,9.999970917704697343e-03
5.167999999999999972e+01,8.117501833755164792e-03
5.171999999999999886e+01,1.050507394644768777e-02
5.175999999999999801e+01,6.380126246409416162e-03
5.179999999999999716e+01,6.525219635333306435e-03
5.184000000000000341e+01,9.659257708226964140e-03
5.188000000000000256e+01,1.151191924074235033e-02
5.192000000000000171e+01,1.304402644240383775e-02
5.196000000000000085e+01,7.850097503609394095e-03
5.200000000000000000e+01,8.100547706467047665e-03
5.203999999999999915e+01,1.614405364091624565e-02
5.207999999999999829e+01,1.287092801509346143e-02
5.211999999999999744e+01,1.119889231594566395e-02
5.215999999999999659e+01,1.112794648963285130e-02
5.220000000000000284e+01,1.244457442378967861e-02
5.224000000000000199e+01,9.597358542915738686e-03
5.228000000000000114e+01,1.336885974870392728e-02
5.232000000000000028e+01,8.919711919798723604e-03
5.235999999999999943e+01,1.151631318692653873e-02
5.239999999999999858e+01,9.522038306612959010e-03
5.243999999999999773e+01,1.596136679506758235e-02
5.247999999999999687e+01,1.151109530190148715e-02
5.252000000000000313e+01,7.167300787333025745e-03
5.256000000000000227e+01,1.040304524591126149e-02
5.260000000000000142e+01,1.086279978531424703e-02
5.264000000000000057e+01,9.614144644329048264e-03
5.267999999999999972e+01,9.646304588471319927e-03
5.271999999999999886e+01,8.076812773808204199e-03
5.275999999999999801e+01,1.013681258037206663e-02
5.279999999999999716e+01,1.465196563243333604e-02
5.284000000000000341e+01,9.238340481678554081e-03
5.288000000000000256e+01,9.802883434410367136e-03
5.292000000000000171e+01,1.314285355890778759e-02
5.296000000000000085e+01,1.071760846031469781e-02
5.300000000000000000e+01,1.224212874769698388e-02
5.303999999999999915e+01,1.376636728449476786e-02
5.307999999999999829e+01,1.112676087562268837e-02
5.311999999999999744e+01,1.147609742784182381e-02
5.315999999999999659e+01,7.875104985236655239e-03
5.320000000000000284e+01,7.369813425305465557e-03
5.324000000000000199e+01,1.668597853775849113e-02
5.328000000000000114e+01,1.468551047474094678e-02
5.332000000000000028e+01,1.065635772826787134e-02
5.335999999999999943e+01,1.345943667330348759e-02
5.339999999999999858e+01,6.867526808077284439e-03
5.343999999999999773e+01,1.084437955087447225e-02
5.347999999999999687e+01,1.567501418494921667e-02
5.352000000000000313e+01,8.334951086412023535e-03
5.356000000000000227e+01,1.743534204382693811e-02
5.360000000000000142e+01,1.596640559989050134e-02
5.364000000000000057e+01,1.086741360283836888e-02
5.367999999999999972e+01,7.476267461965662754e-03
5.371999999999999886e+01,1.102411055730480663e-02
5.375999999999999801e+01,8.272947206440861914e-03
5.379999999999999716e+01,1.331483721821044228e-02
5.384000000000000341e+01,9.922560090843024483e-03
5.388000000000000256e+01,5.462419789624982196e-03
5.392000000000000171e+01,1.295889583076597143e-02
5.396000000000000085e+01,1.511718741986845145e-02
5.400000000000000000e+01,1.225756859088049378e-02
5.403999999999999915e+01,1.655045462591012845e-02
5.407999999999999829e+01,1.123483487687331264e-02
5.411999999999999744e+01,1.531363849869090722e-02
5.415999999999999659e+01,1.384074134074478324e-02
5.420000000000000284e+01,1.578381780726188788e-02
5.424000000000000199e+01,1.473738608864020964e-02
5.428000000000000114e+01,1.529204138933589613e-02
5.432000000000000028e+01,1.392476868983990972e-02
5.435999999999999943e+01,1.608022742871003524e-02
5.439999999999999858e+01,1.727458032307284397e-02
5.443999999999999773e+01,1.483887658752087654e-02
5.447999999999999687e+01,1.400425960208653495e-02
5.452000000000000313e+01,1.114095631799803983e-02
5.456000000000000227e+01,1.201390026160126592e-02
5.460000000000000142e+01,1.406089867675144531e-02
5.464000000000000057e+01,1.247784019278709057e-02
5.467999999999999972e+01,1.100125578006273461e-02
5.471999999999999886e+01,1.400822458450926358e-02
5.475999999999999801e+01,1.242431406495704029e-02
5.479999999999999716e+01,1.308203804037898037e-02
5.484000000000000341e+01,8.828608496334173356e-03
5.488000000000000256e+01,1.258174691976957082e-02
5.492000000000000171e+01,1.024939339416856485e-02
5.496000000000000085e+01,1.325465699680027261e-02
5.500000000000000000e+01,1.295013730354592670e-02
5.503999999999999915e+01,1.712917039674280439e-02
5.507999999999999829e+01,1.714435585227209666e-02
5.511999999999999744e+01,1.812007902090351924e-02
5.515999999999999659e+01,1.749414714649233024e-02
5.520000000000000284e+01,1.046244885837695898e-02
5.524000000000000199e+01,1.004946367276703285e-02
5.528000000000000114e+01,1.230514445310268087e-02
5.532000000000000028e+01,1.210510574093421297e-02
5.535999999999999943e+01,1.137099200915036440e-02
5.539999999999999858e+01,1.085010940875003917e-02
5.543999999999999773e+01,1.203707029557116344e-02
5.547999999999999687e+01,1.172913373789269235e-02
5.552000000000000313e+01,1.665205552542486228e-02
5.556000000000000227e+01,1.591651661953220193e-02
5.560000000000000142e+01,1.400635419540817439e-02
5.564000000000000057e+01,1.305672878446689257e-02
5.567999999999999972e+01,1.242709215729220426e-02
5.571999999999999886e+01,1.638776543055215501e-02
5.575999999999999801e+01,1.255481715593344955e-02
5.579999999999999716e+01,1.523382320079814424e-02
5.584000000000000341e+01,1.257464226314641831e-02
5.588000000000000256e+01,1.012869181079875495e-02
5.592000000000000171e+01,1.398117945788923157e-02
5.596000000000000085e+01,1.025356134642668900e-02
5.600000000000000000e+01,1.965689509953523484e-02
5.603999999999999915e+01,2.019902663525843800e-02
5.607999999999999829e+01,1.721785736289144914e-02
5.611999999999999744e+01,1.199448357974662940e-02
5.615999999999999659e+01,1.018708078290728181e-02
5.620000000000000284e+01,1.318350329894857863e-02
5.624000000000000199e+01,1.308365690859059939e-02
5.628000000000000114e+01,1.426462075776418169e-02
5.632000000000000028e+01,1.266958968064671280e-02
5.635999999999999943e+01,1.139454647201659093e-02
5.639999999999999858e+01,1.567063451190621459e-02
5.643999999999999773e+01,1.588963111283250157e-02
5.647999999999999687e+01,2.133948476681054793e-02
5.652000000000000313e+01,1.675379723543405502e-02
5.656000000000000227e+01,1.387595168376024729e-02
5.660000000000000142e+01,1.313298017499997354e-02
5.664000000000000057e+01,1.847492973803323280e-02
5.667999999999999972e+01,1.431512804666565039e-02
5.671999999999999886e+01,1.047531373922580035e-02
5.675999999999999801e+01,1.111904990311913741e-02
5.679999999999999716e+01,9.520580640955428331e-03
5.684000000000000341e+01,1.849086941041895929e-02
5.688000000000000256e+01,1.870671286112081388e-02
5.692000000000000171e+01,1.742765692908468042e-02
5.696000000000000085e+01,1.219826688742849975e-02
5.700000000000000000e+01,1.828494086687866560e-02
5.703999999999999915e+01,1.305497660990243697e-02
5.707999999999999829e+01,1.252207845206513778e-02
5.711999999999999744e+01,1.818085874920461614e-02
5.715999999999999659e+01,1.348382291176219647e-02
5.720000000000000284e+01,1.391088512898962237e-02
5.724000000000000199e+01,1.700661067400480522e-02
5.728000000000000114e+01,1.284250277153658158e-02
5.732000000000000028e+01,1.497683108410804119e-02
5.735999999999999943e+01,1.476219518760042704e-02
5.739999999999999858e+01,1.700270634499538233e-02
5.743999999999999773e+01,1.668073712710593792e-02
5.747999999999999687e+01,1.913418894322722538e-02
5.752000000000000313e+01,1.080479202315622056e-02
5.756000000000000227e+01,1.443200654600837116e-02
5.760000000000000142e+01,1.485619230264009251e-02
5.764000000000000057e+01,1.175707515142337088e-02
5.767999999999999972e+01,1.911995687193212765e-02
5.771999999999999886e+01,1.537971549926065926e-02
5.775999999999999801e+01,1.420137872519485790e-02
5.779999999999999716e+01,1.900120343230122730e-02
5.784000000000000341e+01,1.547361364553775410e-02
5.788000000000000256e+01,1.920528158341894276e-02
5.792000000000000171e+01,1.567711521237744737e-02
5.796000000000000085e+01,1.673925572673311962e-02
5.800000000000000000e+01,1.641325343393478312e-02
5.803999999999999915e+01,2.046404186032833514e-02
5.807999999999999829e+01,1.928339831843070215e-02
5.811999999999999744e+01,1.863625633458779879e-02
5.815999999999999659e+01,1.766855162085802927e-02
5.820000000000000284e+01,1.595325200635070231e-02
5.824000000000000199e+01,1.466469575911551887e-02
5.828000000000000114e+01,1.892726822992222072e-02
5.832000000000000028e+01,1.891923067276231676e-02
5.835999999999999943e+01,1.698925967757525593e-02
5.839999999999999858e+01,1.655361212692757489e-02
5.843999999999999773e+01,1.302169270868311704e-02
5.847999999999999687e+01,1.770985247084833417e-02
5.852000000000000313e+01,1.599224135059311783e-02
5.856000000000000227e+01,1.907845236666119021e-02
5.860000000000000142e+01,1.479807012926464931e-02
5.864000000000000057e+01,1.809721868134170700e-02
5.867999999999999972e+01,1.808657898425686250e-02
5.871999999999999886e+01,1.519318310122099239e-02
5.875999999999999801e+01,1.539548061710539935e-02
5.879999999999999716e+01,1.741237512691773751e-02
5.884000000000000341e+01,1.537217496736944036e-02
5.888000000000000256e+01,1.311816913807786408e-02
5.892000000000000171e+01,1.107738970225376728e-02
5.896000000000000085e+01,1.362691580582801008e-02
5.900000000000000000e+01,1.852482878044393183e-02
5.903999999999999915e+01,2.032646907986376469e-02
5.907999999999999829e+01,1.977914285508646647e-02
5.911999999999999744e+01,1.987207487162776648e-02
5.915999999999999659e+01,2.177960339753734834e-02
5.920000000000000284e+01,1.642729589164567197e-02
5.924000000000000199e+01,1.288958478744244192e-02
5.928000000000000114e+01,2.280309522072211312e-02
5.932000000000000028e+01,1.702288514892722968e-02
5.935999999999999943e+01,1.860868883896138817e-02
5.939999999999999858e+01,1.784552557407879936e-02
5.943999999999999773e+01,1.580097559306648664e-02
5.947999999999999687e+01,1.856024651005850831e-02
5.952000000000000313e+01,1.662187366683449269e-02
5.956000000000000227e+01,1.340211394596088276e-02
5.960000000000000142e+01,1.573348116641065317e-02
5.964000000000000057e+01,1.891862198678500098e-02
5.967999999999999972e+01,1.868721518273585777e-02
5.971999999999999886e+01,1.781496946125353184e-02
5.975999999999999801e+01,1.598161068070998170e-02
5.979999999999999716e+01,2.001965266007815422e-02
5.984000000000000341e+01,1.647758365841766812e-02
5.988000000000000256e+01,1.709878684078577210e-02
5.992000000000000171e+01,1.739942492430903223e-02
5.996000000000000085e+01,1.834032011851178395e-02
