2.003999999999999915e+01,1.173275029858612643e-02
2.007999999999999829e+01,1.640639852070607807e-02
2.012000000000000099e+01,9.386800256631189221e-03
2.016000000000000014e+01,1.333762480561863015e-02
2.019999999999999929e+01,1.459497861437403232e-02
2.023999999999999844e+01,1.473546466087208642e-02
2.028000000000000114e+01,1.257663051656462104e-02
2.032000000000000028e+01,1.383366226921060697e-02
2.035999999999999943e+01,8.127256135185806363e-03
2.039999999999999858e+01,1.450803266710950536e-02
2.044000000000000128e+01,1.372829570324839675e-02
2.048000000000000043e+01,1.373675237473709343e-02
2.051999999999999957e+01,1.400786820696143901e-02
2.055999999999999872e+01,1.046875177406368998e-02
2.060000000000000142e+01,1.816282410966566646e-02
2.064000000000000057e+01,1.528040903169143074e-02
2.067999999999999972e+01,9.178987512734994650e-03
2.071999999999999886e+01,1.700411803900700458e-02
2.076000000000000156e+01,1.359584286336808050e-02
2.080000000000000071e+01,1.012176709122939756e-02
2.083999999999999986e+01,8.289877291352526489e-03
2.087999999999999901e+01,1.164753030351408335e-02
2.092000000000000171e+01,1.842104754062546396e-02
2.096000000000000085e+01,1.126779490736195058e-02
2.100000000000000000e+01,1.291713349837317511e-02
2.103999999999999915e+01,1.450067082408326886e-02
2.107999999999999829e+01,1.477026266055060134e-02
2.112000000000000099e+01,1.799587559687929050e-02
2.116000000000000014e+01,1.892216589013050870e-02
2.119999999999999929e+01,1.781190061041082462e-02
2.123999999999999844e+01,1.420523707849956005e-02
2.128000000000000114e+01,8.233558773716584053e-03
2.132000000000000028e+01,1.310091645866858986e-02
2.135999999999999943e+01,1.100483347027695312e-02
2.139999999999999858e+01,1.672596366059004094e-02
2.144000000000000128e+01,8.783089824498853740e-03
2.148000000000000043e+01,9.182963307325757440e-03
2.151999999999999957e+01,1.917372811007839184e-02
2.155999999999999872e+01,1.228159057774939368e-02
2.160000000000000142e+01,6.243335355090095379e-03
2.164000000000000057e+01,1.189810857054458826e-02
2.167999999999999972e+01,9.406987903839029996e-03
2.171999999999999886e+01,1.269663386690746479e-02
2.176000000000000156e+01,2.117582018974228930e-02
2.180000000000000071e+01,9.356130148237216601e-03
2.183999999999999986e+01,6.207645399414977137e-03
2.187999999999999901e+01,1.258435917192291323e-02
2.192000000000000171e+01,8.384581963913515304e-03
2.196000000000000085e+01,1.292170150957955808e-02
2.200000000000000000e+01,7.604939601121901184e-03
2.203999999999999915e+01,1.260167731284751735e-02
2.207999999999999829e+01,1.102912311718558247e-02
2.212000000000000099e+01,1.155859389459806298e-02
2.216000000000000014e+01,8.212136152818544366e-03
2.219999999999999929e+01,1.353688270051969789e-02
2.223999999999999844e+01,1.360617280283363262e-02
2.228000000000000114e+01,1.229582227650413348e-02
2.232000000000000028e+01,1.545240080007690558e-02
2.235999999999999943e+01,1.203968663599368563e-02
2.239999999999999858e+01,1.644418286394236373e-02
2.244000000000000128e+01,1.237432411489268816e-02
2.248000000000000043e+01,7.581742133798941366e-03
2.251999999999999957e+01,1.612448102338204584e-02
2.255999999999999872e+01,9.886452243799486242e-03
2.260000000000000142e+01,1.238531843442193699e-02
2.264000000000000057e+01,1.383300197016572655e-02
2.267999999999999972e+01,8.251549358764412659e-03
2.271999999999999886e+01,1.659664321924594899e-02
2.276000000000000156e+01,1.397109298604461841e-02
2.280000000000000071e+01,1.311910685401315377e-02
2.283999999999999986e+01,1.509175343797910553e-02
2.287999999999999901e+01,1.286001051938167640e-02
2.292000000000000171e+01,1.575211293261688170e-02
2.296000000000000085e+01,1.122092764607826761e-02
2.300000000000000000e+01,1.319311517169979853e-02
2.303999999999999915e+01,9.975535817989338375e-03
2.307999999999999829e+01,9.254129534507776408e-03
2.312000000000000099e+01,1.194858134529587848e-02
2.316000000000000014e+01,1.175247878112022776e-02
2.319999999999999929e+01,1.700867974547579792e-02
2.323999999999999844e+01,9.914707575284139804e-03
2.328000000000000114e+01,1.037517616327865433e-02
2.332000000000000028e+01,1.582810537764984746e-02
2.335999999999999943e+01,1.142714934802232032e-02
2.339999999999999858e+01,6.960385476545787563e-03
2.344000000000000128e+01,1.208450757458326072e-02
2.348000000000000043e+01,8.405812820515638426e-03
2.351999999999999957e+01,1.004803711245714701e-02
2.355999999999999872e+01,7.748637188471351432e-03
2.360000000000000142e+01,9.259244793512711943e-03
2.364000000000000057e+01,6.499768982725963491e-03
2.367999999999999972e+01,1.273995231411110228e-02
2.371999999999999886e+01,1.234514737257192546e-02
2.376000000000000156e+01,1.070208126890035208e-02
2.380000000000000071e+01,6.825376960728416278e-03
2.383999999999999986e+01,7.415597466716166916e-03
2.387999999999999901e+01,6.034946726843347029e-03
2.392000000000000171e+01,9.383987759769946493e-03
2.396000000000000085e+01,8.397252689739740164e-03
2.400000000000000000e+01,8.461468627544705204e-03
2.403999999999999915e+01,7.802956986096098654e-03
2.407999999999999829e+01,9.509232037416777417e-03
2.412000000000000099e+01,7.273881312273477312e-03
2.416000000000000014e+01,3.264733947181433678e-03
2.419999999999999929e+01,7.992477093617889050e-03
2.423999999999999844e+01,1.534777366852964169e-02
2.428000000000000114e+01,1.698776554548785123e-02
2.432000000000000028e+01,9.102328480208461345e-03
2.435999999999999943e+01,1.185884354699847341e-02
2.439999999999999858e+01,1.382693823593932579e-02
2.444000000000000128e+01,1.073664573499300522e-02
2.448000000000000043e+01,7.711925973377944769e-03
2.451999999999999957e+01,1.053365683424639480e-02
2.455999999999999872e+01,6.720397081385383158e-03
2.460000000000000142e+01,8.819279523467494358e-03
2.464000000000000057e+01,1.072096707743955268e-02
2.467999999999999972e+01,5.330745729347398029e-03
2.471999999999999886e+01,1.242184578113767097e-02
2.476000000000000156e+01,1.452024954669891947e-02
2.480000000000000071e+01,9.983662029729216403e-03
2.483999999999999986e+01,8.271701655411365164e-03
2.487999999999999901e+01,1.483678732993064762e-02
2.492000000000000171e+01,1.227059316256900665e-02
2.496000000000000085e+01,1.220056682649151882e-02
2.500000000000000000e+01,8.517371238644865297e-03
2.503999999999999915e+01,5.096822215772887389e-03
2.507999999999999829e+01,1.264668229553295165e-02
2.512000000000000099e+01,1.172217993001157220e-02
2.516000000000000014e+01,8.498343774721445198e-03
2.519999999999999929e+01,6.719606055619512831e-03
2.523999999999999844e+01,8.882254886188122034e-03
2.528000000000000114e+01,1.130754961292985972e-02
2.532000000000000028e+01,1.156489369482210233e-02
2.535999999999999943e+01,1.142796549601964029e-02
2.539999999999999858e+01,1.444412185629926140e-02
2.544000000000000128e+01,1.148220310451137510e-02
2.548000000000000043e+01,8.914313282348861403e-03
2.551999999999999957e+01,8.711206140146891472e-03
2.555999999999999872e+01,3.515400482377673518e-03
2.560000000000000142e+01,1.401981174649546968e-02
2.564000000000000057e+01,9.349295986135068223e-03
2.567999999999999972e+01,1.243028968212639938e-02
2.571999999999999886e+01,9.795974667355444171e-03
2.576000000000000156e+01,1.320518220577395103e-02
2.580000000000000071e+01,1.149030696903695879e-02
2.583999999999999986e+01,7.673171433773964996e-03
2.587999999999999901e+01,7.666037073924034106e-03
2.592000000000000171e+01,8.709848371497550673e-03
2.596000000000000085e+01,1.100168060120774657e-02
2.600000000000000000e+01,9.811724383262851110e-03
2.603999999999999915e+01,5.534130378556396251e-03
2.607999999999999829e+01,8.416818556991962491e-03
2.612000000000000099e+01,1.077384874607470108e-02
2.616000000000000014e+01,5.510506931850537790e-03
2.619999999999999929e+01,9.115433646596008549e-03
2.623999999999999844e+01,1.061809894814636467e-02
2.628000000000000114e+01,9.295892975707301456e-03
2.632000000000000028e+01,1.099538540782448760e-02
2.635999999999999943e+01,1.256336995414789222e-02
2.639999999999999858e+01,1.229185982298207531e-02
2.644000000000000128e+01,9.261169767352580434e-03
2.648000000000000043e+01,6.755889445462532478e-03
2.651999999999999957e+01,7.403690561580983202e-03
2.655999999999999872e+01,1.304394327525631656e-02
2.660000000000000142e+01,1.060398019173484398e-02
2.664000000000000057e+01,4.156692513940503028e-03
2.667999999999999972e+01,6.577672027512901365e-03
2.671999999999999886e+01,9.852519582990283339e-03
2.676000000000000156e+01,1.358708429654531015e-02
2.680000000000000071e+01,6.416685453652782971e-03
2.683999999999999986e+01,7.851786174685713299e-03
2.687999999999999901e+01,6.264938563545358226e-03
2.692000000000000171e+01,9.933308728333208049e-03
2.696000000000000085e+01,8.674668271605292039e-03
2.700000000000000000e+01,1.109464227843024245e-02
2.703999999999999915e+01,5.959933625069531449e-03
2.707999999999999829e+01,7.722737186604441452e-03
2.712000000000000099e+01,7.186201496491932336e-03
2.716000000000000014e+01,1.170780752732604284e-02
2.719999999999999929e+01,1.419284126515252785e-02
2.723999999999999844e+01,9.385958967032440037e-03
2.728000000000000114e+01,8.914608306130828233e-03
2.732000000000000028e+01,7.786212721082233675e-03
2.735999999999999943e+01,5.672313123452800074e-03
2.739999999999999858e+01,7.171335079313668516e-03
2.744000000000000128e+01,1.142928513708371674e-02
2.748000000000000043e+01,5.701954878976311404e-03
2.751999999999999957e+01,1.160194487795334142e-02
2.755999999999999872e+01,1.310045694655809917e-02
2.760000000000000142e+01,9.474881223996305113e-03
2.764000000000000057e+01,9.133767409156355599e-03
2.767999999999999972e+01,1.043482050573626106e-02
2.771999999999999886e+01,8.976690110911338116e-03
2.776000000000000156e+01,9.292109995359305180e-03
2.780000000000000071e+01,9.016175413450761011e-03
2.783999999999999986e+01,5.389830847196014699e-03
2.787999999999999901e+01,1.358788092100369181e-02
2.792000000000000171e+01,7.727758138407070029e-03
2.796000000000000085e+01,8.436686141466979288e-03
2.800000000000000000e+01,6.255046282066833649e-03
2.803999999999999915e+01,9.197237486734621825e-03
2.807999999999999829e+01,8.066408288927332318e-03
2.812000000000000099e+01,1.278201968158155025e-02
2.816000000000000014e+01,7.118198091060388456e-03
2.819999999999999929e+01,3.753459916823259027e-03
2.823999999999999844e+01,1.155619742551238296e-02
2.828000000000000114e+01,1.075318009224720400e-02
2.832000000000000028e+01,1.382584893030694255e-02
2.835999999999999943e+01,1.321964735798362642e-02
2.839999999999999858e+01,1.241624041966057565e-02
2.844000000000000128e+01,7.342736689480045854e-03
2.848000000000000043e+01,9.889351022180626477e-03
2.851999999999999957e+01,1.013662220189192123e-02
2.855999999999999872e+01,5.851029073771402828e-03
2.860000000000000142e+01,9.119861878737813357e-03
2.864000000000000057e+01,8.841207083839629916e-03
2.867999999999999972e+01,1.408053234189916673e-02
2.871999999999999886e+01,3.225236857020722433e-03
2.876000000000000156e+01,1.089489669005950200e-02
2.880000000000000071e+01,4.966223782175717069e-03
2.883999999999999986e+01,2.716160210366824236e-03
2.887999999999999901e+01,6.312535111148076181e-03
2.892000000000000171e+01,9.974470378433367146e-03
2.896000000000000085e+01,1.212536281131413284e-02
2.900000000000000000e+01,1.283090409371689077e-02
2.903999999999999915e+01,8.346661776750845946e-03
2.907999999999999829e+01,6.489959400763836185e-03
2.912000000000000099e+01,1.054538662395890225e-02
2.916000000000000014e+01,8.754111959450472380e-03
2.919999999999999929e+01,1.386034360209133925e-02
2.923999999999999844e+01,1.344833211106186491e-02
2.928000000000000114e+01,1.159096868928600164e-02
2.932000000000000028e+01,1.098161683642624731e-02
2.935999999999999943e+01,1.464209902911211073e-02
2.939999999999999858e+01,1.206172789293259891e-02
2.944000000000000128e+01,3.568962293387799474e-03
2.948000000000000043e+01,4.338606854886324984e-03
2.951999999999999957e+01,7.867173722014625045e-03
2.955999999999999872e+01,1.211821712611035190e-02
2.960000000000000142e+01,9.143029713105129200e-03
2.964000000000000057e+01,1.214566224560557559e-02
2.967999999999999972e+01,9.695742213693056555e-03
2.971999999999999886e+01,1.079304547479654867e-02
2.976000000000000156e+01,0.000000000000000000e+00
2.980000000000000071e+01,7.863290535767803596e-03
2.983999999999999986e+01,3.245005954161128171e-03
2.987999999999999901e+01,8.940199145223074254e-03
2.992000000000000171e+01,8.854380126103610429e-03
2.996000000000000085e+01,8.768426779955047767e-03
3.000000000000000000e+01,6.054667179574437473e-03
3.003999999999999915e+01,1.030410334093141526e-02
3.007999999999999829e+01,1.067758891264791732e-02
3.012000000000000099e+01,5.926979670782444101e-03
3.016000000000000014e+01,8.270949447040586502e-03
3.019999999999999929e+01,7.395886253191541471e-03
3.023999999999999844e+01,1.190741517430386753e-02
3.028000000000000114e+01,1.116346524517978361e-02
3.032000000000000028e+01,9.302619464136603969e-03
3.035999999999999943e+01,3.631514108577971016e-03
3.039999999999999858e+01,1.155847484628814807e-02
3.044000000000000128e+01,6.215557249899355576e-03
3.048000000000000043e+01,1.144888293574916095e-02
3.051999999999999957e+01,1.136103730716764119e-02
3.055999999999999872e+01,7.134472569769116645e-03
3.060000000000000142e+01,1.019956101053839936e-02
3.064000000000000057e+01,5.907032145280226645e-03
3.067999999999999972e+01,6.015717237946405054e-03
3.071999999999999886e+01,9.343163859988802208e-03
3.076000000000000156e+01,1.050264467768164539e-02
3.080000000000000071e+01,2.924980040218004909e-03
3.083999999999999986e+01,3.558653047628273450e-03
3.087999999999999901e+01,9.644608181922746659e-03
3.092000000000000171e+01,6.139424186545762441e-03
3.096000000000000085e+01,4.736240530055716401e-03
3.100000000000000000e+01,9.442256619983121699e-03
3.103999999999999915e+01,8.827099946409401945e-03
3.107999999999999829e+01,7.817655052372663241e-03
3.112000000000000099e+01,1.042112134540343696e-02
3.116000000000000014e+01,6.520962223451097842e-03
3.119999999999999929e+01,1.503641464834813181e-02
3.123999999999999844e+01,7.457239307891762488e-03
3.128000000000000114e+01,8.483551158533700690e-03
3.132000000000000028e+01,1.010095105081216388e-02
3.135999999999999943e+01,1.040437680685161841e-02
3.139999999999999858e+01,6.634772908662329993e-03
3.144000000000000128e+01,7.266380850526072549e-03
3.148000000000000043e+01,7.897850229618058604e-03
3.151999999999999957e+01,4.981823983227808006e-03
3.155999999999999872e+01,1.001436619373344793e-02
3.160000000000000142e+01,6.441144310531166095e-03
3.164000000000000057e+01,5.495455234425533457e-03
3.167999999999999972e+01,1.197279991766786976e-02
3.171999999999999886e+01,1.056698992212893977e-02
3.176000000000000156e+01,7.518745698714877045e-03
3.180000000000000071e+01,7.360801018103444240e-03
3.183999999999999986e+01,8.647936270172861678e-03
3.187999999999999901e+01,8.226945164573038621e-03
3.192000000000000171e+01,1.236634730725404792e-03
3.196000000000000085e+01,1.027498247249282286e-02
3.200000000000000000e+01,2.955933149461928075e-03
3.203999999999999915e+01,6.147430966066634410e-03
3.207999999999999829e+01,1.190076856823856291e-02
3.211999999999999744e+01,7.077586765830676079e-03
3.215999999999999659e+01,5.013319912236397120e-03
3.220000000000000284e+01,6.890420213070000410e-03
3.224000000000000199e+01,1.349718910158541861e-02
3.228000000000000114e+01,8.804828390325957974e-03
3.232000000000000028e+01,6.608615000438849453e-03
3.235999999999999943e+01,6.317322661916589463e-03
3.239999999999999858e+01,4.252210721261806547e-03
3.243999999999999773e+01,7.967835537248663461e-03
3.247999999999999687e+01,4.917064078270751495e-03
3.252000000000000313e+01,1.086592712727727991e-02
3.256000000000000227e+01,1.031116085995881400e-02
3.260000000000000142e+01,1.087301343048289841e-02
3.264000000000000057e+01,9.201203162319201295e-03
3.267999999999999972e+01,1.035399818929264547e-02
3.271999999999999886e+01,2.096626973466979987e-02
3.275999999999999801e+01,2.021371854727574066e-02
3.279999999999999716e+01,2.189162154825770312e-02
3.284000000000000341e+01,2.159862833479089805e-02
3.288000000000000256e+01,2.143687624799728991e-02
3.292000000000000171e+01,1.864730976988708544e-02
3.296000000000000085e+01,2.078448525923448642e-02
3.300000000000000000e+01,3.185560212357001209e-02
3.303999999999999915e+01,1.304280475419338226e-01
3.307999999999999829e+01,2.046286938478978634e-01
3.311999999999999744e+01,1.183441408748690665e-01
3.315999999999999659e+01,2.575303229969181859e-02
3.320000000000000284e+01,9.035804048043367606e-03
3.324000000000000199e+01,1.104059401619823799e-02
3.328000000000000114e+01,1.278247322399674209e-02
3.332000000000000028e+01,1.045131742715475071e-02
3.335999999999999943e+01,9.039702964103779603e-03
3.339999999999999858e+01,8.941780495737355547e-03
3.343999999999999773e+01,9.632015547441339504e-03
3.347999999999999687e+01,1.117609980314221776e-02
3.352000000000000313e+01,6.742086430459419411e-03
3.356000000000000227e+01,1.419814366493100076e-02
3.360000000000000142e+01,1.455934252639726027e-02
3.364000000000000057e+01,5.592161860015698420e-03
3.367999999999999972e+01,6.675681195372538609e-03
3.371999999999999886e+01,1.117502908626745971e-02
3.375999999999999801e+01,1.009042945233763061e-02
3.379999999999999716e+01,1.025382890302979806e-02
3.384000000000000341e+01,1.291337143935167818e-02
3.388000000000000256e+01,6.835759937564858495e-03
3.392000000000000171e+01,8.115484157585573996e-03
3.396000000000000085e+01,3.811260295446983193e-03
3.400000000000000000e+01,1.172556479129373448e-02
3.403999999999999915e+01,6.632748102593116236e-03
3.407999999999999829e+01,9.422801052979587477e-03
3.411999999999999744e+01,1.024195422197612775e-02
3.415999999999999659e+01,6.790994659346818313e-03
3.420000000000000284e+01,7.347088473193235346e-03
3.424000000000000199e+01,5.669514989675403759e-03
3.428000000000000114e+01,8.327453636666483708e-03
3.432000000000000028e+01,1.098524580673509825e-02
3.435999999999999943e+01,1.016122623256412658e-02
3.439999999999999858e+01,5.658319416506427633e-03
3.443999999999999773e+01,6.607684806777792963e-03
3.447999999999999687e+01,9.133506363700687192e-03
3.452000000000000313e+01,9.754118819957960027e-03
3.456000000000000227e+01,1.063735131206489277e-02
3.460000000000000142e+01,1.027229243450638631e-02
3.464000000000000057e+01,7.279414372554101828e-03
3.467999999999999972e+01,9.344657075769029209e-03
3.471999999999999886e+01,1.160682757357257150e-02
3.475999999999999801e+01,8.810582123025788304e-03
3.479999999999999716e+01,9.627237604590655612e-03
3.484000000000000341e+01,8.407299502967801111e-03
3.488000000000000256e+01,4.822308729723306930e-03
3.492000000000000171e+01,9.382952436334345350e-03
3.496000000000000085e+01,9.607789386587911248e-03
3.500000000000000000e+01,1.259153337150437438e-02
3.503999999999999915e+01,3.027995952954424044e-03
3.507999999999999829e+01,1.008433417414107518e-02
3.511999999999999744e+01,8.206439515564557460e-03
3.515999999999999659e+01,1.178081505691270549e-02
3.520000000000000284e+01,7.143567244891260888e-03
3.524000000000000199e+01,1.130887097492406720e-02
3.528000000000000114e+01,1.238651116933871948e-02
3.532000000000000028e+01,6.829130765424680331e-03
3.535999999999999943e+01,8.497698479722530507e-03
3.539999999999999858e+01,1.226825416008014112e-02
3.543999999999999773e+01,5.856431956464692654e-03
3.547999999999999687e+01,8.378544216888833204e-03
3.552000000000000313e+01,1.057204767941615983e-02
3.556000000000000227e+01,7.772824759648338383e-03
3.560000000000000142e+01,1.213385749389755269e-02
3.564000000000000057e+01,1.215908157685178549e-02
3.567999999999999972e+01,1.494321079953140653e-02
3.571999999999999886e+01,1.339153114798222188e-02
3.575999999999999801e+01,1.440168102704440269e-02
3.579999999999999716e+01,7.331589471520108016e-03
3.584000000000000341e+01,1.458215859909207934e-02
3.588000000000000256e+01,1.362110247835693344e-02
3.592000000000000171e+01,1.555033441933252950e-02
3.596000000000000085e+01,1.544296965604685830e-02
3.600000000000000000e+01,1.934265325322588949e-02
3.603999999999999915e+01,1.660731424567180037e-02
3.607999999999999829e+01,1.748487260328819917e-02
3.611999999999999744e+01,1.731121074167669971e-02
3.615999999999999659e+01,1.214482082576636909e-02
3.620000000000000284e+01,2.156185777132368572e-02
3.624000000000000199e+01,1.744623303850624529e-02
3.628000000000000114e+01,1.392168252542830796e-02
3.632000000000000028e+01,1.138235689298335539e-02
3.635999999999999943e+01,1.961633354332113083e-02
3.639999999999999858e+01,2.036129324560939299e-02
3.643999999999999773e+01,1.571937334097003522e-02
3.647999999999999687e+01,1.600418559470005372e-02
3.652000000000000313e+01,1.484362574217265411e-02
3.656000000000000227e+01,1.506244087383715527e-02
3.660000000000000142e+01,1.639786369665307761e-02
3.664000000000000057e+01,2.154325771028290162e-02
3.667999999999999972e+01,2.084192888042983929e-02
3.671999999999999886e+01,1.830107661462438209e-02
3.675999999999999801e+01,2.114679829467374858e-02
3.679999999999999716e+01,1.834287218301967198e-02
3.684000000000000341e+01,1.961168388641856136e-02
3.688000000000000256e+01,2.002634863889844047e-02
3.692000000000000171e+01,2.530205252821823500e-02
3.696000000000000085e+01,2.400842304445937811e-02
3.700000000000000000e+01,2.429124270493660670e-02
3.703999999999999915e+01,2.680742935211699943e-02
3.707999999999999829e+01,2.958622901273165809e-02
3.711999999999999744e+01,2.573000305900658563e-02
3.715999999999999659e+01,3.258138536333262530e-02
3.720000000000000284e+01,2.767378178969986599e-02
3.724000000000000199e+01,3.150303238938240158e-02
3.728000000000000114e+01,3.736857392078642842e-02
3.732000000000000028e+01,3.469402721410756729e-02
3.735999999999999943e+01,3.839142971218083289e-02
3.739999999999999858e+01,4.011792328857742562e-02
3.743999999999999773e+01,4.394639914622126831e-02
3.747999999999999687e+01,5.145346026308707937e-02
3.752000000000000313e+01,5.784360546398971403e-02
3.756000000000000227e+01,6.127746436644701533e-02
3.760000000000000142e+01,6.418563328854792749e-02
3.764000000000000057e+01,7.320298345355893965e-02
3.767999999999999972e+01,9.036596040720865086e-02
3.771999999999999886e+01,1.000399167344006995e-01
3.775999999999999801e+01,1.152975196069550012e-01
3.779999999999999716e+01,1.342993986423893504e-01
3.784000000000000341e+01,1.686073097184753455e-01
3.788000000000000256e+01,2.079733326423756357e-01
3.792000000000000171e+01,2.581126535018491430e-01
3.796000000000000085e+01,3.376160502817612818e-01
3.800000000000000000e+01,4.675048973965332810e-01
3.803999999999999915e+01,6.280716561166782563e-01
3.807999999999999829e+01,8.277248761410842537e-01
3.811999999999999744e+01,9.730508243088690223e-01
3.815999999999999659e+01,1.000000000000000000e+00
3.820000000000000284e+01,9.177692544580863254e-01
3.824000000000000199e+01,7.875833408783103895e-01
3.828000000000000114e+01,6.192303366628219008e-01
3.832000000000000028e+01,4.797158730014227657e-01
3.835999999999999943e+01,3.593832558598160642e-01
3.839999999999999858e+01,2.702540836835272131e-01
3.843999999999999773e+01,2.093722255683862776e-01
3.847999999999999687e+01,1.728618654747156869e-01
3.852000000000000313e+01,1.463365000998937959e-01
3.856000000000000227e+01,1.165263866629867862e-01
3.860000000000000142e+01,1.047156667599895702e-01
3.864000000000000057e+01,9.540107656659266300e-02
3.867999999999999972e+01,8.181636104580890245e-02
3.871999999999999886e+01,7.394667298596825644e-02
3.875999999999999801e+01,6.732497018885261197e-02
3.879999999999999716e+01,5.807543661478435648e-02
3.884000000000000341e+01,5.263586810084989326e-02
3.888000000000000256e+01,4.798444194748584246e-02
3.892000000000000171e+01,4.806266576682934749e-02
3.896000000000000085e+01,4.216277679828922542e-02
3.900000000000000000e+01,3.514596778951017270e-02
3.903999999999999915e+01,4.074182386624600194e-02
3.907999999999999829e+01,3.142548264719495499e-02
3.911999999999999744e+01,3.518164885847879786e-02
3.915999999999999659e+01,3.335385249690482612e-02
3.920000000000000284e+01,2.738731294966095450e-02
3.924000000000000199e+01,2.989485482081317980e-02
3.928000000000000114e+01,2.609582403537943907e-02
3.932000000000000028e+01,2.623814056326334576e-02
3.935999999999999943e+01,2.421246732141169380e-02
3.939999999999999858e+01,2.895288837186010128e-02
3.943999999999999773e+01,2.035771421276104387e-02
3.947999999999999687e+01,1.964539464471602367e-02
3.952000000000000313e+01,2.471379210366927981e-02
3.956000000000000227e+01,2.137347867317938507e-02
3.960000000000000142e+01,1.731039430280729985e-02
3.964000000000000057e+01,1.745142353559114845e-02
3.967999999999999972e+01,1.857766828578741314e-02
3.971999999999999886e+01,1.944098432945455535e-02
3.975999999999999801e+01,1.701954896702920911e-02
3.979999999999999716e+01,1.899930214807238338e-02
3.984000000000000341e+01,1.565785804289386227e-02
3.988000000000000256e+01,1.211917658071195829e-02
3.992000000000000171e+01,1.173353921512321034e-02
3.996000000000000085e+01,1.528924737938151986e-02
4.000000000000000000e+01,1.483759371941849488e-02
4.003999999999999915e+01,1.399162687040422792e-02
4.007999999999999829e+01,1.675854623986927985e-02
4.011999999999999744e+01,1.459841831520466808e-02
4.015999999999999659e+01,1.178120968551448280e-02
4.020000000000000284e+01,1.507317516485210708e-02
4.024000000000000199e+01,1.508038790049432039e-02
4.028000000000000114e+01,1.186853957636762290e-02
4.032000000000000028e+01,1.575124195776900909e-02
4.035999999999999943e+01,1.293321790061741777e-02
4.039999999999999858e+01,1.024641401435962690e-02
4.043999999999999773e+01,1.504831127158956158e-02
4.047999999999999687e+01,1.354363252822617797e-02
4.052000000000000313e+01,1.046218694112746248e-02
4.056000000000000227e+01,1.191331137041271894e-02
4.060000000000000142e+01,1.388980618561759355e-02
4.064000000000000057e+01,9.362649168181332374e-03
4.067999999999999972e+01,9.762212605088717993e-03
4.071999999999999886e+01,1.094991327508859462e-02
4.075999999999999801e+01,1.765556033503890357e-02
4.079999999999999716e+01,1.207667712186116619e-02
4.084000000000000341e+01,1.608863139009086493e-02
4.088000000000000256e+01,1.471369367856576946e-02
4.092000000000000171e+01,1.235321416717679970e-02
4.096000000000000085e+01,5.394143997819988642e-03
4.100000000000000000e+01,1.019374011198523333e-02
4.103999999999999915e+01,1.348225972873862144e-02
4.107999999999999829e+01,1.052989346828845860e-02
4.111999999999999744e+01,1.013934180188348459e-02
4.115999999999999659e+01,1.480689284300601948e-02
4.120000000000000284e+01,1.310217408173747038e-02
4.124000000000000199e+01,9.557919288755512346e-03
4.128000000000000114e+01,1.383082227542317341e-02
4.132000000000000028e+01,1.015485203585736115e-02
4.135999999999999943e+01,1.232528549120532300e-02
4.139999999999999858e+01,1.239341528739865139e-02
4.143999999999999773e+01,1.213291978859225295e-02
4.147999999999999687e+01,1.036134656623802219e-02
4.152000000000000313e+01,1.285957350348828493e-02
4.156000000000000227e+01,1.240150299560206261e-02
4.160000000000000142e+01,7.804682614031235866e-03
4.164000000000000057e+01,1.325854005228344415e-02
4.167999999999999972e+01,1.181459198739438256e-02
4.171999999999999886e+01,1.312953223072704789e-02
4.175999999999999801e+01,1.076556472226127339e-02
4.179999999999999716e+01,1.648152072594884568e-02
4.184000000000000341e+01,1.142385485241688078e-02
4.188000000000000256e+01,1.004476197674660128e-02
4.192000000000000171e+01,1.214716660129090860e-02
4.196000000000000085e+01,9.388210599620991012e-03
4.200000000000000000e+01,1.339534164490186613e-02
4.203999999999999915e+01,1.260680363642810095e-02
4.207999999999999829e+01,1.181809752645102650e-02
4.211999999999999744e+01,1.681010119812298420e-02
4.215999999999999659e+01,1.464153084747716119e-02
4.220000000000000284e+01,1.372093617340190350e-02
4.224000000000000199e+01,1.365416629206991916e-02
4.228000000000000114e+01,1.194493286706504662e-02
4.232000000000000028e+01,1.286320248749141769e-02
4.235999999999999943e+01,1.397837861232629347e-02
4.239999999999999858e+01,1.364816624526779022e-02
4.243999999999999773e+01,1.535423043069917247e-02
4.247999999999999687e+01,1.456383717500892190e-02
4.252000000000000313e+01,1.653232999820216167e-02
4.256000000000000227e+01,1.324530975081711533e-02
4.260000000000000142e+01,1.422808665342993953e-02
4.264000000000000057e+01,1.481654312164230533e-02
4.267999999999999972e+01,1.382822672690606214e-02
4.271999999999999886e+01,1.710970714776698792e-02
4.275999999999999801e+01,1.750057857487748517e-02
4.279999999999999716e+01,1.946788298352187391e-02
4.284000000000000341e+01,1.847888638008862716e-02
4.288000000000000256e+01,1.729264405963362380e-02
4.292000000000000171e+01,2.077034876980162273e-02
4.296000000000000085e+01,1.938669006708261533e-02
4.300000000000000000e+01,1.872547044844874095e-02
4.303999999999999915e+01,1.918084057479348820e-02
4.307999999999999829e+01,1.989880699453575041e-02
4.311999999999999744e+01,1.936845830216040940e-02
4.315999999999999659e+01,1.647303386451271986e-02
4.320000000000000284e+01,2.008092594823484775e-02
4.324000000000000199e+01,2.270326976701223659e-02
4.328000000000000114e+01,2.644220266196678146e-02
4.332000000000000028e+01,2.058996187250728208e-02
4.335999999999999943e+01,2.294902383877836863e-02
4.339999999999999858e+01,2.419115350345026061e-02
4.343999999999999773e+01,2.431635075505603899e-02
4.347999999999999687e+01,2.844857552281407354e-02
4.352000000000000313e+01,3.251493638086655480e-02
4.356000000000000227e+01,3.526728910527199973e-02
4.360000000000000142e+01,3.716547615231730745e-02
4.364000000000000057e+01,3.807811381974871012e-02
4.367999999999999972e+01,3.590306454351054055e-02
4.371999999999999886e+01,4.233346779216117656e-02
4.375999999999999801e+01,3.864716176711452400e-02
4.379999999999999716e+01,5.066102194651010693e-02
4.384000000000000341e+01,5.341216596938878902e-02
4.388000000000000256e+01,6.141848050622518429e-02
4.392000000000000171e+01,6.607434024901691350e-02
4.396000000000000085e+01,7.460584257957113274e-02
4.400000000000000000e+01,8.195471914112911760e-02
4.403999999999999915e+01,8.838373700379749398e-02
4.407999999999999829e+01,1.080823238610838649e-01
4.411999999999999744e+01,1.215400163696814390e-01
4.415999999999999659e+01,1.393988852718541227e-01
4.420000000000000284e+01,1.537102232135335589e-01
4.424000000000000199e+01,1.834589589519455832e-01
4.428000000000000114e+01,2.122878353226665959e-01
4.432000000000000028e+01,2.214746905271104405e-01
4.435999999999999943e+01,2.148296485866275085e-01
4.439999999999999858e+01,2.083158156703471819e-01
4.443999999999999773e+01,1.958238546952163484e-01
4.447999999999999687e+01,1.819521912273060482e-01
4.452000000000000313e+01,1.508034106699464583e-01
4.456000000000000227e+01,1.312819028847669878e-01
4.460000000000000142e+01,1.172126389933210305e-01
4.464000000000000057e+01,9.992430189221278292e-02
4.467999999999999972e+01,8.631452998628243167e-02
4.471999999999999886e+01,7.552932982394883199e-02
4.475999999999999801e+01,7.098467465420191247e-02
4.479999999999999716e+01,5.901667092374741908e-02
4.484000000000000341e+01,5.539134941553459923e-02
4.488000000000000256e+01,4.887541300582504133e-02
4.492000000000000171e+01,4.091408108180664971e-02
4.496000000000000085e+01,3.288688123527389734e-02
4.500000000000000000e+01,3.234836982500097213e-02
4.503999999999999915e+01,2.964185281669106178e-02
4.507999999999999829e+01,2.529286446202446900e-02
4.511999999999999744e+01,2.711872830134893705e-02
4.515999999999999659e+01,2.565982568654787827e-02
4.520000000000000284e+01,2.354382832189041291e-02
4.524000000000000199e+01,2.517208638726745745e-02
4.528000000000000114e+01,1.977114532669440108e-02
4.532000000000000028e+01,2.153043283367886071e-02
4.535999999999999943e+01,1.704882253650021745e-02
4.539999999999999858e+01,1.828222108529045306e-02
4.543999999999999773e+01,1.649361958126038114e-02
4.547999999999999687e+01,1.647851897666134310e-02
4.552000000000000313e+01,1.462387041338938931e-02
4.556000000000000227e+01,1.447703073122122257e-02
4.560000000000000142e+01,1.426432134306813461e-02
4.564000000000000057e+01,1.451127650061040386e-02
4.567999999999999972e+01,1.134208016417050102e-02
4.571999999999999886e+01,1.369081639578399560e-02
4.575999999999999801e+01,1.321462706902209149e-02
4.579999999999999716e+01,1.254118388815390200e-02
4.584000000000000341e+01,1.127633596935210224e-02
4.588000000000000256e+01,1.355866631093404287e-02
4.592000000000000171e+01,1.117670037725770893e-02
4.596000000000000085e+01,1.155361093631046727e-02
4.600000000000000000e+01,1.094496553920159057e-02
4.603999999999999915e+01,1.099305895929915920e-02
4.607999999999999829e+01,9.661445427940850567e-03
4.611999999999999744e+01,9.774872035575983553e-03
4.615999999999999659e+01,1.015088635365641451e-02
4.620000000000000284e+01,9.475652362847251584e-03
4.624000000000000199e+01,1.057391715359779112e-02
4.628000000000000114e+01,1.121215957106550497e-02
4.632000000000000028e+01,1.066776975445607803e-02
4.635999999999999943e+01,8.875055796909184225e-03
4.639999999999999858e+01,8.198922221120339901e-03
4.643999999999999773e+01,5.617546327526212052e-03
4.647999999999999687e+01,9.736553201195364410e-03
4.652000000000000313e+01,1.175324214794521392e-02
4.656000000000000227e+01,8.645790468212406765e-03
4.660000000000000142e+01,8.362905293131510723e-03
4.664000000000000057e+01,1.005059317112138965e-02
4.667999999999999972e+01,5.365995975753293408e-03
4.671999999999999886e+01,9.155459354468827027e-03
4.675999999999999801e+01,7.229555390826526880e-03
4.679999999999999716e+01,1.108434816720460514e-02
4.684000000000000341e+01,8.632547219750461714e-03
4.688000000000000256e+01,5.129496068469196340e-03
4.692000000000000171e+01,7.341449527414183399e-03
4.696000000000000085e+01,5.874480743862209309e-03
4.700000000000000000e+01,9.399906598275255265e-03
4.703999999999999915e+01,7.078580739275300814e-03
4.707999999999999829e+01,1.073502622620755090e-02
4.711999999999999744e+01,5.588588984089951257e-03
4.715999999999999659e+01,3.857942844628091048e-03
4.720000000000000284e+01,6.988307195009900614e-03
4.724000000000000199e+01,8.147735202854791692e-03
4.728000000000000114e+01,7.401918552089243632e-03
4.732000000000000028e+01,9.809125376538210470e-03
4.735999999999999943e+01,8.471717048427696017e-03
4.739999999999999858e+01,1.100994172192527702e-02
4.743999999999999773e+01,6.716036636439734996e-03
4.747999999999999687e+01,9.516662303905080306e-03
4.752000000000000313e+01,6.667610306534696094e-03
4.756000000000000227e+01,8.745259591199160826e-03
4.760000000000000142e+01,7.603827417649892603e-03
4.764000000000000057e+01,4.294382400714391590e-03
4.767999999999999972e+01,9.853146055017032723e-03
4.771999999999999886e+01,1.068191662265699678e-02
4.775999999999999801e+01,4.153022176431336691e-03
4.779999999999999716e+01,7.543404793337505146e-03
4.784000000000000341e+01,6.663636556934062795e-03
4.788000000000000256e+01,6.506293805652540140e-03
4.792000000000000171e+01,7.991061563533631909e-03
4.796000000000000085e+01,6.322438655392178565e-03
4.800000000000000000e+01,3.668254217743502615e-03
4.803999999999999915e+01,8.634133335656164754e-03
4.807999999999999829e+01,5.782503980214095257e-03
4.811999999999999744e+01,9.237102049531552977e-03
4.815999999999999659e+01,1.072076121257310027e-02
4.820000000000000284e+01,8.459802882250039291e-03
4.824000000000000199e+01,7.184036215420300936e-03
4.828000000000000114e+01,6.105159555896156123e-03
4.832000000000000028e+01,6.537008700078719356e-03
4.835999999999999943e+01,6.377446083912234956e-03
4.839999999999999858e+01,8.976753160993252226e-03
4.843999999999999773e+01,8.554051825235588213e-03
4.847999999999999687e+01,1.056176098282458377e-02
4.852000000000000313e+01,8.365009187559873521e-03
4.856000000000000227e+01,8.138825094954190917e-03
4.860000000000000142e+01,9.620441411967032078e-03
4.864000000000000057e+01,9.985110825215250466e-03
4.867999999999999972e+01,9.495600404805539657e-03
4.871999999999999886e+01,7.757759266910590340e-03
4.875999999999999801e+01,5.034354481637104764e-03
4.879999999999999716e+01,7.040572136743992147e-03
4.884000000000000341e+01,9.243678238619717699e-03
4.888000000000000256e+01,7.899240338373520257e-03
4.892000000000000171e+01,8.985211705337971949e-03
4.896000000000000085e+01,5.801029097919291680e-03
4.900000000000000000e+01,7.215084782759634101e-03
4.903999999999999915e+01,9.942788878722059673e-03
4.907999999999999829e+01,6.298201213311795110e-03
4.911999999999999744e+01,9.419680753742044194e-03
4.915999999999999659e+01,8.271005762454604338e-03
4.920000000000000284e+01,6.530916670012977716e-03
4.924000000000000199e+01,7.615386725407102472e-03
4.928000000000000114e+01,4.692469096256387737e-03
4.932000000000000028e+01,8.338542729431443201e-03
4.935999999999999943e+01,7.911536659734440952e-03
4.939999999999999858e+01,8.929561588744108075e-03
4.943999999999999773e+01,8.633561998470743251e-03
4.947999999999999687e+01,7.483380345201201371e-03
4.952000000000000313e+01,6.595777039156414806e-03
4.956000000000000227e+01,5.905060173476050535e-03
4.960000000000000142e+01,1.079795685895204235e-02
4.964000000000000057e+01,8.793025859371394679e-03
4.967999999999999972e+01,6.065295830246807997e-03
4.971999999999999886e+01,7.344575928436258318e-03
4.975999999999999801e+01,7.572597797180961356e-03
4.979999999999999716e+01,9.574108526930226459e-03
4.984000000000000341e+01,8.290839760925310109e-03
4.988000000000000256e+01,1.062042990400634615e-02
4.992000000000000171e+01,8.614171602104982520e-03
4.996000000000000085e+01,5.490962718030920585e-03
5.000000000000000000e+01,9.330893973705508410e-03
5.003999999999999915e+01,1.021450415325835491e-02
5.007999999999999829e+01,9.587012643877361809e-03
5.011999999999999744e+01,9.353481400504242912e-03
5.015999999999999659e+01,8.856992357738072835e-03
5.020000000000000284e+01,6.915093087030724402e-03
5.024000000000000199e+01,6.024071701864519394e-03
5.028000000000000114e+01,8.680216315721753575e-03
5.032000000000000028e+01,7.000511369927459385e-03
5.035999999999999943e+01,7.882595269321784545e-03
5.039999999999999858e+01,7.384960178833777089e-03
5.043999999999999773e+01,6.558674713290934578e-03
5.047999999999999687e+01,7.243109032241568969e-03
5.052000000000000313e+01,6.482132231515740431e-03
5.056000000000000227e+01,9.268320649544976864e-03
5.060000000000000142e+01,6.733281796753276885e-03
5.064000000000000057e+01,7.285565372029020360e-03
5.067999999999999972e+01,9.611335356037279884e-03
5.071999999999999886e+01,9.112165959773120549e-03
5.075999999999999801e+01,9.926640181553840134e-03
5.079999999999999716e+01,1.014969584350391453e-02
5.084000000000000341e+01,6.168284087519408827e-03
5.088000000000000256e+01,7.179256157209489529e-03
5.092000000000000171e+01,7.664501128061601033e-03
5.096000000000000085e+01,8.280936842542838475e-03
5.100000000000000000e+01,7.386268304351259126e-03
5.103999999999999915e+01,8.724927739443793032e-03
5.107999999999999829e+01,9.537859629830714586e-03
5.111999999999999744e+01,1.179581772584711689e-02
5.115999999999999659e+01,1.136021880624186846e-02
5.120000000000000284e+01,1.046458380292364723e-02
5.124000000000000199e+01,9.108912604425572351e-03
5.128000000000000114e+01,6.833362531526917041e-03
5.132000000000000028e+01,9.418811467380005381e-03
5.135999999999999943e+01,7.602716150048476063e-03
5.139999999999999858e+01,7.691488825831842811e-03
5.143999999999999773e+01,7.582991930674386379e-03
5.147999999999999687e+01,1.003628075963204289e-02
5.152000000000000313e+01,9.598936183585602203e-03
5.156000000000000227e+01,5.811115523314382657e-03
5.160000000000000142e+01,5.439073592871753425e-03
5.164000000000000057e+01,8.417118485397345057e-03
5.167999999999999972e+01,1.086943416121365427e-02
5.171999999999999886e+01,1.095665023783854407e-02
5.175999999999999801e+01,1.005829430706650131e-02
5.179999999999999716e+01,8.371441643610842004e-03
5.184000000000000341e+01,7.669770611626452843e-03
5.188000000000000256e+01,9.004349825940827917e-03
5.192000000000000171e+01,1.053580890407184757e-02
5.196000000000000085e+01,7.665722057014548278e-03
5.200000000000000000e+01,6.897576917248700486e-03
5.203999999999999915e+01,9.413825690388580303e-03
5.207999999999999829e+01,6.674534863825211210e-03
5.211999999999999744e+01,9.518850566002774738e-03
5.215999999999999659e+01,1.058929160139348950e-02
5.220000000000000284e+01,1.106831017561165156e-02
5.224000000000000199e+01,1.023329642786297358e-02
5.228000000000000114e+01,7.295948701959701320e-03
5.232000000000000028e+01,7.905761290267369901e-03
5.235999999999999943e+01,9.172295084009473437e-03
5.239999999999999858e+01,8.402186360589666489e-03
5.243999999999999773e+01,8.223106824277038110e-03
5.247999999999999687e+01,8.437980977424491477e-03
5.252000000000000313e+01,9.835110253285941906e-03
5.256000000000000227e+01,9.852514520051813829e-03
5.260000000000000142e+01,1.098648189120444985e-02
5.264000000000000057e+01,1.014949787178710643e-02
5.267999999999999972e+01,9.312316212134876675e-03
5.271999999999999886e+01,8.146477823813840988e-03
5.275999999999999801e+01,6.192140027603307284e-03
5.279999999999999716e+01,6.208358118559190002e-03
5.284000000000000341e+01,8.589282757574942181e-03
5.288000000000000256e+01,9.590481495759851233e-03
5.292000000000000171e+01,6.518590610517593399e-03
5.296000000000000085e+01,1.054121520725932043e-02
5.300000000000000000e+01,8.388612505051219748e-03
5.303999999999999915e+01,1.070285324615727514e-02
5.307999999999999829e+01,1.111183316595071822e-02
5.311999999999999744e+01,6.790804951048408540e-03
5.315999999999999659e+01,9.761367046975760048e-03
5.320000000000000284e+01,8.527455148420738998e-03
5.324000000000000199e+01,9.329789706289471143e-03
5.328000000000000114e+01,8.949472634838471705e-03
5.332000000000000028e+01,9.094490502829200365e-03
5.335999999999999943e+01,1.180128885599016422e-02
5.339999999999999858e+01,9.909461884973795251e-03
5.343999999999999773e+01,7.360517201917247260e-03
5.347999999999999687e+01,1.072363423469360928e-02
5.352000000000000313e+01,9.488125608891928228e-03
5.356000000000000227e+01,6.150279437994486849e-03
5.360000000000000142e+01,1.010402235179065980e-02
5.364000000000000057e+01,8.802221318674023631e-03
5.367999999999999972e+01,8.879747561911129072e-03
5.371999999999999886e+01,1.046798456082188335e-02
5.375999999999999801e+01,1.185894552371094014e-02
5.379999999999999716e+01,9.111122615507347491e-03
5.384000000000000341e+01,8.859387059477674339e-03
5.388000000000000256e+01,1.038112899482756916e-02
5.392000000000000171e+01,1.150851906210792128e-02
5.396000000000000085e+01,1.125618021895082380e-02
5.400000000000000000e+01,7.521974901300532319e-03
5.403999999999999915e+01,9.896905125126609706e-03
5.407999999999999829e+01,6.556447608150048519e-03
5.411999999999999744e+01,7.485755138700848736e-03
5.415999999999999659e+01,8.611936290921219997e-03
5.420000000000000284e+01,8.489771454689466756e-03
5.424000000000000199e+01,4.031746135048856761e-03
5.428000000000000114e+01,1.060974034258818123e-02
5.432000000000000028e+01,6.873920462985365701e-03
5.435999999999999943e+01,7.933399325255633891e-03
5.439999999999999858e+01,1.129188859298283117e-02
5.443999999999999773e+01,8.869297321311780946e-03
5.447999999999999687e+01,9.665401367671461533e-03
5.452000000000000313e+01,9.081774943056931948e-03
5.456000000000000227e+01,1.112561745499868714e-02
5.460000000000000142e+01,1.126419490988518797e-02
5.464000000000000057e+01,8.577822060741929419e-03
5.467999999999999972e+01,8.584609609147616019e-03
5.471999999999999886e+01,1.016779692194756148e-02
5.475999999999999801e+01,1.056832848115200896e-02
5.479999999999999716e+01,9.523436993720444180e-03
5.484000000000000341e+01,1.123739725336359019e-02
5.488000000000000256e+01,9.338104995454706361e-03
5.492000000000000171e+01,9.737821693932899661e-03
5.496000000000000085e+01,8.692114899907432343e-03
5.500000000000000000e+01,9.814033248548438559e-03
5.503999999999999915e+01,9.884678654112381488e-03
5.507999999999999829e+01,9.429585368279532614e-03
5.511999999999999744e+01,1.035381534599160575e-02
5.515999999999999659e+01,8.715860752177661055e-03
5.520000000000000284e+01,8.325845608188026103e-03
5.524000000000000199e+01,1.154867443671819642e-02
5.528000000000000114e+01,1.326038708561601449e-02
5.532000000000000028e+01,8.796865970483130556e-03
5.535999999999999943e+01,7.354962334928707643e-03
5.539999999999999858e+01,1.005143658917366511e-02
5.543999999999999773e+01,9.922958310050616210e-03
5.547999999999999687e+01,1.051688433733628109e-02
5.552000000000000313e+01,1.196459815035054788e-02
5.556000000000000227e+01,8.353838052220454238e-03
5.560000000000000142e+01,1.229742864701200387e-02
5.564000000000000057e+01,8.817640473562936981e-03
5.567999999999999972e+01,1.216959302077431915e-02
5.571999999999999886e+01,1.249951686816907874e-02
5.575999999999999801e+01,1.085848063057474368e-02
5.579999999999999716e+01,1.276459500957005666e-02
5.584000000000000341e+01,1.040053624187345545e-02
5.588000000000000256e+01,1.033548375535804469e-02
5.592000000000000171e+01,9.678998441247322823e-03
5.596000000000000085e+01,7.708470438746955686e-03
5.600000000000000000e+01,1.145292174348389556e-02
5.603999999999999915e+01,9.350596254752719869e-03
5.607999999999999829e+01,9.744351876048421360e-03
5.611999999999999744e+01,9.743749498594423894e-03
5.615999999999999659e+01,1.263337878059386625e-02
5.620000000000000284e+01,8.887929278536764108e-03
5.624000000000000199e+01,9.280855325473860717e-03
5.628000000000000114e+01,9.739265495547445514e-03
5.632000000000000028e+01,1.032885147268398744e-02
5.635999999999999943e+01,8.619016715860784023e-03
5.639999999999999858e+01,1.006218013126312580e-02
5.643999999999999773e+01,1.347588929034292463e-02
5.647999999999999687e+01,8.874991181836376294e-03
5.652000000000000313e+01,1.038322170385767157e-02
5.656000000000000227e+01,1.274523711346787352e-02
5.660000000000000142e+01,1.234798855256305158e-02
5.664000000000000057e+01,6.432420503153439377e-03
5.667999999999999972e+01,1.129009811133548265e-02
5.671999999999999886e+01,1.023530523571851425e-02
5.675999999999999801e+01,9.443070531815306659e-03
5.679999999999999716e+01,1.003015440984671332e-02
5.684000000000000341e+01,1.232501573531284700e-02
5.688000000000000256e+01,1.002124203898036199e-02
5.692000000000000171e+01,1.192153379209798768e-02
5.696000000000000085e+01,1.119394416228517569e-02
5.700000000000000000e+01,1.276535769258005902e-02
5.703999999999999915e+01,1.335118450184567297e-02
5.707999999999999829e+01,1.144051318456691495e-02
5.711999999999999744e+01,1.117192673906109573e-02
5.715999999999999659e+01,9.589294261158315402e-03
5.720000000000000284e+01,1.102827413535603998e-02
5.724000000000000199e+01,1.181012570815695960e-02
5.728000000000000114e+01,1.239469143584798552e-02
5.732000000000000028e+01,1.120536811752053698e-02
5.735999999999999943e+01,8.307847437101143623e-03
5.739999999999999858e+01,1.506680988618121393e-02
5.743999999999999773e+01,1.400823777864923340e-02
5.747999999999999687e+01,1.104439258844435411e-02
5.752000000000000313e+01,1.386121426512756417e-02
5.756000000000000227e+01,1.010864516327260147e-02
5.760000000000000142e+01,1.023168063896326765e-02
5.764000000000000057e+01,1.186541594657024822e-02
5.767999999999999972e+01,1.106834325102256864e-02
5.771999999999999886e+01,1.099366861973654144e-02
5.775999999999999801e+01,1.131293296427826958e-02
5.779999999999999716e+01,9.595539743625019352e-03
5.784000000000000341e+01,1.168805863632252015e-02
5.788000000000000256e+01,9.313323311335389848e-03
5.792000000000000171e+01,1.304771271553423206e-02
5.796000000000000085e+01,9.293025091018173797e-03
5.800000000000000000e+01,1.000516708791924364e-02
5.803999999999999915e+01,9.140493418577654711e-03
5.807999999999999829e+01,1.195434760299857006e-02
5.811999999999999744e+01,1.122063203644098686e-02
5.815999999999999659e+01,1.147208048958263914e-02
5.820000000000000284e+01,1.040948001218761250e-02
5.824000000000000199e+01,1.059481051313158548e-02
5.828000000000000114e+01,1.163392110858726958e-02
5.832000000000000028e+01,1.451218861798876658e-02
5.835999999999999943e+01,1.174074825502146278e-02
5.839999999999999858e+01,9.888779447558532221e-03
5.843999999999999773e+01,1.132118671829547910e-02
5.847999999999999687e+01,1.143954427822736417e-02
5.852000000000000313e+01,1.050661919746085846e-02
5.856000000000000227e+01,1.009901445397066999e-02
5.860000000000000142e+01,1.093933968561731571e-02
5.864000000000000057e+01,9.677313215870413446e-03
5.867999999999999972e+01,1.183104574630871979e-02
5.871999999999999886e+01,1.378748841882830069e-02
5.875999999999999801e+01,1.127667442139118625e-02
5.879999999999999716e+01,1.172177652198474508e-02
5.884000000000000341e+01,1.183820483947203850e-02
5.888000000000000256e+01,1.320256235182777627e-02
5.892000000000000171e+01,9.574128385211971154e-03
5.896000000000000085e+01,1.172635727267539937e-02
5.900000000000000000e+01,8.951486253626897080e-03
5.903999999999999915e+01,1.097190093482279354e-02
5.907999999999999829e+01,8.853517031293717601e-03
5.911999999999999744e+01,1.205595296822245879e-02
5.915999999999999659e+01,1.230204241457360029e-02
5.920000000000000284e+01,1.294206682394366710e-02
5.924000000000000199e+01,1.220234760924396138e-02
5.928000000000000114e+01,9.360274909680117716e-03
5.932000000000000028e+01,1.446669330897555270e-02
5.935999999999999943e+01,1.155849641506698049e-02
5.939999999999999858e+01,1.403681037674124957e-02
5.943999999999999773e+01,1.290185911363553144e-02
5.947999999999999687e+01,1.156961587473975817e-02
5.952000000000000313e+01,1.194514261499564529e-02
5.956000000000000227e+01,1.205768536113425472e-02
5.960000000000000142e+01,9.542339367526254598e-03
5.964000000000000057e+01,1.234781176530620403e-02
5.967999999999999972e+01,1.173709365568489926e-02
5.971999999999999886e+01,1.165169265079947676e-02
5.975999999999999801e+01,1.064638914052822016e-02
5.979999999999999716e+01,1.318822510015545298e-02
5.984000000000000341e+01,1.329924703741479537e-02
5.988000000000000256e+01,1.301590049803478394e-02
5.992000000000000171e+01,1.273233614290888993e-02
5.996000000000000085e+01,1.481345849473261235e-02
