2.003999999999999915e+01,1.335226350462151608e-02
2.007999999999999829e+01,1.454823977992798778e-02
2.012000000000000099e+01,7.236705823933499947e-03
2.016000000000000014e+01,6.564940208329661693e-03
2.019999999999999929e+01,1.066547011443519898e-02
2.023999999999999844e+01,1.455836820094026131e-02
2.028000000000000114e+01,9.943755635730756534e-03
2.032000000000000028e+01,1.300639583137338032e-02
2.035999999999999943e+01,1.261061805735887512e-02
2.039999999999999858e+01,1.200720804332933503e-02
2.044000000000000128e+01,1.963437572330843303e-02
2.048000000000000043e+01,1.370493933379007996e-02
2.051999999999999957e+01,1.019616531916576856e-02
2.055999999999999872e+01,8.278065701630902065e-03
2.060000000000000142e+01,1.403721810922266104e-02
2.064000000000000057e+01,1.128885891916721687e-02
2.067999999999999972e+01,1.068449905935763521e-02
2.071999999999999886e+01,1.388411417009230431e-02
2.076000000000000156e+01,5.878756781590448351e-03
2.080000000000000071e+01,1.073807509707871283e-02
2.083999999999999986e+01,1.760306101028136228e-02
2.087999999999999901e+01,1.063477917871666692e-02
2.092000000000000171e+01,6.502152607360154983e-03
2.096000000000000085e+01,1.136092458030775118e-02
2.100000000000000000e+01,5.498883015805904745e-03
2.103999999999999915e+01,9.043233721751333526e-03
2.107999999999999829e+01,1.037414637522582339e-02
2.112000000000000099e+01,1.018327743170992575e-02
2.116000000000000014e+01,1.262056614960519602e-02
2.119999999999999929e+01,1.374357002847812967e-02
2.123999999999999844e+01,1.126982231329712834e-02
2.128000000000000114e+01,1.066340972757380372e-02
2.132000000000000028e+01,6.875239273939833494e-03
2.135999999999999943e+01,1.283928853021623802e-02
2.139999999999999858e+01,1.257829084180421726e-02
2.144000000000000128e+01,1.134883596404011839e-02
2.148000000000000043e+01,1.385418840379285844e-02
2.151999999999999957e+01,1.131030973653948668e-02
2.155999999999999872e+01,9.803777590317299881e-03
2.160000000000000142e+01,8.988763579730597170e-03
2.164000000000000057e+01,7.827782758799455703e-03
2.167999999999999972e+01,1.413655415702173498e-02
2.171999999999999886e+01,1.062366365468870102e-02
2.176000000000000156e+01,9.254769644803383793e-03
2.180000000000000071e+01,1.341898916912482795e-02
2.183999999999999986e+01,1.322563330619529534e-02
2.187999999999999901e+01,8.605536294852701718e-03
2.192000000000000171e+01,9.864380782698075473e-03
2.196000000000000085e+01,9.463110154259928020e-03
2.200000000000000000e+01,1.397246162998459773e-02
2.203999999999999915e+01,9.144309956733790920e-03
2.207999999999999829e+01,1.897913768167585821e-02
2.212000000000000099e+01,1.034659544772373145e-02
2.216000000000000014e+01,7.385497114162465487e-03
2.219999999999999929e+01,1.092583044858952933e-02
2.223999999999999844e+01,1.792430647933081558e-02
2.228000000000000114e+01,1.005202624580120961e-02
2.232000000000000028e+01,7.436195555897430996e-03
2.235999999999999943e+01,1.208261833021008654e-02
2.239999999999999858e+01,1.133397940494461874e-02
2.244000000000000128e+01,7.818573605217288280e-03
2.248000000000000043e+01,9.075457336292367533e-03
2.251999999999999957e+01,3.277303307076313670e-03
2.255999999999999872e+01,1.117380822999155913e-02
2.260000000000000142e+01,5.513703512916916412e-03
2.264000000000000057e+01,4.210893969879617865e-03
2.267999999999999972e+01,1.037783401840490505e-02
2.271999999999999886e+01,1.433133170521030952e-02
2.276000000000000156e+01,4.797384987669709930e-03
2.280000000000000071e+01,9.373090527989201559e-03
2.283999999999999986e+01,1.201201601551160278e-02
2.287999999999999901e+01,7.319240172576433473e-03
2.292000000000000171e+01,4.493795149850087281e-03
2.296000000000000085e+01,1.508634540398508424e-02
2.300000000000000000e+01,8.802333476289649072e-03
2.303999999999999915e+01,9.296413633639975457e-03
2.307999999999999829e+01,8.199541387863469935e-03
2.312000000000000099e+01,1.222078527152338848e-02
2.316000000000000014e+01,1.223027857980447074e-02
2.319999999999999929e+01,7.743861615194309878e-03
2.323999999999999844e+01,6.853916031424329112e-03
2.328000000000000114e+01,6.240490232586768000e-03
2.332000000000000028e+01,1.240515578306955469e-02
2.335999999999999943e+01,1.054646218126696795e-02
2.339999999999999858e+01,9.517613297553337293e-03
2.344000000000000128e+01,6.966976720838622891e-03
2.348000000000000043e+01,5.038687683830255469e-03
2.351999999999999957e+01,1.376176620989558175e-02
2.355999999999999872e+01,9.204895197717506694e-03
2.360000000000000142e+01,9.904470365849037117e-03
2.364000000000000057e+01,1.219471183809031981e-02
2.367999999999999972e+01,9.850710464079827020e-03
2.371999999999999886e+01,7.921559030978669175e-03
2.376000000000000156e+01,1.014220286083786227e-02
2.380000000000000071e+01,4.339486382271768097e-03
2.383999999999999986e+01,1.326891033339715718e-02
2.387999999999999901e+01,1.216916974019582875e-02
2.392000000000000171e+01,9.478474536691478339e-03
2.396000000000000085e+01,1.052258013427880522e-02
2.400000000000000000e+01,7.278270325077367681e-03
2.403999999999999915e+01,7.146270202234643668e-03
2.407999999999999829e+01,6.944959481959544004e-03
2.412000000000000099e+01,9.855958237835879196e-03
2.416000000000000014e+01,1.034601388008631224e-02
2.419999999999999929e+01,1.138924951411928940e-02
2.423999999999999844e+01,1.222484281818857037e-02
2.428000000000000114e+01,7.457872514633766096e-03
2.432000000000000028e+01,9.607322244925269039e-03
2.435999999999999943e+01,1.500741213286322338e-02
2.439999999999999858e+01,5.329243217862583010e-03
2.444000000000000128e+01,7.962415193954139672e-03
2.448000000000000043e+01,5.477182629312425666e-03
2.451999999999999957e+01,8.525056451830442458e-03
2.455999999999999872e+01,7.699507332459431044e-03
2.460000000000000142e+01,6.112989688724665069e-03
2.464000000000000057e+01,8.883761963845663440e-03
2.467999999999999972e+01,1.469767658760875832e-02
2.471999999999999886e+01,6.816644688772580812e-03
2.476000000000000156e+01,6.059528635818065521e-03
2.480000000000000071e+01,9.521370769187931585e-03
2.483999999999999986e+01,5.513175109905459233e-03
2.487999999999999901e+01,1.201801212805635524e-02
2.492000000000000171e+01,1.084531417517239742e-02
2.496000000000000085e+01,6.352517477830503696e-03
2.500000000000000000e+01,8.983635995748402367e-03
2.503999999999999915e+01,1.126877876951320329e-02
2.507999999999999829e+01,1.002632551533381815e-02
2.512000000000000099e+01,6.224595312924539013e-03
2.516000000000000014e+01,8.924289000834811567e-03
2.519999999999999929e+01,4.153943950160082776e-03
2.523999999999999844e+01,6.161685203831308681e-03
2.528000000000000114e+01,7.062627866084966038e-03
2.532000000000000028e+01,1.031505463473842039e-02
2.535999999999999943e+01,1.239151694570861557e-02
2.539999999999999858e+01,3.954651126005109991e-03
2.544000000000000128e+01,9.419933659146737318e-03
2.548000000000000043e+01,9.351815087613719532e-03
2.551999999999999957e+01,7.692737701632374435e-03
2.555999999999999872e+01,1.122093568982428236e-02
2.560000000000000142e+01,1.607510091604393487e-03
2.564000000000000057e+01,2.783777798082464564e-03
2.567999999999999972e+01,9.078154907364547818e-03
2.571999999999999886e+01,1.308991611609591765e-02
2.576000000000000156e+01,9.493305802674599156e-03
2.580000000000000071e+01,8.870669238935272038e-03
2.583999999999999986e+01,9.700361886489062072e-03
2.587999999999999901e+01,1.815032199644548349e-03
2.592000000000000171e+01,4.304401145422101678e-03
2.596000000000000085e+01,7.416111114480870500e-03
2.600000000000000000e+01,4.095265083758282271e-03
2.603999999999999915e+01,7.068343662900091091e-03
2.607999999999999829e+01,4.853847841104848640e-03
2.612000000000000099e+01,5.474993616045746581e-03
2.616000000000000014e+01,8.585952602326960004e-03
2.619999999999999929e+01,8.307643929879180572e-03
2.623999999999999844e+01,7.337528079877234446e-03
2.628000000000000114e+01,8.580562501671032752e-03
2.632000000000000028e+01,7.886807726651772626e-03
2.635999999999999943e+01,7.607895955702093788e-03
2.639999999999999858e+01,5.184697809556867119e-03
2.644000000000000128e+01,6.496293948078124027e-03
2.648000000000000043e+01,9.191051960175975616e-03
2.651999999999999957e+01,6.352406134904735498e-03
2.655999999999999872e+01,4.758590660885986603e-03
2.660000000000000142e+01,4.547936745132911789e-03
2.664000000000000057e+01,1.049287455057290770e-02
2.667999999999999972e+01,8.483610136184592185e-03
2.671999999999999886e+01,6.197531219348943569e-03
2.676000000000000156e+01,9.444552803869729618e-03
2.680000000000000071e+01,8.195654656172295452e-03
2.683999999999999986e+01,9.851561869404024466e-03
2.687999999999999901e+01,5.420739050866635496e-03
2.692000000000000171e+01,6.868844593563157644e-03
2.696000000000000085e+01,9.838442060709547826e-03
2.700000000000000000e+01,8.588781894353260046e-03
2.703999999999999915e+01,4.364845798442240285e-03
2.707999999999999829e+01,8.302304293278500377e-03
2.712000000000000099e+01,4.423890724263333102e-03
2.716000000000000014e+01,7.531055382795057845e-03
2.719999999999999929e+01,3.721501296027564763e-03
2.723999999999999844e+01,5.721709073606544640e-03
2.728000000000000114e+01,1.242502811349369130e-02
2.732000000000000028e+01,1.013665841101804403e-02
2.735999999999999943e+01,7.502306868378568090e-03
2.739999999999999858e+01,1.143853898631370068e-02
2.744000000000000128e+01,1.039469009796355203e-02
2.748000000000000043e+01,1.329312972976076992e-02
2.751999999999999957e+01,9.413181087546539094e-03
2.755999999999999872e+01,8.438035914396084872e-03
2.760000000000000142e+01,6.079423429583711951e-03
2.764000000000000057e+01,6.833111171803073723e-03
2.767999999999999972e+01,8.485798042081167669e-03
2.771999999999999886e+01,6.195888011224890898e-03
2.776000000000000156e+01,5.496633458804195925e-03
2.780000000000000071e+01,1.503374128701809656e-02
2.783999999999999986e+01,9.215918649147296707e-03
2.787999999999999901e+01,8.101205697030164701e-03
2.792000000000000171e+01,4.081380159136855507e-03
2.796000000000000085e+01,9.122100428470399092e-03
2.800000000000000000e+01,3.441988767218937678e-03
2.803999999999999915e+01,7.514079263571254129e-03
2.807999999999999829e+01,1.193184258847860418e-02
2.812000000000000099e+01,6.320430228074282696e-03
2.816000000000000014e+01,9.562066181203391843e-03
2.819999999999999929e+01,1.280354636728449000e-02
2.823999999999999844e+01,1.168743434953353755e-02
2.828000000000000114e+01,8.496196672774649489e-03
2.832000000000000028e+01,6.895613003000572970e-03
2.835999999999999943e+01,9.790640789561310189e-03
2.839999999999999858e+01,8.812235544284325803e-03
2.844000000000000128e+01,2.369587072722364410e-03
2.848000000000000043e+01,8.169103220727386497e-03
2.851999999999999957e+01,8.711872900415406143e-03
2.855999999999999872e+01,6.072865688435425194e-03
2.860000000000000142e+01,6.131162244649521025e-03
2.864000000000000057e+01,8.748431151837212164e-03
2.867999999999999972e+01,8.322254164162825110e-03
2.871999999999999886e+01,8.241748323385362021e-03
2.876000000000000156e+01,6.846937778999031936e-03
2.880000000000000071e+01,7.111945636412356567e-03
2.883999999999999986e+01,8.206783917820590843e-03
2.887999999999999901e+01,5.013193969797043008e-03
2.892000000000000171e+01,1.171013517921425801e-02
2.896000000000000085e+01,7.547910623442445795e-03
2.900000000000000000e+01,9.887099868041523965e-03
2.903999999999999915e+01,6.900375621917961833e-03
2.907999999999999829e+01,7.510107411504382026e-03
2.912000000000000099e+01,1.756440659284584779e-03
2.916000000000000014e+01,3.057512535488496937e-03
2.919999999999999929e+01,1.210497949559672867e-02
2.923999999999999844e+01,1.119243348354999334e-02
2.928000000000000114e+01,9.518906650014546250e-03
2.932000000000000028e+01,8.606043323172073156e-03
2.935999999999999943e+01,4.857229282881043476e-03
2.939999999999999858e+01,8.093987584333517740e-03
2.944000000000000128e+01,9.878108083298564254e-03
2.948000000000000043e+01,5.160497782407887611e-03
2.951999999999999957e+01,5.699318106489340008e-03
2.955999999999999872e+01,8.658777052043974479e-03
2.960000000000000142e+01,6.707314971775692712e-03
2.964000000000000057e+01,5.101521621020746466e-03
2.967999999999999972e+01,3.979728206792398394e-03
2.971999999999999886e+01,6.869383082966397380e-03
2.976000000000000156e+01,9.551381124875512121e-03
2.980000000000000071e+01,8.774936392670332555e-03
2.983999999999999986e+01,8.413325520518766254e-03
2.987999999999999901e+01,6.460744377623017960e-03
2.992000000000000171e+01,6.721303942092517365e-03
2.996000000000000085e+01,7.396697051304787496e-03
3.000000000000000000e+01,4.613646860884565784e-03
3.003999999999999915e+01,1.040697741989343207e-02
3.007999999999999829e+01,7.554440264681064332e-03
3.012000000000000099e+01,7.399202883724744113e-03
3.016000000000000014e+01,7.312970241700900847e-03
3.019999999999999929e+01,7.226576577447467627e-03
3.023999999999999844e+01,5.895039976809237151e-03
3.028000000000000114e+01,1.051158856475832570e-02
3.032000000000000028e+01,1.243051522888849979e-02
3.035999999999999943e+01,1.047600371110304213e-02
3.039999999999999858e+01,7.691342772868782311e-03
3.044000000000000128e+01,8.018974704412068499e-03
3.048000000000000043e+01,7.378125693182430861e-03
3.051999999999999957e+01,7.636268347653621044e-03
3.055999999999999872e+01,3.260150078048410904e-03
3.060000000000000142e+01,1.166336385105112318e-03
3.064000000000000057e+01,8.202227113503778727e-03
3.067999999999999972e+01,1.101885053886563111e-02
3.071999999999999886e+01,7.748733842509672974e-03
3.076000000000000156e+01,8.628394015978519890e-03
3.080000000000000071e+01,1.006121683913066903e-02
3.083999999999999986e+01,1.052555777357721579e-02
3.087999999999999901e+01,7.877281376403524535e-03
3.092000000000000171e+01,1.332122382397005374e-02
3.096000000000000085e+01,9.704302308684891604e-03
3.100000000000000000e+01,4.565573235812268003e-03
3.103999999999999915e+01,8.902375813537383858e-03
3.107999999999999829e+01,7.498265603904103425e-03
3.112000000000000099e+01,1.370221412108395438e-02
3.116000000000000014e+01,4.827886072811394050e-03
3.119999999999999929e+01,9.164034681876749230e-03
3.123999999999999844e+01,2.986839815138178124e-03
3.128000000000000114e+01,7.737654745602376774e-03
3.132000000000000028e+01,7.923372411079557254e-03
3.135999999999999943e+01,1.046055831230809433e-02
3.139999999999999858e+01,8.501812394400794226e-03
3.144000000000000128e+01,9.517025406563362974e-03
3.148000000000000043e+01,7.419619510551206908e-03
3.151999999999999957e+01,7.189521837466975041e-03
3.155999999999999872e+01,7.374253504980175615e-03
3.160000000000000142e+01,1.184709114725871447e-02
3.164000000000000057e+01,3.800780237002835456e-03
3.167999999999999972e+01,9.864098251600748879e-03
3.171999999999999886e+01,9.979004829006932198e-03
3.176000000000000156e+01,6.427966514045565898e-03
3.180000000000000071e+01,7.925855864974047996e-03
3.183999999999999986e+01,9.285248572307168088e-03
3.187999999999999901e+01,5.526217294735060945e-03
3.192000000000000171e+01,1.068939010701341202e-02
3.196000000000000085e+01,7.552518545491931391e-03
3.200000000000000000e+01,9.879568060692640180e-03
3.203999999999999915e+01,2.938253807068334951e-03
3.207999999999999829e+01,1.460860419958970400e-03
3.211999999999999744e+01,5.170725170027209473e-03
3.215999999999999659e+01,1.102455908559891312e-02
3.220000000000000284e+01,9.684998493683734735e-03
3.224000000000000199e+01,1.201105129034999233e-02
3.228000000000000114e+01,1.025616389195103256e-02
3.232000000000000028e+01,4.074507913091059141e-03
3.235999999999999943e+01,1.212636727209553435e-03
3.239999999999999858e+01,4.229679503364440485e-03
3.243999999999999773e+01,6.900727091194255002e-03
3.247999999999999687e+01,5.214171334206972944e-03
3.252000000000000313e+01,0.000000000000000000e+00
3.256000000000000227e+01,8.618792654133233810e-03
3.260000000000000142e+01,6.655072602880643569e-03
3.264000000000000057e+01,7.803639640705835843e-03
3.267999999999999972e+01,4.525437152137367150e-03
3.271999999999999886e+01,4.152024574264132593e-03
3.275999999999999801e+01,6.199242209573588291e-03
3.279999999999999716e+01,8.246291990917371806e-03
3.284000000000000341e+01,7.872375851147151923e-03
3.288000000000000256e+01,1.135051289829330226e-03
3.292000000000000171e+01,1.009816248449638132e-02
3.296000000000000085e+01,5.573802473391237765e-03
3.300000000000000000e+01,9.625815434046437052e-03
3.303999999999999915e+01,5.239449870986861817e-03
3.307999999999999829e+01,6.386168202909834994e-03
3.311999999999999744e+01,1.029934408237491439e-02
3.315999999999999659e+01,9.370755237852194247e-03
3.320000000000000284e+01,6.989518711100677593e-03
3.324000000000000199e+01,8.758052537748787017e-03
3.328000000000000114e+01,6.791471822032921213e-03
3.332000000000000028e+01,1.042714002673622575e-02
3.335999999999999943e+01,8.045226828940455280e-03
3.339999999999999858e+01,7.668948226318725997e-03
3.343999999999999773e+01,7.914990992599022293e-03
3.347999999999999687e+01,5.117575251581395548e-03
3.352000000000000313e+01,1.089653111597685756e-02
3.356000000000000227e+01,6.784628313083547815e-03
3.360000000000000142e+01,5.231684828313461558e-03
3.364000000000000057e+01,5.061884403569880640e-03
3.367999999999999972e+01,8.350196615501731881e-03
3.371999999999999886e+01,4.099282045716564314e-03
3.375999999999999801e+01,3.168148590282754938e-03
3.379999999999999716e+01,4.726808271395588172e-03
3.384000000000000341e+01,6.354463021906778773e-03
3.388000000000000256e+01,6.875296583719501045e-03
3.392000000000000171e+01,7.949284597132250801e-03
3.396000000000000085e+01,6.671469402587685595e-03
3.400000000000000000e+01,5.393483200968522337e-03
3.403999999999999915e+01,1.566599044892727846e-02
3.407999999999999829e+01,7.955255904414889820e-03
3.411999999999999744e+01,1.144918631898103438e-02
3.415999999999999659e+01,9.686355445618128127e-03
3.420000000000000284e+01,5.986714670026637222e-03
3.424000000000000199e+01,8.373479989879740321e-03
3.428000000000000114e+01,7.025128139778093021e-03
3.432000000000000028e+01,6.299095346298553416e-03
3.435999999999999943e+01,4.950399695285913337e-03
3.439999999999999858e+01,9.895606687478606528e-03
3.443999999999999773e+01,9.791548624192028538e-03
3.447999999999999687e+01,7.681514266893036715e-03
3.452000000000000313e+01,7.023786313399046043e-03
3.456000000000000227e+01,9.616671716125346769e-03
3.460000000000000142e+01,8.543604764126270720e-03
3.464000000000000057e+01,7.677862091569708988e-03
3.467999999999999972e+01,1.103105164474043644e-02
3.471999999999999886e+01,7.951662285538067115e-03
3.475999999999999801e+01,6.117081731343638334e-03
3.479999999999999716e+01,7.463948246689281613e-03
3.484000000000000341e+01,3.415720375227253910e-03
3.488000000000000256e+01,7.943860535654814412e-03
3.492000000000000171e+01,7.007740443009010702e-03
3.496000000000000085e+01,4.273139763282495819e-03
3.500000000000000000e+01,6.794955309330514420e-03
3.503999999999999915e+01,1.104573851706996263e-02
3.507999999999999829e+01,1.017808933161364580e-02
3.511999999999999744e+01,8.826106603772069029e-03
3.515999999999999659e+01,7.543115476908943302e-03
3.520000000000000284e+01,1.068655217760116835e-02
3.524000000000000199e+01,4.284954076944147774e-03
3.528000000000000114e+01,9.848840104003005191e-03
3.532000000000000028e+01,8.011826457316422248e-03
3.535999999999999943e+01,7.903779631492243579e-03
3.539999999999999858e+01,4.337275317045289139e-03
3.543999999999999773e+01,3.537222454129789351e-03
3.547999999999999687e+01,7.509424963336304611e-03
3.552000000000000313e+01,8.023169668609140409e-03
3.556000000000000227e+01,8.675070579882551702e-03
3.560000000000000142e+01,1.375339826767499503e-02
3.564000000000000057e+01,6.105069924394530834e-03
3.567999999999999972e+01,8.762248912391551459e-03
3.571999999999999886e+01,1.148841802991618956e-02
3.575999999999999801e+01,1.151695092952800641e-02
3.579999999999999716e+01,1.313611818174542645e-02
3.584000000000000341e+01,1.115849547708331647e-02
3.588000000000000256e+01,1.007985035423532814e-02
3.592000000000000171e+01,1.121433017320784715e-02
3.596000000000000085e+01,1.483859745313091671e-02
3.600000000000000000e+01,1.389775517094202911e-02
3.603999999999999915e+01,1.530836882737957039e-02
3.607999999999999829e+01,1.215387271149787236e-02
3.611999999999999744e+01,1.550077168754059910e-02
3.615999999999999659e+01,1.863999701273730616e-02
3.620000000000000284e+01,1.327166985497392655e-02
3.624000000000000199e+01,1.454306878594089324e-02
3.628000000000000114e+01,1.602178768710148943e-02
3.632000000000000028e+01,1.058376387933477464e-02
3.635999999999999943e+01,1.074798100411120463e-02
3.639999999999999858e+01,1.485446321092504830e-02
3.643999999999999773e+01,1.384250945101960992e-02
3.647999999999999687e+01,1.151623070250439723e-02
3.652000000000000313e+01,1.202556622378096914e-02
3.656000000000000227e+01,1.834463912025779964e-02
3.660000000000000142e+01,1.788529988419873193e-02
3.664000000000000057e+01,1.362167162101221227e-02
3.667999999999999972e+01,2.021687330997973264e-02
3.671999999999999886e+01,1.657537974817944321e-02
3.675999999999999801e+01,1.466284932861445199e-02
3.679999999999999716e+01,1.724590818851789997e-02
3.684000000000000341e+01,1.685466536847680594e-02
3.688000000000000256e+01,1.597908438149064914e-02
3.692000000000000171e+01,1.565664996333207201e-02
3.696000000000000085e+01,1.588736200889751676e-02
3.700000000000000000e+01,2.538609307644425217e-02
3.703999999999999915e+01,2.616977248567935871e-02
3.707999999999999829e+01,2.307999605558867101e-02
3.711999999999999744e+01,2.842825045946734130e-02
3.715999999999999659e+01,2.706725691541768050e-02
3.720000000000000284e+01,2.923353241498231891e-02
3.724000000000000199e+01,2.801051124721552418e-02
3.728000000000000114e+01,2.913894275986258012e-02
3.732000000000000028e+01,3.379464300081300165e-02
3.735999999999999943e+01,3.160276345620010446e-02
3.739999999999999858e+01,3.190066758880701764e-02
3.743999999999999773e+01,3.662499366316585708e-02
3.747999999999999687e+01,4.674406075899088797e-02
3.752000000000000313e+01,4.807890927920229623e-02
3.756000000000000227e+01,5.176520974410213360e-02
3.760000000000000142e+01,5.821795598493729323e-02
3.764000000000000057e+01,7.262457210098567650e-02
3.767999999999999972e+01,8.550936310714002397e-02
3.771999999999999886e+01,1.020597531026782856e-01
3.775999999999999801e+01,1.181258026189915822e-01
3.779999999999999716e+01,1.516905821261655685e-01
3.784000000000000341e+01,1.965983481298972380e-01
3.788000000000000256e+01,2.452408783586565999e-01
3.792000000000000171e+01,3.364201057561139740e-01
3.796000000000000085e+01,4.944823411497297205e-01
3.800000000000000000e+01,6.792423382644579011e-01
3.803999999999999915e+01,9.005907858115490550e-01
3.807999999999999829e+01,1.000000000000000000e+00
3.811999999999999744e+01,9.704842494628065364e-01
3.815999999999999659e+01,8.724943174899247866e-01
3.820000000000000284e+01,6.940645454781438906e-01
3.824000000000000199e+01,5.067122216867673279e-01
3.828000000000000114e+01,3.675681779149465034e-01
3.832000000000000028e+01,2.672950504896910440e-01
3.835999999999999943e+01,2.083828029240004376e-01
3.839999999999999858e+01,1.671767807407913142e-01
3.843999999999999773e+01,1.308121718080938745e-01
3.847999999999999687e+01,1.078655173720485805e-01
3.852000000000000313e+01,8.810030023090562046e-02
3.856000000000000227e+01,8.223719696861646333e-02
3.860000000000000142e+01,7.007983591101878129e-02
3.864000000000000057e+01,6.310971585870669975e-02
3.867999999999999972e+01,6.388596598073814636e-02
3.871999999999999886e+01,4.903059442426337122e-02
3.875999999999999801e+01,4.883815843776690563e-02
3.879999999999999716e+01,4.110648232139219038e-02
3.884000000000000341e+01,4.257365473617327756e-02
3.888000000000000256e+01,3.795406558809566455e-02
3.892000000000000171e+01,3.506343390665719872e-02
3.896000000000000085e+01,3.168845859288482031e-02
3.900000000000000000e+01,2.858996175831751696e-02
3.903999999999999915e+01,2.625210289026057991e-02
3.907999999999999829e+01,2.246158088974094941e-02
3.911999999999999744e+01,2.337413904085439142e-02
3.915999999999999659e+01,2.394068434623258454e-02
3.920000000000000284e+01,2.367705710836295538e-02
3.924000000000000199e+01,1.912497441922087274e-02
3.928000000000000114e+01,2.280341992027678719e-02
3.932000000000000028e+01,1.908095523722402528e-02
3.935999999999999943e+01,2.455733771897988110e-02
3.939999999999999858e+01,1.882869872320671462e-02
3.943999999999999773e+01,1.296154311414813784e-02
3.947999999999999687e+01,1.567074345006148547e-02
3.952000000000000313e+01,2.086972189270214911e-02
3.956000000000000227e+01,1.949777739331341048e-02
3.960000000000000142e+01,1.660400273905633661e-02
3.964000000000000057e+01,1.412503619446306424e-02
3.967999999999999972e+01,1.316752815136468073e-02
3.971999999999999886e+01,2.016388451809065716e-02
3.975999999999999801e+01,1.318859221901809084e-02
3.979999999999999716e+01,1.506631764832207926e-02
3.984000000000000341e+01,1.237892342556544401e-02
3.988000000000000256e+01,1.501709826199866364e-02
3.992000000000000171e+01,1.440430070127396087e-02
3.996000000000000085e+01,9.710542765586700764e-03
4.000000000000000000e+01,1.103401013436259258e-02
4.003999999999999915e+01,1.097397750424703583e-02
4.007999999999999829e+01,1.195124273218109781e-02
4.011999999999999744e+01,1.189083603130857217e-02
4.015999999999999659e+01,1.189940779346051504e-02
4.020000000000000284e+01,1.204612356959173028e-02
4.024000000000000199e+01,1.157016103795594636e-02
4.028000000000000114e+01,1.531311601753898577e-02
4.032000000000000028e+01,1.532093795651884825e-02
4.035999999999999943e+01,9.587822724097727276e-03
4.039999999999999858e+01,1.146274183444711756e-02
4.043999999999999773e+01,1.119333767822610834e-02
4.047999999999999687e+01,1.071624851996686237e-02
4.052000000000000313e+01,1.051563384697465700e-02
4.056000000000000227e+01,6.303222878523804737e-03
4.060000000000000142e+01,1.322629418630476283e-02
4.064000000000000057e+01,1.129597306433037865e-02
4.067999999999999972e+01,9.642126007208524571e-03
4.071999999999999886e+01,1.006305996735449258e-02
4.075999999999999801e+01,8.962160724626796332e-03
4.079999999999999716e+01,9.728545320784404149e-03
4.084000000000000341e+01,1.014891265685422504e-02
4.088000000000000256e+01,1.098408484437526401e-02
4.092000000000000171e+01,1.251072440247753478e-02
4.096000000000000085e+01,1.189303932766222829e-02
4.100000000000000000e+01,1.217431838139615766e-02
4.103999999999999915e+01,7.959640286018934696e-03
4.107999999999999829e+01,9.416356377014687556e-03
4.111999999999999744e+01,8.244587822269383928e-03
4.115999999999999659e+01,1.122256881040455817e-02
4.120000000000000284e+01,1.136456797441612841e-02
4.124000000000000199e+01,9.362241769784673817e-03
4.128000000000000114e+01,6.114743620165999892e-03
4.132000000000000028e+01,9.506958211116441418e-03
4.135999999999999943e+01,1.137733802263873016e-02
4.139999999999999858e+01,6.192630464955610654e-03
4.143999999999999773e+01,1.248923125662010358e-02
4.147999999999999687e+01,7.234976825074599521e-03
4.152000000000000313e+01,9.450422481281091358e-03
4.156000000000000227e+01,9.521541928015502670e-03
4.160000000000000142e+01,6.756678499589960016e-03
4.164000000000000057e+01,1.381314714959181941e-02
4.167999999999999972e+01,1.277704285378652126e-02
4.171999999999999886e+01,7.106648309991466655e-03
4.175999999999999801e+01,4.271854267412451833e-03
4.179999999999999716e+01,9.944244417736300065e-03
4.184000000000000341e+01,6.832404641254259149e-03
4.188000000000000256e+01,1.402605590498676343e-02
4.192000000000000171e+01,1.042967300601193095e-02
4.196000000000000085e+01,7.939748681274453462e-03
4.200000000000000000e+01,1.049872522100066263e-02
4.203999999999999915e+01,1.056754600971908549e-02
4.207999999999999829e+01,8.353707910501381034e-03
4.211999999999999744e+01,1.160376429678698293e-02
4.215999999999999659e+01,7.591234348722892232e-03
4.220000000000000284e+01,1.091007138953221933e-02
4.224000000000000199e+01,1.263790568257504993e-02
4.228000000000000114e+01,1.318973105909833007e-02
4.232000000000000028e+01,1.042141207618734432e-02
4.235999999999999943e+01,7.376237495309016790e-03
4.239999999999999858e+01,1.276907987472062148e-02
4.243999999999999773e+01,1.159099174464133658e-02
4.247999999999999687e+01,1.172685779062745265e-02
4.252000000000000313e+01,1.283084962728322023e-02
4.256000000000000227e+01,1.089135909811666039e-02
4.260000000000000142e+01,1.171830120693142033e-02
4.264000000000000057e+01,1.150756476541072923e-02
4.267999999999999972e+01,1.323327287896309233e-02
4.271999999999999886e+01,1.412879920014801019e-02
4.275999999999999801e+01,1.260333353451820876e-02
4.279999999999999716e+01,1.135433636324845522e-02
4.284000000000000341e+01,1.425508432050662244e-02
4.288000000000000256e+01,1.321319554235394871e-02
4.292000000000000171e+01,1.251694059930881509e-02
4.296000000000000085e+01,1.320380422714391433e-02
4.300000000000000000e+01,1.790208125097559472e-02
4.303999999999999915e+01,2.038686252044238228e-02
4.307999999999999829e+01,1.623154594270175693e-02
4.311999999999999744e+01,1.933842828039254724e-02
4.315999999999999659e+01,2.154596201351755003e-02
4.320000000000000284e+01,2.243915310062260388e-02
4.324000000000000199e+01,2.208716709266251091e-02
4.328000000000000114e+01,1.647839583314521586e-02
4.332000000000000028e+01,1.986096436500170773e-02
4.335999999999999943e+01,2.158336155013162311e-02
4.339999999999999858e+01,2.136892465919766268e-02
4.343999999999999773e+01,2.094679498855665789e-02
4.347999999999999687e+01,2.591939057383707903e-02
4.352000000000000313e+01,3.289759416307264095e-02
4.356000000000000227e+01,2.915492493641041322e-02
4.360000000000000142e+01,3.149863721094289110e-02
4.364000000000000057e+01,3.425714708477597265e-02
4.367999999999999972e+01,3.763795142098128738e-02
4.371999999999999886e+01,4.115689052204626192e-02
4.375999999999999801e+01,4.502146125104253965e-02
4.379999999999999716e+01,4.971582309527539795e-02
4.384000000000000341e+01,5.482498201329072396e-02
4.388000000000000256e+01,5.986477830757590962e-02
4.392000000000000171e+01,6.276024219127472603e-02
4.396000000000000085e+01,7.305623409534556245e-02
4.400000000000000000e+01,8.943860644957477013e-02
4.403999999999999915e+01,1.058899470717761804e-01
4.407999999999999829e+01,1.204736174872103466e-01
4.411999999999999744e+01,1.369937286739867921e-01
4.415999999999999659e+01,1.661017915599986294e-01
4.420000000000000284e+01,1.947946627011591936e-01
4.424000000000000199e+01,2.147724632653543742e-01
4.428000000000000114e+01,2.201561123825148125e-01
4.432000000000000028e+01,2.207671331078326360e-01
4.435999999999999943e+01,2.098964566985373204e-01
4.439999999999999858e+01,1.895498870752194975e-01
4.443999999999999773e+01,1.651223453053323464e-01
4.447999999999999687e+01,1.374438191564733014e-01
4.452000000000000313e+01,1.186874639898205935e-01
4.456000000000000227e+01,9.923925350815025748e-02
4.460000000000000142e+01,8.041333507146862514e-02
4.464000000000000057e+01,7.362204182431139610e-02
4.467999999999999972e+01,6.067480611821043229e-02
4.471999999999999886e+01,5.561225602792140704e-02
4.475999999999999801e+01,4.321794711548821583e-02
4.479999999999999716e+01,3.808583270413392480e-02
4.484000000000000341e+01,3.122437740116025193e-02
4.488000000000000256e+01,3.072596286029873058e-02
4.492000000000000171e+01,3.022734861907109410e-02
4.496000000000000085e+01,2.682357701792000698e-02
4.500000000000000000e+01,2.590956912429865852e-02
4.503999999999999915e+01,2.001543397879401720e-02
4.507999999999999829e+01,1.757938151542973865e-02
4.511999999999999744e+01,2.046888434267952334e-02
4.515999999999999659e+01,1.948491009966982906e-02
4.520000000000000284e+01,1.863906673268541161e-02
4.524000000000000199e+01,1.488806527005217921e-02
4.528000000000000114e+01,1.300433587469743829e-02
4.532000000000000028e+01,1.402536328239390936e-02
4.535999999999999943e+01,1.497702417752587618e-02
4.539999999999999858e+01,1.807261944885913893e-02
4.543999999999999773e+01,1.432061370369543292e-02
4.547999999999999687e+01,1.160589162759106258e-02
4.552000000000000313e+01,1.940414799544596530e-02
4.556000000000000227e+01,1.219325561659937752e-02
4.560000000000000142e+01,7.748787992961755390e-03
4.564000000000000057e+01,1.001318741475938461e-02
4.567999999999999972e+01,1.013324980141084089e-02
4.571999999999999886e+01,9.077294232630367735e-03
4.575999999999999801e+01,1.106442562287798456e-02
4.579999999999999716e+01,1.166804187931115566e-02
4.584000000000000341e+01,9.089835839307319060e-03
4.588000000000000256e+01,7.756409385501750881e-03
4.592000000000000171e+01,5.454461418921356664e-03
4.596000000000000085e+01,1.131385843417398104e-02
4.600000000000000000e+01,9.841493369069873390e-03
4.603999999999999915e+01,7.262275163763188233e-03
4.607999999999999829e+01,7.241983484246615477e-03
4.611999999999999744e+01,1.275474143592856408e-02
4.615999999999999659e+01,1.003658335807975678e-02
4.620000000000000284e+01,5.312418190854409708e-03
4.624000000000000199e+01,7.850443740977198354e-03
4.628000000000000114e+01,6.791651902172514757e-03
4.632000000000000028e+01,6.216816276783522326e-03
4.635999999999999943e+01,7.716746849050245063e-03
4.639999999999999858e+01,1.184476876233643040e-02
4.643999999999999773e+01,7.672708254308008118e-03
4.647999999999999687e+01,9.241193399720695756e-03
4.652000000000000313e+01,7.766185774051482735e-03
4.656000000000000227e+01,5.115157985774064324e-03
4.660000000000000142e+01,7.374687662925830979e-03
4.664000000000000057e+01,6.314061629451094698e-03
4.667999999999999972e+01,7.743194889153556457e-03
4.671999999999999886e+01,7.927141909774880826e-03
4.675999999999999801e+01,3.891779375699332480e-03
4.679999999999999716e+01,7.602765679930055878e-03
4.684000000000000341e+01,6.264454346555606290e-03
4.688000000000000256e+01,8.660883589891770276e-03
4.692000000000000171e+01,7.252996794467066188e-03
4.696000000000000085e+01,7.089886747442568013e-03
4.700000000000000000e+01,6.926571534663060643e-03
4.703999999999999915e+01,4.895578337447584888e-03
4.707999999999999829e+01,4.801018133905624215e-03
4.711999999999999744e+01,4.567921137180926301e-03
4.715999999999999659e+01,6.617085204214566245e-03
4.720000000000000284e+01,4.170275936177724949e-03
4.724000000000000199e+01,3.037408336874086907e-03
4.728000000000000114e+01,5.431783295069460109e-03
4.732000000000000028e+01,1.066174414507603703e-02
4.735999999999999943e+01,9.113264589669708288e-03
4.739999999999999858e+01,5.489609135719454233e-03
4.743999999999999773e+01,8.298153373307356334e-03
4.747999999999999687e+01,8.962355846085633820e-03
4.752000000000000313e+01,7.897210385301198926e-03
4.756000000000000227e+01,6.140201726726705368e-03
4.760000000000000142e+01,7.218778224237985298e-03
4.764000000000000057e+01,1.016462058791350528e-02
4.767999999999999972e+01,8.061163106807581538e-03
4.771999999999999886e+01,9.000787434651798605e-03
4.775999999999999801e+01,6.551087452909390256e-03
4.779999999999999716e+01,8.804444815311956649e-03
4.784000000000000341e+01,5.662673632226456963e-03
4.788000000000000256e+01,9.644757545123353037e-03
4.792000000000000171e+01,6.295074332689161271e-03
4.796000000000000085e+01,5.988472298583296001e-03
4.800000000000000000e+01,8.586620025585297439e-03
4.803999999999999915e+01,5.374644745230559156e-03
4.807999999999999829e+01,3.960768518841689158e-03
4.811999999999999744e+01,5.589973050366616944e-03
4.815999999999999659e+01,5.973987559079658484e-03
4.820000000000000284e+01,4.006161442942461626e-03
4.824000000000000199e+01,7.917207667803405347e-03
4.828000000000000114e+01,5.464805006218445560e-03
4.832000000000000028e+01,8.752943163307535038e-03
4.835999999999999943e+01,6.230957472210823904e-03
4.839999999999999858e+01,1.062532854257404458e-02
4.843999999999999773e+01,7.134605872791586860e-03
4.847999999999999687e+01,9.107760977034954145e-03
4.852000000000000313e+01,5.409123124794862000e-03
4.856000000000000227e+01,6.413540619730691804e-03
4.860000000000000142e+01,9.285221458343595469e-03
4.864000000000000057e+01,4.410139343409532134e-03
4.867999999999999972e+01,6.728075878443622558e-03
4.871999999999999886e+01,9.668293632792345979e-03
4.875999999999999801e+01,8.112533953028936914e-03
4.879999999999999716e+01,9.254024964125487362e-03
4.884000000000000341e+01,9.772815070174193514e-03
4.888000000000000256e+01,7.524768828260365063e-03
4.892000000000000171e+01,4.515690158974609673e-03
4.896000000000000085e+01,8.561298091814759093e-03
4.900000000000000000e+01,8.318424928096245299e-03
4.903999999999999915e+01,8.421169518629621070e-03
4.907999999999999829e+01,5.203751987214939520e-03
4.911999999999999744e+01,8.764358013277984485e-03
4.915999999999999659e+01,1.066477745258781473e-02
4.920000000000000284e+01,5.994248619892954440e-03
4.924000000000000199e+01,2.706821856808115222e-03
4.928000000000000114e+01,3.499957644508054286e-03
4.932000000000000028e+01,4.362047826500777513e-03
4.935999999999999943e+01,1.124133871870679549e-02
4.939999999999999858e+01,7.607238418059990813e-03
4.943999999999999773e+01,6.670387126615035141e-03
4.947999999999999687e+01,5.179998904522529687e-03
4.952000000000000313e+01,3.274404958795712819e-03
4.956000000000000227e+01,6.763520293238247348e-03
4.960000000000000142e+01,3.543354992522916146e-03
4.964000000000000057e+01,6.824549258704406922e-03
4.967999999999999972e+01,6.163088921857601266e-03
4.971999999999999886e+01,5.501416272208824350e-03
4.975999999999999801e+01,4.493702924362335399e-03
4.979999999999999716e+01,6.667397232193959626e-03
4.984000000000000341e+01,4.275945612056968222e-03
4.988000000000000256e+01,7.348368087318700101e-03
4.992000000000000171e+01,9.037264603091885173e-03
4.996000000000000085e+01,1.121010776785025947e-02
5.000000000000000000e+01,9.924455081160224804e-03
5.003999999999999915e+01,5.041975125801299688e-03
5.007999999999999829e+01,4.032558650979262138e-03
5.011999999999999744e+01,8.072021704583634896e-03
5.015999999999999659e+01,7.684669301507176739e-03
5.020000000000000284e+01,6.052121515333589753e-03
5.024000000000000199e+01,6.909323668113967129e-03
5.028000000000000114e+01,7.420483756349410473e-03
5.032000000000000028e+01,7.862264299170005494e-03
5.035999999999999943e+01,6.574689446070001997e-03
5.039999999999999858e+01,7.569367143334159234e-03
5.043999999999999773e+01,3.791400367899967760e-03
5.047999999999999687e+01,5.546471767368426481e-03
5.052000000000000313e+01,7.370494408020712707e-03
5.056000000000000227e+01,6.842670222708462265e-03
5.060000000000000142e+01,6.937122316840107529e-03
5.064000000000000057e+01,7.930513209545736811e-03
5.067999999999999972e+01,8.370364018494851413e-03
5.071999999999999886e+01,7.634183734058063581e-03
5.075999999999999801e+01,9.456917678286432677e-03
5.079999999999999716e+01,3.256220369137989047e-03
5.084000000000000341e+01,4.456033002536892440e-03
5.088000000000000256e+01,6.139789867537426109e-03
5.092000000000000171e+01,7.892496922685452929e-03
5.096000000000000085e+01,6.463368228131594062e-03
5.100000000000000000e+01,7.316490507387410011e-03
5.103999999999999915e+01,1.114352021593347300e-02
5.107999999999999829e+01,6.255461374793129178e-03
5.111999999999999744e+01,6.416279434488380597e-03
5.115999999999999659e+01,8.444354111228272522e-03
5.120000000000000284e+01,8.120580280345509466e-03
5.124000000000000199e+01,8.419081047248547223e-03
5.128000000000000114e+01,7.264886625081155153e-03
5.132000000000000028e+01,5.626316093557557664e-03
5.135999999999999943e+01,2.258387538522600366e-03
5.139999999999999858e+01,5.737642206116724646e-03
5.143999999999999773e+01,8.386692168751676973e-03
5.147999999999999687e+01,9.444715104681190160e-03
5.152000000000000313e+01,6.283415978581635523e-03
5.156000000000000227e+01,5.058538074548829359e-03
5.160000000000000142e+01,5.977578255654393373e-03
5.164000000000000057e+01,1.070051216219676353e-02
5.167999999999999972e+01,3.250073139577217864e-03
5.171999999999999886e+01,5.413442741094546054e-03
5.175999999999999801e+01,4.809968427187842795e-03
5.179999999999999716e+01,5.105429863849798855e-03
5.184000000000000341e+01,8.028968347437269101e-03
5.188000000000000256e+01,4.450717173135123293e-03
5.192000000000000171e+01,5.852175141537507667e-03
5.196000000000000085e+01,5.939267446224553645e-03
5.200000000000000000e+01,7.547785880487875750e-03
5.203999999999999915e+01,4.314489981849144000e-03
5.207999999999999829e+01,7.928375519077766539e-03
5.211999999999999744e+01,8.567919226774448407e-03
5.215999999999999659e+01,6.371452311952367255e-03
5.220000000000000284e+01,8.255540275349934273e-03
5.224000000000000199e+01,8.617764871131486371e-03
5.228000000000000114e+01,9.671426988062836738e-03
5.232000000000000028e+01,8.234906342352982939e-03
5.235999999999999943e+01,6.659835134884626272e-03
5.239999999999999858e+01,9.926140496760400139e-03
5.243999999999999773e+01,8.212299162580953202e-03
5.247999999999999687e+01,5.253256454397364772e-03
5.252000000000000313e+01,8.242240497181738124e-03
5.256000000000000227e+01,8.395212866411028846e-03
5.260000000000000142e+01,5.158848208514263747e-03
5.264000000000000057e+01,4.827221119704057893e-03
5.267999999999999972e+01,7.192834526701501370e-03
5.271999999999999886e+01,7.483258056371974373e-03
5.275999999999999801e+01,6.597645132371319707e-03
5.279999999999999716e+01,7.025959267699025297e-03
5.284000000000000341e+01,6.900727643674098993e-03
5.288000000000000256e+01,6.982772371835543196e-03
5.292000000000000171e+01,6.718768098612376040e-03
5.296000000000000085e+01,4.932898565907787441e-03
5.300000000000000000e+01,7.573410089642312708e-03
5.303999999999999915e+01,6.478755149818752127e-03
5.307999999999999829e+01,8.772996215350704202e-03
5.311999999999999744e+01,6.502082734416245874e-03
5.315999999999999659e+01,6.513414551695354687e-03
5.320000000000000284e+01,8.253666313617005409e-03
5.324000000000000199e+01,5.567094525878182008e-03
5.328000000000000114e+01,7.652731339145159295e-03
5.332000000000000028e+01,7.040685794004911818e-03
5.335999999999999943e+01,8.849216333676881291e-03
5.339999999999999858e+01,8.651720865318559758e-03
5.343999999999999773e+01,8.868997245871028390e-03
5.347999999999999687e+01,4.797780758258068066e-03
5.352000000000000313e+01,6.397925769788565843e-03
5.356000000000000227e+01,6.891197881633717368e-03
5.360000000000000142e+01,1.042753635219508673e-02
5.364000000000000057e+01,7.877074476657565383e-03
5.367999999999999972e+01,7.539690876927977216e-03
5.371999999999999886e+01,9.692048072136354164e-03
5.375999999999999801e+01,9.146721752797563887e-03
5.379999999999999716e+01,9.846154209137883417e-03
5.384000000000000341e+01,9.023719093716927805e-03
5.388000000000000256e+01,7.094410237781546835e-03
5.392000000000000171e+01,5.372375001338090643e-03
5.396000000000000085e+01,5.586754680743475678e-03
5.400000000000000000e+01,5.800910801258260530e-03
5.403999999999999915e+01,7.121493754713554246e-03
5.407999999999999829e+01,7.681030722428374216e-03
5.411999999999999744e+01,7.825349879591212907e-03
5.415999999999999659e+01,1.045940867555205170e-02
5.420000000000000284e+01,7.075831310021575560e-03
5.424000000000000199e+01,8.602791335126603808e-03
5.428000000000000114e+01,8.538716976271922693e-03
5.432000000000000028e+01,5.915288943536036077e-03
5.435999999999999943e+01,6.819084864956350897e-03
5.439999999999999858e+01,8.690975361267623545e-03
5.443999999999999773e+01,9.317659333496791652e-03
5.447999999999999687e+01,8.422474052306550690e-03
5.452000000000000313e+01,5.382928508067481681e-03
5.456000000000000227e+01,6.631428609109033152e-03
5.460000000000000142e+01,9.954673256458148808e-03
5.464000000000000057e+01,6.361127057416532740e-03
5.467999999999999972e+01,6.571466595935696389e-03
5.471999999999999886e+01,8.994881677568370912e-03
5.475999999999999801e+01,1.169473382757512704e-02
5.479999999999999716e+01,1.024442095311343254e-02
5.484000000000000341e+01,6.096421726306477940e-03
5.488000000000000256e+01,8.449768297820573620e-03
5.492000000000000171e+01,9.972901020359494634e-03
5.496000000000000085e+01,9.075009699475951319e-03
5.500000000000000000e+01,1.170434065109045817e-02
5.503999999999999915e+01,1.094432816425737823e-02
5.507999999999999829e+01,9.008273127742482192e-03
5.511999999999999744e+01,9.907783487830544925e-03
5.515999999999999659e+01,4.167164259414349488e-03
5.520000000000000284e+01,7.210356638418007058e-03
5.524000000000000199e+01,8.040021206449027638e-03
5.528000000000000114e+01,7.347814418988000799e-03
5.532000000000000028e+01,9.076178566261234801e-03
5.535999999999999943e+01,6.931038841848861064e-03
5.539999999999999858e+01,6.722310249554558012e-03
5.543999999999999773e+01,6.928348250989458355e-03
5.547999999999999687e+01,9.209128486451990253e-03
5.552000000000000313e+01,1.121301854485224139e-02
5.556000000000000227e+01,8.997575925756631787e-03
5.560000000000000142e+01,7.473562104209342111e-03
5.564000000000000057e+01,1.148257289919620179e-02
5.567999999999999972e+01,1.078809110896737471e-02
5.571999999999999886e+01,7.949245902580726053e-03
5.575999999999999801e+01,8.845117939898399992e-03
5.579999999999999716e+01,1.050158390530466987e-02
5.584000000000000341e+01,9.667857858950164654e-03
5.588000000000000256e+01,8.557240689600686262e-03
5.592000000000000171e+01,1.007468984660626551e-02
5.596000000000000085e+01,9.862768893182801214e-03
5.600000000000000000e+01,1.006561306203765556e-02
5.603999999999999915e+01,9.438240439015659414e-03
5.607999999999999829e+01,8.672307479597391941e-03
5.611999999999999744e+01,9.704452448314956903e-03
5.615999999999999659e+01,6.586428819040601040e-03
5.620000000000000284e+01,1.114556367266058938e-02
5.624000000000000199e+01,6.851265106108757677e-03
5.628000000000000114e+01,1.078745006071136180e-02
5.632000000000000028e+01,9.051821563622254596e-03
5.635999999999999943e+01,1.015175520492353836e-02
5.639999999999999858e+01,6.755691337318971666e-03
5.643999999999999773e+01,8.823484328117487535e-03
5.647999999999999687e+01,7.916924033088175092e-03
5.652000000000000313e+01,9.292600207567325993e-03
5.656000000000000227e+01,1.094470872075713891e-02
5.660000000000000142e+01,7.616659607114028771e-03
5.664000000000000057e+01,1.058245469905687124e-02
5.667999999999999972e+01,9.398079826660578687e-03
5.671999999999999886e+01,1.298590451635773212e-02
5.675999999999999801e+01,1.090191459822323176e-02
5.679999999999999716e+01,9.232687700294417779e-03
5.684000000000000341e+01,9.499868150752934295e-03
5.688000000000000256e+01,7.415185168873086874e-03
5.692000000000000171e+01,8.996050726633784619e-03
5.696000000000000085e+01,1.043835363571830356e-02
5.700000000000000000e+01,8.422142300218827746e-03
5.703999999999999915e+01,1.055563878145795997e-02
5.707999999999999829e+01,7.778142030678999314e-03
5.711999999999999744e+01,9.842009447015586526e-03
5.715999999999999659e+01,9.969006631638925933e-03
5.720000000000000284e+01,5.323341581050100926e-03
5.724000000000000199e+01,7.248181783726432084e-03
5.728000000000000114e+01,7.651145375729127319e-03
5.732000000000000028e+01,6.117238315604000068e-03
5.735999999999999943e+01,8.456375607154759111e-03
5.739999999999999858e+01,9.342801628779397877e-03
5.743999999999999773e+01,1.002149808442584673e-02
5.747999999999999687e+01,1.187577799015886518e-02
5.752000000000000313e+01,9.856548348610168209e-03
5.756000000000000227e+01,1.032704941205075944e-02
5.760000000000000142e+01,1.107398008150758083e-02
5.764000000000000057e+01,9.607376633773867525e-03
5.767999999999999972e+01,7.863877333381751045e-03
5.771999999999999886e+01,1.123840324778438600e-02
5.775999999999999801e+01,1.150024120092611735e-02
5.779999999999999716e+01,1.259183348303328197e-02
5.784000000000000341e+01,1.271487293148330575e-02
5.788000000000000256e+01,1.048604632000415225e-02
5.792000000000000171e+01,1.095444643575689200e-02
5.796000000000000085e+01,8.379323720788971197e-03
5.800000000000000000e+01,8.847255803137782024e-03
5.803999999999999915e+01,1.256573954587493665e-02
5.807999999999999829e+01,1.358652842287266793e-02
5.811999999999999744e+01,1.101046880026786481e-02
5.815999999999999659e+01,9.817487809163151155e-03
5.820000000000000284e+01,1.215172068226595854e-02
5.824000000000000199e+01,1.068160777228006550e-02
5.828000000000000114e+01,1.239288023600230645e-02
5.832000000000000028e+01,9.193156209493886719e-03
5.835999999999999943e+01,8.137332505610012784e-03
5.839999999999999858e+01,1.033205951618180497e-02
5.843999999999999773e+01,7.131630128803081829e-03
5.847999999999999687e+01,1.299166635458006910e-02
5.852000000000000313e+01,8.407453079934587223e-03
5.856000000000000227e+01,6.797127475096552407e-03
5.860000000000000142e+01,9.958996492481294802e-03
5.864000000000000057e+01,9.454849987857836743e-03
5.867999999999999972e+01,9.157964595394129173e-03
5.871999999999999886e+01,6.924204872175520817e-03
5.875999999999999801e+01,7.802663605363018007e-03
5.879999999999999716e+01,8.888383135399361562e-03
5.884000000000000341e+01,9.835535076888826320e-03
5.888000000000000256e+01,7.116670865748343094e-03
5.892000000000000171e+01,8.270846907242064561e-03
5.896000000000000085e+01,8.871461108527493172e-03
5.900000000000000000e+01,9.126010332676261910e-03
5.903999999999999915e+01,1.256194293356414221e-02
5.907999999999999829e+01,1.253935582447916058e-02
5.911999999999999744e+01,9.957402429077184119e-03
5.915999999999999659e+01,1.194014521627182433e-02
5.920000000000000284e+01,8.873557888839037761e-03
5.924000000000000199e+01,9.887506941386698528e-03
5.928000000000000114e+01,1.055539028107225184e-02
5.932000000000000028e+01,9.978054274032607460e-03
5.935999999999999943e+01,1.272043211501988277e-02
5.939999999999999858e+01,7.923515697758452478e-03
5.943999999999999773e+01,1.191039974693186912e-02
5.947999999999999687e+01,1.008713072910981043e-02
5.952000000000000313e+01,9.024445864738602635e-03
5.956000000000000227e+01,9.759829889590898588e-03
5.960000000000000142e+01,1.173995745009570948e-02
5.964000000000000057e+01,1.240569916698785330e-02
5.967999999999999972e+01,8.575434756476351880e-03
5.971999999999999886e+01,7.511557999591697045e-03
5.975999999999999801e+01,1.059738191239869599e-02
5.979999999999999716e+01,1.015551856730904576e-02
5.984000000000000341e+01,9.990078942432218528e-03
5.988000000000000256e+01,1.314435179923511762e-02
5.992000000000000171e+01,9.935145184435228635e-03
5.996000000000000085e+01,1.018398215322459908e-02
