2.003999999999999915e+01,2.433925590528022292e-02
2.007999999999999829e+01,2.560893651036172738e-02
2.012000000000000099e+01,2.884390814167871533e-02
2.016000000000000014e+01,2.676255060453611861e-02
2.019999999999999929e+01,1.948044392178961692e-02
2.023999999999999844e+01,3.415918141169936584e-02
2.028000000000000114e+01,3.473741078317942738e-02
2.032000000000000028e+01,2.872791227663124697e-02
2.035999999999999943e+01,3.080950384320481697e-02
2.039999999999999858e+01,2.584104005706419974e-02
2.044000000000000128e+01,3.150645145773774830e-02
2.048000000000000043e+01,3.231784885919191525e-02
2.051999999999999957e+01,1.902873075894839089e-02
2.055999999999999872e+01,2.145905930344864723e-02
2.060000000000000142e+01,3.082465800381086612e-02
2.064000000000000057e+01,2.181323113507216069e-02
2.067999999999999972e+01,2.690310967185479199e-02
2.071999999999999886e+01,2.956617314753261574e-02
2.076000000000000156e+01,1.812871373824475815e-02
2.080000000000000071e+01,3.096370634197126784e-02
2.083999999999999986e+01,2.611515474426841579e-02
2.087999999999999901e+01,3.016674599640092186e-02
2.092000000000000171e+01,2.728384715213765313e-02
2.096000000000000085e+01,2.625063223927089767e-02
2.100000000000000000e+01,3.099686264282785000e-02
2.103999999999999915e+01,2.903976176515331645e-02
2.107999999999999829e+01,1.957025960190858158e-02
2.112000000000000099e+01,1.460880527606253122e-02
2.116000000000000014e+01,1.750725390564671080e-02
2.119999999999999929e+01,2.676304796592704829e-02
2.123999999999999844e+01,2.191830437470561332e-02
2.128000000000000114e+01,3.048136021044054594e-02
2.132000000000000028e+01,2.644643222777370503e-02
2.135999999999999943e+01,1.281863178453864806e-02
2.139999999999999858e+01,2.115163982816467905e-02
2.144000000000000128e+01,2.497734809969681322e-02
2.148000000000000043e+01,2.152180528701033366e-02
2.151999999999999957e+01,3.124289201121376383e-02
2.155999999999999872e+01,2.039088104920462607e-02
2.160000000000000142e+01,3.126850991453466316e-02
2.164000000000000057e+01,1.706536974999513581e-02
2.167999999999999972e+01,1.442071665257851389e-02
2.171999999999999886e+01,2.529943069952608758e-02
2.176000000000000156e+01,1.421806586674754895e-02
2.180000000000000071e+01,2.116773459981147534e-02
2.183999999999999986e+01,2.488148504272577610e-02
2.187999999999999901e+01,2.235420337656731510e-02
2.192000000000000171e+01,2.294796989612423593e-02
2.196000000000000085e+01,2.885882718543614223e-02
2.200000000000000000e+01,2.471446731186868404e-02
2.203999999999999915e+01,2.981695836253868762e-02
2.207999999999999829e+01,1.931632962607964660e-02
2.212000000000000099e+01,1.690673681877716966e-02
2.216000000000000014e+01,1.819609108091787067e-02
2.219999999999999929e+01,1.937020981978450351e-02
2.223999999999999844e+01,2.840419828937526536e-02
2.228000000000000114e+01,1.732739193654610557e-02
2.232000000000000028e+01,2.867369078164713758e-02
2.235999999999999943e+01,2.037151735683561879e-02
2.239999999999999858e+01,9.295733427845752350e-03
2.244000000000000128e+01,2.318583857993399347e-02
2.248000000000000043e+01,2.713629305600593830e-02
2.251999999999999957e+01,1.895105181093275845e-02
2.255999999999999872e+01,2.082171426681045379e-02
2.260000000000000142e+01,2.373294142795924835e-02
2.264000000000000057e+01,2.606659451624590909e-02
2.267999999999999972e+01,1.730477824180129756e-02
2.271999999999999886e+01,1.640281693154482107e-02
2.276000000000000156e+01,2.174257180734323960e-02
2.280000000000000071e+01,1.621801613557478580e-02
2.283999999999999986e+01,2.155842432473881187e-02
2.287999999999999901e+01,1.834614457323001380e-02
2.292000000000000171e+01,2.264696987298833383e-02
2.296000000000000085e+01,2.613904874872894496e-02
2.300000000000000000e+01,1.252542324062407529e-02
2.303999999999999915e+01,2.341534334183051347e-02
2.307999999999999829e+01,5.179106244588361878e-03
2.312000000000000099e+01,3.213545665401979640e-02
2.316000000000000014e+01,1.840752206399615815e-02
2.319999999999999929e+01,1.092129012403619294e-02
2.323999999999999844e+01,1.799860984833555680e-02
2.328000000000000114e+01,2.600089210524732936e-02
2.332000000000000028e+01,1.701304138735547020e-02
2.335999999999999943e+01,1.056828828857507042e-02
2.339999999999999858e+01,2.735567593681322018e-02
2.344000000000000128e+01,1.975572670106670939e-02
2.348000000000000043e+01,1.238724632481426856e-02
2.351999999999999957e+01,1.669277766402919166e-02
2.355999999999999872e+01,6.204212459756696871e-03
2.360000000000000142e+01,1.467127547401004400e-02
2.364000000000000057e+01,1.608818346143098613e-02
2.367999999999999972e+01,8.952378897285702755e-03
2.371999999999999886e+01,1.742034251145633747e-02
2.376000000000000156e+01,1.779791612656801691e-02
2.380000000000000071e+01,3.088972412392703565e-02
2.383999999999999986e+01,1.462418903569024861e-02
2.387999999999999901e+01,2.043496739394433034e-02
2.392000000000000171e+01,2.324092598052435871e-02
2.396000000000000085e+01,1.841881342891882670e-02
2.400000000000000000e+01,2.284349150486208319e-02
2.403999999999999915e+01,2.553473990488820677e-02
2.407999999999999829e+01,1.805512590031300990e-02
2.412000000000000099e+01,2.074694885884595039e-02
2.416000000000000014e+01,1.419255697888167217e-02
2.419999999999999929e+01,1.353309322516684822e-02
2.423999999999999844e+01,2.373855026332118839e-02
2.428000000000000114e+01,1.741616980719649932e-02
2.432000000000000028e+01,5.546169699169335374e-03
2.435999999999999943e+01,1.644595579149195005e-02
2.439999999999999858e+01,1.509440707367083051e-02
2.444000000000000128e+01,1.986894160562958575e-02
2.448000000000000043e+01,2.892025810243666756e-02
2.451999999999999957e+01,8.498629340989610412e-03
2.455999999999999872e+01,2.217374346028773771e-02
2.460000000000000142e+01,1.585357263897436281e-02
2.464000000000000057e+01,8.955766217565575352e-03
2.467999999999999972e+01,8.068454409269357197e-03
2.471999999999999886e+01,1.457861102433120545e-02
2.476000000000000156e+01,1.195811559612493247e-02
2.480000000000000071e+01,1.349881103501056681e-02
2.483999999999999986e+01,1.087884586570313575e-02
2.487999999999999901e+01,7.681237713032244840e-03
2.492000000000000171e+01,1.870038578154719147e-02
2.496000000000000085e+01,2.070445690746973433e-02
2.500000000000000000e+01,1.820111874282310388e-02
2.503999999999999915e+01,1.119037005706259233e-02
2.507999999999999829e+01,6.607084823593656862e-03
2.512000000000000099e+01,1.242636829641448337e-02
2.516000000000000014e+01,7.381268619533086148e-03
2.519999999999999929e+01,1.192966641405787502e-02
2.523999999999999844e+01,8.272047425971968890e-03
2.528000000000000114e+01,1.293652966081204093e-02
2.532000000000000028e+01,1.690777412289821285e-02
2.535999999999999943e+01,1.845206078069819636e-02
2.539999999999999858e+01,1.144358197351117747e-02
2.544000000000000128e+01,1.761161210983681891e-02
2.548000000000000043e+01,2.285523704443141041e-02
2.551999999999999957e+01,7.178898708693809763e-03
2.555999999999999872e+01,2.367440556851320866e-03
2.560000000000000142e+01,1.639596784290218642e-02
2.564000000000000057e+01,1.262522200876436095e-02
2.567999999999999972e+01,2.318679026886278846e-02
2.571999999999999886e+01,2.184372687104110464e-02
2.576000000000000156e+01,8.596030584754396978e-03
2.580000000000000071e+01,5.172975818502333414e-03
2.583999999999999986e+01,1.273037387573188774e-02
2.587999999999999901e+01,1.150382919464023636e-02
2.592000000000000171e+01,1.443844092538977900e-02
2.596000000000000085e+01,1.147863879170796068e-02
2.600000000000000000e+01,1.476045316996307984e-02
2.603999999999999915e+01,1.838923890625278681e-02
2.607999999999999829e+01,5.490131773753420368e-03
2.612000000000000099e+01,9.581694027679919096e-03
2.616000000000000014e+01,2.476928051412988219e-02
2.619999999999999929e+01,9.443638778857109742e-03
2.623999999999999844e+01,1.041517521798112321e-02
2.628000000000000114e+01,1.346739443285926117e-02
2.632000000000000028e+01,2.068075775413196968e-02
2.635999999999999943e+01,1.125063833940374153e-02
2.639999999999999858e+01,2.135396727207046486e-02
2.644000000000000128e+01,1.331125471345777356e-02
2.648000000000000043e+01,1.185688766044350195e-02
2.651999999999999957e+01,1.282993976011283233e-02
2.655999999999999872e+01,2.027575365089216361e-02
2.660000000000000142e+01,7.379477313629031338e-03
2.664000000000000057e+01,1.239850439290453819e-02
2.667999999999999972e+01,8.980307883162905527e-03
2.671999999999999886e+01,1.515556208413012217e-02
2.676000000000000156e+01,1.821032789135283367e-02
2.680000000000000071e+01,1.144089137713438266e-02
2.683999999999999986e+01,2.166210209953770699e-02
2.687999999999999901e+01,7.842613871312548168e-03
2.692000000000000171e+01,1.136051417881742479e-02
2.696000000000000085e+01,1.788372637001041376e-02
2.700000000000000000e+01,1.331133629964805810e-02
2.703999999999999915e+01,1.417146197326707956e-02
2.707999999999999829e+01,1.803689583894024090e-02
2.712000000000000099e+01,1.196253628541577019e-02
2.716000000000000014e+01,1.097394502404118108e-02
2.719999999999999929e+01,1.010112692810744006e-02
2.723999999999999844e+01,1.743476850501184811e-02
2.728000000000000114e+01,1.066768661816978186e-02
2.732000000000000028e+01,6.645178565586452955e-04
2.735999999999999943e+01,1.782313063361569416e-02
2.739999999999999858e+01,8.629403394980136172e-03
2.744000000000000128e+01,8.335617196854437291e-03
2.748000000000000043e+01,1.636386454169804633e-02
2.751999999999999957e+01,1.491463117549408739e-02
2.755999999999999872e+01,7.917678483269534676e-03
2.760000000000000142e+01,4.041599239417581133e-03
2.764000000000000057e+01,1.380428627271820460e-02
2.767999999999999972e+01,2.183343165053699964e-02
2.771999999999999886e+01,1.518393376162204510e-02
2.776000000000000156e+01,1.431367322708206047e-02
2.780000000000000071e+01,1.968497382996896652e-02
2.783999999999999986e+01,1.199576502207652141e-02
2.787999999999999901e+01,7.196258541945754414e-03
2.792000000000000171e+01,2.019643484752496956e-02
2.796000000000000085e+01,1.643749794191743524e-02
2.800000000000000000e+01,1.082942828307150405e-02
2.803999999999999915e+01,1.527709374055710376e-02
2.807999999999999829e+01,7.588892431188825824e-03
2.812000000000000099e+01,4.639686120700868208e-03
2.816000000000000014e+01,2.411340534862184415e-02
2.819999999999999929e+01,1.573220365576749255e-02
2.823999999999999844e+01,1.336138705755043725e-02
2.828000000000000114e+01,1.480491050884170240e-02
2.832000000000000028e+01,2.040951653929415702e-02
2.835999999999999943e+01,1.364708468228166376e-02
2.839999999999999858e+01,9.774339155950100000e-03
2.844000000000000128e+01,2.312335415125202701e-02
2.848000000000000043e+01,9.773252145957813178e-03
2.851999999999999957e+01,9.021658065240929086e-03
2.855999999999999872e+01,1.196881416682040421e-02
2.860000000000000142e+01,7.518918893831406762e-03
2.864000000000000057e+01,1.358706529260061101e-02
2.867999999999999972e+01,6.132351425555768003e-03
2.871999999999999886e+01,1.509032069253760273e-02
2.876000000000000156e+01,1.815378995696134354e-02
2.880000000000000071e+01,2.399135199322017728e-02
2.883999999999999986e+01,1.029582366472949102e-02
2.887999999999999901e+01,2.032754475165480645e-03
2.892000000000000171e+01,9.951199760106442180e-03
2.896000000000000085e+01,1.960350161411134051e-02
2.900000000000000000e+01,1.527060834434814697e-02
2.903999999999999915e+01,1.602342553113547674e-02
2.907999999999999829e+01,8.338945296225660705e-03
2.912000000000000099e+01,1.833852967728663921e-02
2.916000000000000014e+01,1.539314529299352398e-02
2.919999999999999929e+01,6.322084863352640631e-03
2.923999999999999844e+01,5.341841325917389381e-03
2.928000000000000114e+01,1.430171350452985081e-02
2.932000000000000028e+01,8.929636954819408778e-03
2.935999999999999943e+01,1.858324880963091799e-02
2.939999999999999858e+01,1.390490947503013330e-02
2.944000000000000128e+01,1.523691831872666519e-02
2.948000000000000043e+01,1.379509885183864519e-02
2.951999999999999957e+01,2.414268777211715788e-02
2.955999999999999872e+01,1.264553910985858655e-02
2.960000000000000142e+01,1.779220901644234382e-02
2.964000000000000057e+01,5.023901494971515051e-03
2.967999999999999972e+01,1.525637901820812298e-02
2.971999999999999886e+01,2.098130204660468567e-02
2.976000000000000156e+01,2.000262553503229929e-02
2.980000000000000071e+01,1.289825451994215839e-02
2.983999999999999986e+01,2.442137852369759450e-03
2.987999999999999901e+01,1.071029370101198551e-02
2.992000000000000171e+01,1.331507636809916607e-02
2.996000000000000085e+01,1.407066598525927650e-02
3.000000000000000000e+01,8.353811185980764692e-03
3.003999999999999915e+01,1.546658005738061302e-02
3.007999999999999829e+01,2.431317104259358292e-02
3.012000000000000099e+01,1.975243871578374194e-02
3.016000000000000014e+01,1.160878838533593860e-02
3.019999999999999929e+01,1.583243178979102869e-02
3.023999999999999844e+01,1.855361729070389293e-02
3.028000000000000114e+01,1.110374965259198522e-02
3.032000000000000028e+01,1.521210328395488677e-02
3.035999999999999943e+01,1.596869526575475651e-02
3.039999999999999858e+01,1.591631194222874537e-02
3.044000000000000128e+01,1.447704581583633687e-02
3.048000000000000043e+01,1.176647690943197558e-02
3.051999999999999957e+01,1.425715418282463669e-02
3.055999999999999872e+01,1.489861994812021612e-02
3.060000000000000142e+01,1.253506044078228979e-02
3.064000000000000057e+01,1.930250603717915611e-02
3.067999999999999972e+01,2.110004259206741187e-02
3.071999999999999886e+01,1.654069383411213914e-02
3.076000000000000156e+01,1.059445242893313106e-02
3.080000000000000071e+01,8.578054802347597971e-03
3.083999999999999986e+01,1.314986855199170267e-02
3.087999999999999901e+01,1.413874214819385924e-02
3.092000000000000171e+01,1.096676809341349222e-02
3.096000000000000085e+01,8.719520306669444748e-03
3.100000000000000000e+01,8.783972598207115054e-03
3.103999999999999915e+01,1.566779262004953238e-02
3.107999999999999829e+01,1.457657870655808263e-02
3.112000000000000099e+01,1.140497355054585077e-02
3.116000000000000014e+01,1.227878235162420742e-02
3.119999999999999929e+01,1.326824126367673155e-02
3.123999999999999844e+01,1.576032409694876762e-02
3.128000000000000114e+01,1.386038569753791395e-02
3.132000000000000028e+01,1.057353742327799516e-02
3.135999999999999943e+01,1.040744692619193119e-02
3.139999999999999858e+01,1.116606916115088152e-02
3.144000000000000128e+01,1.793497804717368929e-02
3.148000000000000043e+01,2.932719731292562221e-02
3.151999999999999957e+01,1.690973739166592646e-02
3.155999999999999872e+01,1.096488544343277548e-02
3.160000000000000142e+01,8.949852662899722422e-03
3.164000000000000057e+01,0.000000000000000000e+00
3.167999999999999972e+01,9.427620718607462869e-03
3.171999999999999886e+01,9.377631518977152039e-03
3.176000000000000156e+01,7.940718908506437870e-03
3.180000000000000071e+01,9.740131792617432588e-03
3.183999999999999986e+01,1.946349813457497104e-03
3.187999999999999901e+01,1.449491637086732995e-02
3.192000000000000171e+01,1.340494173494589068e-02
3.196000000000000085e+01,7.576181186884736393e-03
3.200000000000000000e+01,1.180303393123305865e-02
3.203999999999999915e+01,1.163784206254982710e-02
3.207999999999999829e+01,9.623391925072121572e-03
3.211999999999999744e+01,1.535292632038649796e-02
3.215999999999999659e+01,7.443912139101634302e-03
3.220000000000000284e+01,1.248003643248220100e-02
3.224000000000000199e+01,1.358643497370455762e-02
3.228000000000000114e+01,1.688891296238007739e-02
3.232000000000000028e+01,1.718631276500147062e-02
3.235999999999999943e+01,1.008654552185549690e-02
3.239999999999999858e+01,1.801237316183667073e-02
3.243999999999999773e+01,1.657614998717531554e-02
3.247999999999999687e+01,1.537111879945789530e-02
3.252000000000000313e+01,1.636215967592563950e-02
3.256000000000000227e+01,1.816229634524381756e-02
3.260000000000000142e+01,1.938455253607777179e-02
3.264000000000000057e+01,1.482777061492009801e-02
3.267999999999999972e+01,1.674356221153828345e-02
3.271999999999999886e+01,6.985669311717792110e-03
3.275999999999999801e+01,1.930381667747187863e-02
3.279999999999999716e+01,2.514943348866063508e-02
3.284000000000000341e+01,2.093949965936516347e-02
3.288000000000000256e+01,2.551375826310558342e-02
3.292000000000000171e+01,2.974128905080275498e-02
3.296000000000000085e+01,2.368210299958330850e-02
3.300000000000000000e+01,2.189943680719811867e-02
3.303999999999999915e+01,2.543352052369502944e-02
3.307999999999999829e+01,3.740504676030699527e-02
3.311999999999999744e+01,4.798960774755992031e-02
3.315999999999999659e+01,4.077466427222665307e-02
3.320000000000000284e+01,2.916764049806656531e-02
3.324000000000000199e+01,1.224388516734152381e-02
3.328000000000000114e+01,1.069244140795843484e-02
3.332000000000000028e+01,1.711610777182574414e-02
3.335999999999999943e+01,1.464002003211981040e-02
3.339999999999999858e+01,1.667160235259982845e-02
3.343999999999999773e+01,1.142156565600562987e-02
3.347999999999999687e+01,1.853872178965165415e-02
3.352000000000000313e+01,1.351984380236896134e-02
3.356000000000000227e+01,1.266188719289601181e-02
3.360000000000000142e+01,2.359321345503343978e-02
3.364000000000000057e+01,1.672502048804876129e-02
3.367999999999999972e+01,2.095262041119009058e-02
3.371999999999999886e+01,1.639603640925531985e-02
3.375999999999999801e+01,1.750292392659619223e-02
3.379999999999999716e+01,1.548910647433099017e-02
3.384000000000000341e+01,2.202828941523140432e-02
3.388000000000000256e+01,2.197932732346127849e-02
3.392000000000000171e+01,2.169918790543041986e-02
3.396000000000000085e+01,5.006494454710121340e-03
3.400000000000000000e+01,9.233990588688080134e-03
3.403999999999999915e+01,2.132099344271321667e-02
3.407999999999999829e+01,9.713819608267193831e-03
3.411999999999999744e+01,1.844892539988951530e-02
3.415999999999999659e+01,2.533470893439469102e-02
3.420000000000000284e+01,1.546118729274495278e-02
3.424000000000000199e+01,1.518088501940665844e-02
3.428000000000000114e+01,1.490055685170393364e-02
3.432000000000000028e+01,1.820322041446638742e-02
3.435999999999999943e+01,2.127469311497675805e-02
3.439999999999999858e+01,2.503962374988372500e-02
3.443999999999999773e+01,1.192966057196859914e-02
3.447999999999999687e+01,1.661917837043805704e-02
3.452000000000000313e+01,1.391146267372811440e-02
3.456000000000000227e+01,1.605812511160627579e-02
3.460000000000000142e+01,1.115429535341324642e-02
3.464000000000000057e+01,1.919552900666090731e-02
3.467999999999999972e+01,1.822138669496214253e-02
3.471999999999999886e+01,1.620697367231506078e-02
3.475999999999999801e+01,1.407693873536834846e-02
3.479999999999999716e+01,1.668569329634255957e-02
3.484000000000000341e+01,2.068137977611704190e-02
3.488000000000000256e+01,1.866679672660020300e-02
3.492000000000000171e+01,1.410938051922247700e-02
3.496000000000000085e+01,1.278819259339775659e-02
3.500000000000000000e+01,1.516555673217809437e-02
3.503999999999999915e+01,1.650264031565278067e-02
3.507999999999999829e+01,1.390991077829784386e-02
3.511999999999999744e+01,2.044804852367499565e-02
3.515999999999999659e+01,2.548357700851578908e-02
3.520000000000000284e+01,2.196603854492616692e-02
3.524000000000000199e+01,2.191588225587524225e-02
3.528000000000000114e+01,2.787589448560004110e-02
3.532000000000000028e+01,1.719214833731847608e-02
3.535999999999999943e+01,2.453901860023711620e-02
3.539999999999999858e+01,1.755375309204344758e-02
3.543999999999999773e+01,3.021723908154904173e-02
3.547999999999999687e+01,2.253836166209611039e-02
3.552000000000000313e+01,1.532174521499072607e-02
3.556000000000000227e+01,2.359295145158049611e-02
3.560000000000000142e+01,2.365782219449064777e-02
3.564000000000000057e+01,2.834587534048450819e-02
3.567999999999999972e+01,2.390294050451606533e-02
3.571999999999999886e+01,2.893759825330719654e-02
3.575999999999999801e+01,2.669056561343348052e-02
3.579999999999999716e+01,3.253414805643987245e-02
3.584000000000000341e+01,3.421673149146967075e-02
3.588000000000000256e+01,3.196947719477652439e-02
3.592000000000000171e+01,3.654144050193869342e-02
3.596000000000000085e+01,2.943961963854414138e-02
3.600000000000000000e+01,4.059955800443344059e-02
3.603999999999999915e+01,3.442222832211731115e-02
3.607999999999999829e+01,3.090318619910763231e-02
3.611999999999999744e+01,3.628381808841501383e-02
3.615999999999999659e+01,4.409157256914120887e-02
3.620000000000000284e+01,4.057227925624012216e-02
3.624000000000000199e+01,4.075149986105940092e-02
3.628000000000000114e+01,3.642296416171321438e-02
3.632000000000000028e+01,4.746664651231432414e-02
3.635999999999999943e+01,2.926818187023801088e-02
3.639999999999999858e+01,3.245215799377650784e-02
3.643999999999999773e+01,3.471139174634518820e-02
3.647999999999999687e+01,3.824192571198362089e-02
3.652000000000000313e+01,3.310377086781842587e-02
3.656000000000000227e+01,3.674969524657972081e-02
3.660000000000000142e+01,4.340063494776436742e-02
3.664000000000000057e+01,4.924240737865497736e-02
3.667999999999999972e+01,4.294804847558816863e-02
3.671999999999999886e+01,3.965870120331066451e-02
3.675999999999999801e+01,4.758063332261894957e-02
3.679999999999999716e+01,5.041688687368518773e-02
3.684000000000000341e+01,4.319746672980046692e-02
3.688000000000000256e+01,4.926978484705255706e-02
3.692000000000000171e+01,5.129665198502119522e-02
3.696000000000000085e+01,4.974039192675842186e-02
3.700000000000000000e+01,5.847075384961999273e-02
3.703999999999999915e+01,6.084403603358071178e-02
3.707999999999999829e+01,5.824721228888592173e-02
3.711999999999999744e+01,6.385654427249644327e-02
3.715999999999999659e+01,6.495809287995886472e-02
3.720000000000000284e+01,7.010486963226704449e-02
3.724000000000000199e+01,7.409571689591373800e-02
3.728000000000000114e+01,7.149831453059320163e-02
3.732000000000000028e+01,8.080566184962810483e-02
3.735999999999999943e+01,8.965056350876254854e-02
3.739999999999999858e+01,9.444999942207743526e-02
3.743999999999999773e+01,9.578187462602415214e-02
3.747999999999999687e+01,9.653571922503711988e-02
3.752000000000000313e+01,1.133552324780523618e-01
3.756000000000000227e+01,1.292499689048470513e-01
3.760000000000000142e+01,1.407524896729015207e-01
3.764000000000000057e+01,1.638130065207564767e-01
3.767999999999999972e+01,1.760087550584282790e-01
3.771999999999999886e+01,1.944457595584494769e-01
3.775999999999999801e+01,2.260588939942256570e-01
3.779999999999999716e+01,2.518928315777481108e-01
3.784000000000000341e+01,3.121698472613836928e-01
3.788000000000000256e+01,3.671299886452729644e-01
3.792000000000000171e+01,4.402362489389029521e-01
3.796000000000000085e+01,5.306795581379346594e-01
3.800000000000000000e+01,6.430831651477904032e-01
3.803999999999999915e+01,7.787184625253162906e-01
3.807999999999999829e+01,9.201326797766929966e-01
3.811999999999999744e+01,9.835294069569766595e-01
3.815999999999999659e+01,1.000000000000000000e+00
3.820000000000000284e+01,9.248145126097384594e-01
3.824000000000000199e+01,8.180751953232170415e-01
3.828000000000000114e+01,6.886818034216269924e-01
3.832000000000000028e+01,5.806707932195075417e-01
3.835999999999999943e+01,4.849112444677798339e-01
3.839999999999999858e+01,3.974733933203271619e-01
3.843999999999999773e+01,3.480616206701919180e-01
3.847999999999999687e+01,2.946043490495312556e-01
3.852000000000000313e+01,2.552478340114702204e-01
3.856000000000000227e+01,2.118458175417943512e-01
3.860000000000000142e+01,1.932936117597518211e-01
3.864000000000000057e+01,1.786710085695478734e-01
3.867999999999999972e+01,1.657819629260536276e-01
3.871999999999999886e+01,1.356711480412604032e-01
3.875999999999999801e+01,1.293699076413292459e-01
3.879999999999999716e+01,1.189075771731160774e-01
3.884000000000000341e+01,1.185006495741743188e-01
3.888000000000000256e+01,1.080379855225034463e-01
3.892000000000000171e+01,8.983120885554225776e-02
3.896000000000000085e+01,9.312237545273635564e-02
3.900000000000000000e+01,8.312152681039063074e-02
3.903999999999999915e+01,7.716584970783604835e-02
3.907999999999999829e+01,7.583324918152375971e-02
3.911999999999999744e+01,6.675652988719783798e-02
3.915999999999999659e+01,7.397659130134118244e-02
3.920000000000000284e+01,6.466835622804455175e-02
3.924000000000000199e+01,5.744040523402980936e-02
3.928000000000000114e+01,5.784063725191250505e-02
3.932000000000000028e+01,4.587349421309138559e-02
3.935999999999999943e+01,4.453964431345679154e-02
3.939999999999999858e+01,4.505491106412707475e-02
3.943999999999999773e+01,4.372069312578411027e-02
3.947999999999999687e+01,4.227070806887074650e-02
3.952000000000000313e+01,4.313216098422497508e-02
3.956000000000000227e+01,4.561156312090706988e-02
3.960000000000000142e+01,4.497008185900633337e-02
3.964000000000000057e+01,4.039864719418398420e-02
3.967999999999999972e+01,3.605818301826538980e-02
3.971999999999999886e+01,2.940590052592416057e-02
3.975999999999999801e+01,3.419596764111703519e-02
3.979999999999999716e+01,3.586514520500374420e-02
3.984000000000000341e+01,3.522250076083382336e-02
3.988000000000000256e+01,3.342384561205434534e-02
3.992000000000000171e+01,3.821312250586510195e-02
3.996000000000000085e+01,2.890128585326977653e-02
4.000000000000000000e+01,3.473039153371395432e-02
4.003999999999999915e+01,3.339325641061300504e-02
4.007999999999999829e+01,3.459870453895263348e-02
4.011999999999999744e+01,3.695975964739810216e-02
4.015999999999999659e+01,3.157666399366857585e-02
4.020000000000000284e+01,3.902287945227182059e-02
4.024000000000000199e+01,3.051867269626956647e-02
4.028000000000000114e+01,2.756215562736300320e-02
4.032000000000000028e+01,2.414310183825054898e-02
4.035999999999999943e+01,2.349778519356431755e-02
4.039999999999999858e+01,2.643527323655385508e-02
4.043999999999999773e+01,2.821673334730845709e-02
4.047999999999999687e+01,3.103820810986775147e-02
4.052000000000000313e+01,2.646226479554752639e-02
4.056000000000000227e+01,2.373540244573683899e-02
4.060000000000000142e+01,2.759645121925700939e-02
4.064000000000000057e+01,3.134169718841148256e-02
4.067999999999999972e+01,1.936766991376746155e-02
4.071999999999999886e+01,3.027850680010344200e-02
4.075999999999999801e+01,2.963099310392174404e-02
4.079999999999999716e+01,2.251070274424124551e-02
4.084000000000000341e+01,2.452110369940539714e-02
4.088000000000000256e+01,2.109895681057398845e-02
4.092000000000000171e+01,2.461145496091354801e-02
4.096000000000000085e+01,2.511860912755080680e-02
4.100000000000000000e+01,2.655018069551287954e-02
4.103999999999999915e+01,1.965966816232146350e-02
4.107999999999999829e+01,2.016612075971907503e-02
4.111999999999999744e+01,2.483326216198424030e-02
4.115999999999999659e+01,1.875110945007934377e-02
4.120000000000000284e+01,1.717638684215018127e-02
4.124000000000000199e+01,1.756630553287041180e-02
4.128000000000000114e+01,1.945853927809862091e-02
4.132000000000000028e+01,1.441565534915066442e-02
4.135999999999999943e+01,2.913692205069037811e-02
4.139999999999999858e+01,2.224424943526990064e-02
4.143999999999999773e+01,2.633154973091077211e-02
4.147999999999999687e+01,1.758908350683911076e-02
4.152000000000000313e+01,2.132914402692870012e-02
4.156000000000000227e+01,2.495337344012518721e-02
4.160000000000000142e+01,2.441642664691299341e-02
4.164000000000000057e+01,2.307015876532333282e-02
4.167999999999999972e+01,1.675364344244141199e-02
4.171999999999999886e+01,1.794965481483305758e-02
4.175999999999999801e+01,2.180377900918842315e-02
4.179999999999999716e+01,3.085880236974456597e-02
4.184000000000000341e+01,2.696846688228700037e-02
4.188000000000000256e+01,1.406253393184280984e-02
4.192000000000000171e+01,2.230770942505106227e-02
4.196000000000000085e+01,1.968798493979663847e-02
4.200000000000000000e+01,1.753032207865367481e-02
4.203999999999999915e+01,2.115145726743936083e-02
4.207999999999999829e+01,2.581255788624301287e-02
4.211999999999999744e+01,2.272944744618293766e-02
4.215999999999999659e+01,1.849025616046729575e-02
4.220000000000000284e+01,2.465310813846841725e-02
4.224000000000000199e+01,1.948872651059757946e-02
4.228000000000000114e+01,1.964081053579065650e-02
4.232000000000000028e+01,2.106401511453204201e-02
4.235999999999999943e+01,1.994415765410444824e-02
4.239999999999999858e+01,1.813053697834990374e-02
4.243999999999999773e+01,1.978407697909390778e-02
4.247999999999999687e+01,2.536710143938846265e-02
4.252000000000000313e+01,2.447729632276356496e-02
4.256000000000000227e+01,2.797929821819656465e-02
4.260000000000000142e+01,2.200335548724226611e-02
4.264000000000000057e+01,2.215293610824415477e-02
4.267999999999999972e+01,2.669432004966994579e-02
4.271999999999999886e+01,2.314473071386451836e-02
4.275999999999999801e+01,3.138414245494060284e-02
4.279999999999999716e+01,2.841188461591849859e-02
4.284000000000000341e+01,2.694189384016239946e-02
4.288000000000000256e+01,2.593393761653501814e-02
4.292000000000000171e+01,2.873987106306772135e-02
4.296000000000000085e+01,3.535969294921580131e-02
4.300000000000000000e+01,2.903412030155482632e-02
4.303999999999999915e+01,3.819614022573616235e-02
4.307999999999999829e+01,4.412158844054944740e-02
4.311999999999999744e+01,3.617698840272629002e-02
4.315999999999999659e+01,4.499137103250233638e-02
4.320000000000000284e+01,4.166942174954015032e-02
4.324000000000000199e+01,3.672903338261965939e-02
4.328000000000000114e+01,3.987902998672653021e-02
4.332000000000000028e+01,4.314430384677333391e-02
4.335999999999999943e+01,4.640927247881620338e-02
4.339999999999999858e+01,4.736230958432702948e-02
4.343999999999999773e+01,4.923968902793798147e-02
4.347999999999999687e+01,5.504652216748277122e-02
4.352000000000000313e+01,5.750118880826907142e-02
4.356000000000000227e+01,6.353856292370237135e-02
4.360000000000000142e+01,6.287191173071181305e-02
4.364000000000000057e+01,6.058680914831625353e-02
4.367999999999999972e+01,7.182439814126245770e-02
4.371999999999999886e+01,7.312168303897398358e-02
4.375999999999999801e+01,8.343398816837029053e-02
4.379999999999999716e+01,8.461505551523676449e-02
4.384000000000000341e+01,9.469555937929952094e-02
4.388000000000000256e+01,1.058159732988701585e-01
4.392000000000000171e+01,9.844306421894419290e-02
4.396000000000000085e+01,1.205430510696328950e-01
4.400000000000000000e+01,1.268080812879165409e-01
4.403999999999999915e+01,1.492541608348208759e-01
4.407999999999999829e+01,1.581769063562142030e-01
4.411999999999999744e+01,1.640942106808765399e-01
4.415999999999999659e+01,1.824939605337520254e-01
4.420000000000000284e+01,1.993908230229963774e-01
4.424000000000000199e+01,2.073875967005179566e-01
4.428000000000000114e+01,2.231279808252526753e-01
4.432000000000000028e+01,2.186413108440565523e-01
4.435999999999999943e+01,2.091843109750754215e-01
4.439999999999999858e+01,2.120941679976403593e-01
4.443999999999999773e+01,2.002092861324014372e-01
4.447999999999999687e+01,1.838163957013401739e-01
4.452000000000000313e+01,1.710061832118539848e-01
4.456000000000000227e+01,1.577333035644271353e-01
4.460000000000000142e+01,1.464249618498975891e-01
4.464000000000000057e+01,1.314176754211612286e-01
4.467999999999999972e+01,1.051986615767274147e-01
4.471999999999999886e+01,1.052162451873827620e-01
4.475999999999999801e+01,9.668046774943216126e-02
4.479999999999999716e+01,8.710410950327704405e-02
4.484000000000000341e+01,7.798972551256201646e-02
4.488000000000000256e+01,7.465405220310425416e-02
4.492000000000000171e+01,7.374523199578311705e-02
4.496000000000000085e+01,6.497653210752769859e-02
4.500000000000000000e+01,5.863468286031960769e-02
4.503999999999999915e+01,5.287038296922739328e-02
4.507999999999999829e+01,4.675898117651305225e-02
4.511999999999999744e+01,4.238093881281699421e-02
4.515999999999999659e+01,3.881160462040111891e-02
4.520000000000000284e+01,3.674446488911584791e-02
4.524000000000000199e+01,3.583277462821901627e-02
4.528000000000000114e+01,3.330258252558584986e-02
4.532000000000000028e+01,3.169667492545339554e-02
4.535999999999999943e+01,2.789435675549935961e-02
4.539999999999999858e+01,3.021747702991943799e-02
4.543999999999999773e+01,3.427394688900046310e-02
4.547999999999999687e+01,2.665633970789391127e-02
4.552000000000000313e+01,2.447067975913239102e-02
4.556000000000000227e+01,1.847046554023763776e-02
4.560000000000000142e+01,2.807334639172566135e-02
4.564000000000000057e+01,2.299703269246897511e-02
4.567999999999999972e+01,1.849824866061350673e-02
4.571999999999999886e+01,2.081838074916981390e-02
4.575999999999999801e+01,2.036418369546205004e-02
4.579999999999999716e+01,1.043194357179363235e-02
4.584000000000000341e+01,2.084162252460600162e-02
4.588000000000000256e+01,2.223558095996506015e-02
4.592000000000000171e+01,1.981497405028881734e-02
4.596000000000000085e+01,1.138375675044837020e-02
4.600000000000000000e+01,1.555050962716557697e-02
4.603999999999999915e+01,2.191291864397040476e-02
4.607999999999999829e+01,1.452076960123255787e-02
4.611999999999999744e+01,1.152031805207724344e-02
4.615999999999999659e+01,1.395179404655231582e-02
4.620000000000000284e+01,8.407770959809258288e-03
4.624000000000000199e+01,1.465264189256167485e-02
4.628000000000000114e+01,1.754526141897347694e-02
4.632000000000000028e+01,1.361819070652487383e-02
4.635999999999999943e+01,1.581652890537834852e-02
4.639999999999999858e+01,1.408470573926134430e-02
4.643999999999999773e+01,1.154341381940684856e-02
4.647999999999999687e+01,9.695208209459389367e-03
4.652000000000000313e+01,1.524380037602618421e-02
4.656000000000000227e+01,1.062083857188865499e-02
4.660000000000000142e+01,1.466606587056694735e-02
4.664000000000000057e+01,1.189159308602748613e-02
4.667999999999999972e+01,1.662949440922279615e-02
4.671999999999999886e+01,1.200490561332929682e-02
4.675999999999999801e+01,9.229207047521842053e-03
4.679999999999999716e+01,1.061402254923926244e-02
4.684000000000000341e+01,1.766190718212604441e-02
4.688000000000000256e+01,1.222660293196769533e-02
4.692000000000000171e+01,8.986927749914273497e-03
4.696000000000000085e+01,1.245054928798873355e-02
4.700000000000000000e+01,9.903528441737681140e-03
4.703999999999999915e+01,8.280739184566666272e-03
4.707999999999999829e+01,1.185868666170033364e-02
4.711999999999999744e+01,1.058180059686615430e-02
4.715999999999999659e+01,1.427448629844900105e-02
4.720000000000000284e+01,5.021648259032695551e-03
4.724000000000000199e+01,1.206534235806281871e-02
4.728000000000000114e+01,1.009327287057629370e-02
4.732000000000000028e+01,8.351938837962109147e-03
4.735999999999999943e+01,1.262040169963411611e-02
4.739999999999999858e+01,1.122495363173143731e-02
4.743999999999999773e+01,1.271860615524800231e-02
4.747999999999999687e+01,6.467882726915460435e-03
4.752000000000000313e+01,8.885320098871388877e-03
4.756000000000000227e+01,1.846836074638190731e-02
4.760000000000000142e+01,1.672400289503501655e-02
4.764000000000000057e+01,1.463246438720725191e-02
4.767999999999999972e+01,1.242490649915232309e-02
4.771999999999999886e+01,1.426225312269568425e-02
4.775999999999999801e+01,8.239633927178089193e-03
4.779999999999999716e+01,1.215656070552719251e-02
4.784000000000000341e+01,1.514839440767623037e-02
4.788000000000000256e+01,5.310264702965944439e-03
4.792000000000000171e+01,1.165306496404359959e-02
4.796000000000000085e+01,1.452798088250542574e-02
4.800000000000000000e+01,1.301036120061342151e-02
4.803999999999999915e+01,1.426624239857150062e-02
4.807999999999999829e+01,1.378795436326731884e-02
4.811999999999999744e+01,1.284688965154712550e-02
4.815999999999999659e+01,1.121188452606785950e-02
4.820000000000000284e+01,1.720478800102520633e-02
4.824000000000000199e+01,1.522212963698642459e-02
4.828000000000000114e+01,1.231436466075624091e-02
4.832000000000000028e+01,1.402939200495019988e-02
4.835999999999999943e+01,1.239210395448085006e-02
4.839999999999999858e+01,9.945286853585271272e-03
4.843999999999999773e+01,3.914989390138715400e-03
4.847999999999999687e+01,1.811094853382570757e-02
4.852000000000000313e+01,1.046158681680339417e-02
4.856000000000000227e+01,9.977797611718968937e-03
4.860000000000000142e+01,1.457911712684270208e-02
4.864000000000000057e+01,6.812774868355114984e-03
4.867999999999999972e+01,1.337803914092003735e-02
4.871999999999999886e+01,1.196772680795281374e-02
4.875999999999999801e+01,8.014155548669788659e-03
4.879999999999999716e+01,8.221036829678217764e-03
4.884000000000000341e+01,1.108581312624421812e-02
4.888000000000000256e+01,9.673608003872855368e-03
4.892000000000000171e+01,4.562326499015350104e-03
4.896000000000000085e+01,6.732186454048213337e-03
4.900000000000000000e+01,8.901567674279070932e-03
4.903999999999999915e+01,1.060814391556654142e-02
4.907999999999999829e+01,8.268895091991640064e-03
4.911999999999999744e+01,6.391488855577418665e-03
4.915999999999999659e+01,1.514707427490620192e-02
4.920000000000000284e+01,8.876611864817371758e-03
4.924000000000000199e+01,7.806819739621238818e-03
4.928000000000000114e+01,5.233983971621160476e-03
4.932000000000000028e+01,1.040460360220615312e-02
4.935999999999999943e+01,9.680089499729394378e-03
4.939999999999999858e+01,1.034205939779396857e-02
4.943999999999999773e+01,1.285283707945192831e-02
4.947999999999999687e+01,1.374498371218343257e-02
4.952000000000000313e+01,1.024454798386374016e-02
4.956000000000000227e+01,7.899428827108399137e-03
4.960000000000000142e+01,8.905668825956933321e-03
4.964000000000000057e+01,9.449085387692082727e-03
4.967999999999999972e+01,9.760839788567527570e-03
4.971999999999999886e+01,6.257911942664283120e-03
4.975999999999999801e+01,1.200098225354400035e-02
4.979999999999999716e+01,9.421698973988028303e-03
4.984000000000000341e+01,1.227423002795301719e-02
4.988000000000000256e+01,1.015626137896896361e-02
4.992000000000000171e+01,7.459879425659659419e-03
4.996000000000000085e+01,9.617401847241503765e-03
5.000000000000000000e+01,1.165883351700541630e-02
5.003999999999999915e+01,9.307666828637498058e-03
5.007999999999999829e+01,1.273505085072003558e-02
5.011999999999999744e+01,1.107634653318635004e-02
5.015999999999999659e+01,1.172875286303869807e-02
5.020000000000000284e+01,1.365203732913985481e-02
5.024000000000000199e+01,1.476573613976012167e-02
5.028000000000000114e+01,1.853728566632991195e-02
5.032000000000000028e+01,1.467995312577836074e-02
5.035999999999999943e+01,7.701406170128465185e-03
5.039999999999999858e+01,1.204930024373195192e-02
5.043999999999999773e+01,1.489411498873613286e-02
5.047999999999999687e+01,1.138143653183119018e-02
5.052000000000000313e+01,8.099395086225194204e-03
5.056000000000000227e+01,8.515427023348608529e-03
5.060000000000000142e+01,1.078023105827004974e-02
5.064000000000000057e+01,1.443148094684811207e-02
5.067999999999999972e+01,1.195639398759206808e-02
5.071999999999999886e+01,8.324962846121591181e-03
5.075999999999999801e+01,1.555763664540576845e-02
5.079999999999999716e+01,1.192513851585582686e-02
5.084000000000000341e+01,6.673967498860743780e-03
5.088000000000000256e+01,1.563875407956228161e-02
5.092000000000000171e+01,1.778370890876666138e-02
5.096000000000000085e+01,1.021929942094998087e-02
5.100000000000000000e+01,1.687084383919588287e-02
5.103999999999999915e+01,1.496883401332307732e-02
5.107999999999999829e+01,1.144814391673716278e-02
5.111999999999999744e+01,1.197225373545279976e-02
5.115999999999999659e+01,9.606287034975105957e-03
5.120000000000000284e+01,9.898142747919596446e-03
5.124000000000000199e+01,1.319456340393911596e-02
5.128000000000000114e+01,1.417881011612716173e-02
5.132000000000000028e+01,1.227297538694316695e-02
5.135999999999999943e+01,1.163798310821266210e-02
5.139999999999999858e+01,1.077127575520172784e-02
5.143999999999999773e+01,1.233122092554663971e-02
5.147999999999999687e+01,1.654897989550108486e-02
5.152000000000000313e+01,9.785963533418186311e-03
5.156000000000000227e+01,1.481167752838999895e-02
5.160000000000000142e+01,1.070591378462189269e-02
5.164000000000000057e+01,1.168516523966720531e-02
5.167999999999999972e+01,1.312618052701446103e-02
5.171999999999999886e+01,1.560686468311487177e-02
5.175999999999999801e+01,1.219234127347343377e-02
5.179999999999999716e+01,1.617445320845022419e-02
5.184000000000000341e+01,1.495484263699088830e-02
5.188000000000000256e+01,1.778000860048443987e-02
5.192000000000000171e+01,1.679042463724259027e-02
5.196000000000000085e+01,1.776515218667923390e-02
5.200000000000000000e+01,1.469396484149281153e-02
5.203999999999999915e+01,1.821033668386238050e-02
5.207999999999999829e+01,1.536916610253610815e-02
5.211999999999999744e+01,1.807532096708397429e-02
5.215999999999999659e+01,1.581090598763671209e-02
5.220000000000000284e+01,1.158103252202811496e-02
5.224000000000000199e+01,1.382313083785302599e-02
5.228000000000000114e+01,1.132581812484716524e-02
5.232000000000000028e+01,1.541605598558460667e-02
5.235999999999999943e+01,1.384223032920856716e-02
5.239999999999999858e+01,2.024292782627659312e-02
5.243999999999999773e+01,1.161747781980892839e-02
5.247999999999999687e+01,2.737908648837825837e-02
5.252000000000000313e+01,1.378246977082540382e-02
5.256000000000000227e+01,1.324594643410142297e-02
5.260000000000000142e+01,1.999045257770311682e-02
5.264000000000000057e+01,1.078415503785247649e-02
5.267999999999999972e+01,1.070818457162486977e-02
5.271999999999999886e+01,1.271208349112625501e-02
5.275999999999999801e+01,1.009213786866003555e-02
5.279999999999999716e+01,1.498437808059452023e-02
5.284000000000000341e+01,1.386579624868197053e-02
5.288000000000000256e+01,1.586731016091228255e-02
5.292000000000000171e+01,1.729031847796730012e-02
5.296000000000000085e+01,1.570761364791975825e-02
5.300000000000000000e+01,2.071243847235620245e-02
5.303999999999999915e+01,1.739481003223888878e-02
5.307999999999999829e+01,1.569471488935184761e-02
5.311999999999999744e+01,1.353168925196535956e-02
5.315999999999999659e+01,1.460433199830822593e-02
5.320000000000000284e+01,1.787241061724322358e-02
5.324000000000000199e+01,9.003848456728479749e-03
5.328000000000000114e+01,1.412000755443199550e-02
5.332000000000000028e+01,2.212508635348868491e-02
5.335999999999999943e+01,1.545073310667984152e-02
5.339999999999999858e+01,1.490157219531162633e-02
5.343999999999999773e+01,2.059318364223856196e-02
5.347999999999999687e+01,1.160535935166596803e-02
5.352000000000000313e+01,1.602434266904775514e-02
5.356000000000000227e+01,1.709085062095949681e-02
5.360000000000000142e+01,1.399581320306226943e-02
5.364000000000000057e+01,1.979991081891777777e-02
5.367999999999999972e+01,1.635688545431146501e-02
5.371999999999999886e+01,1.453137369822077654e-02
5.375999999999999801e+01,1.328314303950849616e-02
5.379999999999999716e+01,1.654195486320175768e-02
5.384000000000000341e+01,2.026246406978492176e-02
5.388000000000000256e+01,1.750979422476303324e-02
5.392000000000000171e+01,1.949532567731104490e-02
5.396000000000000085e+01,1.893743823273650109e-02
5.400000000000000000e+01,1.572054940709556245e-02
5.403999999999999915e+01,1.654837066699547596e-02
5.407999999999999829e+01,1.413928181774382238e-02
5.411999999999999744e+01,1.693071312693539970e-02
5.415999999999999659e+01,2.076173824165540582e-02
5.420000000000000284e+01,1.546120563223208309e-02
5.424000000000000199e+01,1.871304583819398404e-02
5.428000000000000114e+01,2.034610732986933887e-02
5.432000000000000028e+01,1.585271999414581551e-02
5.435999999999999943e+01,1.517287039280750503e-02
5.439999999999999858e+01,1.483911969333454560e-02
5.443999999999999773e+01,1.670076671956904554e-02
5.447999999999999687e+01,1.913967269337792446e-02
5.452000000000000313e+01,1.845723627544307993e-02
5.456000000000000227e+01,1.835205634399327684e-02
5.460000000000000142e+01,1.651250660050043034e-02
5.464000000000000057e+01,2.114485480576103887e-02
5.467999999999999972e+01,1.433400545235890763e-02
5.471999999999999886e+01,1.445737660021757277e-02
5.475999999999999801e+01,1.434892930804375528e-02
5.479999999999999716e+01,1.655144992007453672e-02
5.484000000000000341e+01,1.158727442703325408e-02
5.488000000000000256e+01,1.806498339564175867e-02
5.492000000000000171e+01,1.945645635927391662e-02
5.496000000000000085e+01,2.061610473015026632e-02
5.500000000000000000e+01,1.796090842235181784e-02
5.503999999999999915e+01,1.380249127331736707e-02
5.507999999999999829e+01,1.773409608463337797e-02
5.511999999999999744e+01,1.785085252564062516e-02
5.515999999999999659e+01,2.270577211733306594e-02
5.520000000000000284e+01,1.334352807170200231e-02
5.524000000000000199e+01,1.681013245360873584e-02
5.528000000000000114e+01,1.507490850223800784e-02
5.532000000000000028e+01,2.246993040854227200e-02
5.535999999999999943e+01,2.061777765150870842e-02
5.539999999999999858e+01,1.737797423173627689e-02
5.543999999999999773e+01,1.714260654784884041e-02
5.547999999999999687e+01,1.933376710230579054e-02
5.552000000000000313e+01,1.435821063243133792e-02
5.556000000000000227e+01,1.481429252819047200e-02
5.560000000000000142e+01,1.619434267647077222e-02
5.564000000000000057e+01,1.688022229913925185e-02
5.567999999999999972e+01,1.883681147343712475e-02
5.571999999999999886e+01,1.628504629886117633e-02
5.575999999999999801e+01,1.835584456340120033e-02
5.579999999999999716e+01,1.476247348398640642e-02
5.584000000000000341e+01,1.532933836900158761e-02
5.588000000000000256e+01,1.624225662572945095e-02
5.592000000000000171e+01,1.727006451682700297e-02
5.596000000000000085e+01,2.303601094771640101e-02
5.600000000000000000e+01,1.539383790418312296e-02
5.603999999999999915e+01,2.127397619768936834e-02
5.607999999999999829e+01,1.536413010327201956e-02
5.611999999999999744e+01,2.112729283041809084e-02
5.615999999999999659e+01,1.775883753673216173e-02
5.620000000000000284e+01,1.727921334518338695e-02
5.624000000000000199e+01,1.356261259507093343e-02
5.628000000000000114e+01,1.516204680738887298e-02
5.632000000000000028e+01,1.791658962922233408e-02
5.635999999999999943e+01,1.870554598824908030e-02
5.639999999999999858e+01,1.903147094811361711e-02
5.643999999999999773e+01,2.109040709285555856e-02
5.647999999999999687e+01,1.424887787920650628e-02
5.652000000000000313e+01,1.734662638068664234e-02
5.656000000000000227e+01,1.732296973264499038e-02
5.660000000000000142e+01,1.602720675892363097e-02
5.664000000000000057e+01,1.796700511154554827e-02
5.667999999999999972e+01,1.979050721139012647e-02
5.671999999999999886e+01,1.398493035696656180e-02
5.675999999999999801e+01,2.424443026456027037e-02
5.679999999999999716e+01,1.936206728585040254e-02
5.684000000000000341e+01,1.528805315937789219e-02
5.688000000000000256e+01,1.941958687214501156e-02
5.692000000000000171e+01,1.730901051871070601e-02
5.696000000000000085e+01,1.901189191425819644e-02
5.700000000000000000e+01,1.620637958350252400e-02
5.703999999999999915e+01,1.929478510182436324e-02
5.707999999999999829e+01,2.342269459591390240e-02
5.711999999999999744e+01,1.853453778949860214e-02
5.715999999999999659e+01,2.335447650269949216e-02
5.720000000000000284e+01,1.996741522810038111e-02
5.724000000000000199e+01,2.386124069064549796e-02
5.728000000000000114e+01,2.058829498489387136e-02
5.732000000000000028e+01,2.424948979499962423e-02
5.735999999999999943e+01,1.935693593492920223e-02
5.739999999999999858e+01,1.700643250045837801e-02
5.743999999999999773e+01,2.239913466400513323e-02
5.747999999999999687e+01,2.490156588230109727e-02
5.752000000000000313e+01,1.919698726843975176e-02
5.756000000000000227e+01,2.100444805416364080e-02
5.760000000000000142e+01,1.784117164181765400e-02
5.764000000000000057e+01,1.745110077860160744e-02
5.767999999999999972e+01,1.879400295337824850e-02
5.771999999999999886e+01,1.528174549185018494e-02
5.775999999999999801e+01,1.997500879757904343e-02
5.779999999999999716e+01,1.842613496512384916e-02
5.784000000000000341e+01,1.999720428927271795e-02
5.788000000000000256e+01,1.601962153454317833e-02
5.792000000000000171e+01,1.839825457050519794e-02
5.796000000000000085e+01,1.626846434709200429e-02
5.800000000000000000e+01,2.084163121347854322e-02
5.803999999999999915e+01,1.928823481181213273e-02
5.807999999999999829e+01,1.773408034170421629e-02
5.811999999999999744e+01,1.860637289399268493e-02
5.815999999999999659e+01,1.705069859536768873e-02
5.820000000000000284e+01,1.711240008425555376e-02
5.824000000000000199e+01,1.890705738351076970e-02
5.828000000000000114e+01,2.000746294120610974e-02
5.832000000000000028e+01,1.960454675300268498e-02
5.835999999999999943e+01,2.081900143013344293e-02
5.839999999999999858e+01,1.891199435268769644e-02
5.843999999999999773e+01,1.503933682411252686e-02
5.847999999999999687e+01,1.902543415279277922e-02
5.852000000000000313e+01,1.977448478186336414e-02
5.856000000000000227e+01,2.410578143133069659e-02
5.860000000000000142e+01,1.930538499674134406e-02
5.864000000000000057e+01,2.016769468264447210e-02
5.867999999999999972e+01,1.837085901375511490e-02
5.871999999999999886e+01,1.726673310810459064e-02
5.875999999999999801e+01,2.344344717890095575e-02
5.879999999999999716e+01,1.829241819833300753e-02
5.884000000000000341e+01,1.984432046612676429e-02
5.888000000000000256e+01,2.278241509537571458e-02
5.892000000000000171e+01,1.751345682340394588e-02
5.896000000000000085e+01,2.576672005871096655e-02
5.900000000000000000e+01,2.130525904914032376e-02
5.903999999999999915e+01,1.776766046524947892e-02
5.907999999999999829e+01,2.636530465621337443e-02
5.911999999999999744e+01,1.670032074750539205e-02
5.915999999999999659e+01,1.373825824280175585e-02
5.920000000000000284e+01,1.401167830958267337e-02
5.924000000000000199e+01,2.214382985327036091e-02
5.928000000000000114e+01,2.010403611304942620e-02
5.932000000000000028e+01,1.736995863710724328e-02
5.935999999999999943e+01,2.006740262505522787e-02
5.939999999999999858e+01,1.652266025303239516e-02
5.943999999999999773e+01,1.656013682942363702e-02
5.947999999999999687e+01,1.752146229550338372e-02
5.952000000000000313e+01,2.033128544792029910e-02
5.956000000000000227e+01,1.412496723660762281e-02
5.960000000000000142e+01,1.808899449528314496e-02
5.964000000000000057e+01,1.812245307870326630e-02
5.967999999999999972e+01,1.803952311849597867e-02
5.971999999999999886e+01,1.807136589091499004e-02
5.975999999999999801e+01,1.498170507023878842e-02
5.979999999999999716e+01,1.443402084248215402e-02
5.984000000000000341e+01,1.873993704508377170e-02
5.988000000000000256e+01,1.911527718916203322e-02
5.992000000000000171e+01,2.006770892673991405e-02
5.996000000000000085e+01,1.581816835731419263e-02
