2.003999999999999915e+01,2.400436895400661144e-02
2.007999999999999829e+01,4.563339489371905783e-02
2.012000000000000099e+01,3.275624574943036132e-02
2.016000000000000014e+01,3.372444406108676684e-02
2.019999999999999929e+01,3.886768596886081700e-02
2.023999999999999844e+01,2.642778711297566474e-02
2.028000000000000114e+01,4.321781251519561662e-02
2.032000000000000028e+01,4.660051149764603273e-02
2.035999999999999943e+01,4.360883325497909302e-02
2.039999999999999858e+01,2.984718541825734373e-02
2.044000000000000128e+01,6.619453031827858547e-02
2.048000000000000043e+01,3.177206349566651794e-02
2.051999999999999957e+01,3.646960821738513825e-02
2.055999999999999872e+01,5.347404827822326706e-02
2.060000000000000142e+01,4.696130200937008448e-02
2.064000000000000057e+01,3.121704690544844368e-02
2.067999999999999972e+01,4.734007720642738337e-02
2.071999999999999886e+01,2.236355116182774799e-02
2.076000000000000156e+01,5.123227614776509897e-02
2.080000000000000071e+01,3.218827685933060845e-02
2.083999999999999986e+01,4.874781910904991272e-02
2.087999999999999901e+01,5.981210973722383278e-02
2.092000000000000171e+01,4.955701481132432362e-02
2.096000000000000085e+01,5.292749849861810157e-02
2.100000000000000000e+01,4.574780033933808360e-02
2.103999999999999915e+01,4.406183499173628448e-02
2.107999999999999829e+01,4.808938264140175112e-02
2.112000000000000099e+01,4.420410581034277253e-02
2.116000000000000014e+01,4.976859702953346370e-02
2.119999999999999929e+01,4.104665513011389322e-02
2.123999999999999844e+01,5.342280357025835230e-02
2.128000000000000114e+01,2.513896251762397227e-02
2.132000000000000028e+01,6.630473488462865217e-02
2.135999999999999943e+01,5.472263833917363762e-02
2.139999999999999858e+01,7.061224401197926936e-02
2.144000000000000128e+01,5.287481100706417636e-02
2.148000000000000043e+01,2.986191412808490361e-02
2.151999999999999957e+01,4.487014406954750734e-02
2.155999999999999872e+01,5.064687759905048270e-02
2.160000000000000142e+01,4.521409844764643499e-02
2.164000000000000057e+01,6.461566900987007755e-02
2.167999999999999972e+01,6.929125364419840005e-02
2.171999999999999886e+01,6.033975111803482200e-02
2.176000000000000156e+01,4.523366991693885536e-02
2.180000000000000071e+01,3.759934859917254957e-02
2.183999999999999986e+01,4.446973635938807068e-02
2.187999999999999901e+01,4.496576741962302753e-02
2.192000000000000171e+01,4.238413700181743737e-02
2.196000000000000085e+01,3.870286245518950174e-02
2.200000000000000000e+01,3.018569034716248392e-02
2.203999999999999915e+01,4.452485654503173657e-02
2.207999999999999829e+01,4.699517760725509946e-02
2.212000000000000099e+01,4.089334875577238515e-02
2.216000000000000014e+01,4.951601294880667720e-02
2.219999999999999929e+01,5.681925660837591069e-02
2.223999999999999844e+01,3.774820069289826913e-02
2.228000000000000114e+01,3.779723235141644461e-02
2.232000000000000028e+01,4.377957339684569044e-02
2.235999999999999943e+01,3.173924301487266592e-02
2.239999999999999858e+01,3.376406998186666508e-02
2.244000000000000128e+01,4.721669909251890312e-02
2.248000000000000043e+01,4.198731945981343250e-02
2.251999999999999957e+01,5.411979347828532738e-02
2.255999999999999872e+01,3.064722713373811691e-02
2.260000000000000142e+01,2.343761729337035318e-02
2.264000000000000057e+01,2.040308399736614348e-02
2.267999999999999972e+01,1.956561097677752062e-02
2.271999999999999886e+01,3.630977395349568870e-02
2.276000000000000156e+01,3.107523728599758187e-02
2.280000000000000071e+01,4.803771025060359079e-02
2.283999999999999986e+01,3.203250237858062260e-02
2.287999999999999901e+01,3.031223798260032631e-02
2.292000000000000171e+01,4.705273086641754976e-02
2.296000000000000085e+01,3.719915425216750032e-02
2.300000000000000000e+01,2.207013428899016333e-02
2.303999999999999915e+01,2.562165287146933590e-02
2.307999999999999829e+01,2.675486457618909270e-02
2.312000000000000099e+01,2.327197348874821686e-02
2.316000000000000014e+01,1.407408192201326999e-02
2.319999999999999929e+01,4.509513631593411315e-02
2.323999999999999844e+01,2.908261796554376111e-02
2.328000000000000114e+01,1.988254054712356236e-02
2.332000000000000028e+01,1.178063381901357613e-02
2.335999999999999943e+01,3.906252301211943223e-02
2.339999999999999858e+01,2.282731594871340031e-02
2.344000000000000128e+01,3.582207581409112968e-02
2.348000000000000043e+01,2.112387497589075791e-02
2.351999999999999957e+01,3.345784569220795757e-02
2.355999999999999872e+01,3.787902487604644791e-02
2.360000000000000142e+01,4.076102278569758430e-02
2.364000000000000057e+01,1.924675683411588775e-02
2.367999999999999972e+01,2.806135927939752694e-02
2.371999999999999886e+01,1.907308830732645788e-02
2.376000000000000156e+01,3.184228063969647693e-02
2.380000000000000071e+01,4.241295546219375073e-02
2.383999999999999986e+01,1.935662401508070687e-02
2.387999999999999901e+01,4.728845033815056581e-02
2.392000000000000171e+01,3.565922104463156717e-02
2.396000000000000085e+01,1.853478171997589505e-02
2.400000000000000000e+01,3.833260447687449057e-02
2.403999999999999915e+01,3.175615196480924968e-02
2.407999999999999829e+01,3.111303260560308731e-02
2.412000000000000099e+01,4.563399204844480889e-02
2.416000000000000014e+01,3.817627075180109880e-02
2.419999999999999929e+01,3.709144351932929656e-02
2.423999999999999844e+01,6.391791614562312984e-02
2.428000000000000114e+01,4.063391503476899980e-02
2.432000000000000028e+01,2.679972464484338748e-02
2.435999999999999943e+01,4.263507289771822917e-02
2.439999999999999858e+01,3.275548967920668963e-02
2.444000000000000128e+01,3.342461702929739459e-02
2.448000000000000043e+01,3.563149002452572350e-02
2.451999999999999957e+01,2.552999154144651797e-02
2.455999999999999872e+01,2.026293446558016104e-02
2.460000000000000142e+01,2.840172550975434904e-02
2.464000000000000057e+01,2.928707854146051642e-02
2.467999999999999972e+01,2.885304452808266917e-02
2.471999999999999886e+01,3.303367443700470918e-02
2.476000000000000156e+01,4.051029093563975753e-02
2.480000000000000071e+01,3.941479370962566731e-02
2.483999999999999986e+01,2.623070897183883698e-02
2.487999999999999901e+01,2.161732393505845159e-02
2.492000000000000171e+01,2.425596126669783692e-02
2.496000000000000085e+01,4.161912945231623084e-02
2.500000000000000000e+01,2.733332384132724016e-02
2.503999999999999915e+01,3.436543952819757358e-02
2.507999999999999829e+01,4.623200364403799029e-02
2.512000000000000099e+01,1.853752834734479979e-02
2.516000000000000014e+01,2.293017859614559367e-02
2.519999999999999929e+01,3.083860102160023223e-02
2.523999999999999844e+01,2.775733956390207674e-02
2.528000000000000114e+01,3.808193540854267617e-02
2.532000000000000028e+01,4.225200065028153484e-02
2.535999999999999943e+01,3.719062079290271633e-02
2.539999999999999858e+01,2.619449105834602623e-02
2.544000000000000128e+01,3.739540660481517620e-02
2.548000000000000043e+01,1.255176192722570923e-02
2.551999999999999957e+01,3.078422992902972791e-02
2.555999999999999872e+01,4.549952631418691801e-02
2.560000000000000142e+01,2.636806055022776485e-02
2.564000000000000057e+01,2.591716844071172143e-02
2.567999999999999972e+01,3.447654612581286387e-02
2.571999999999999886e+01,3.138690747302253642e-02
2.576000000000000156e+01,2.126362557700274547e-02
2.580000000000000071e+01,1.311766644148884206e-02
2.583999999999999986e+01,3.310280841560094695e-02
2.587999999999999901e+01,2.781259819423572560e-02
2.592000000000000171e+01,3.570847427191812390e-02
2.596000000000000085e+01,2.052679568893005929e-02
2.600000000000000000e+01,1.699274696708442250e-02
2.603999999999999915e+01,1.323822779201905969e-02
2.607999999999999829e+01,3.739503332193728352e-02
2.612000000000000099e+01,2.265015187906236141e-02
2.616000000000000014e+01,1.054193699427049928e-02
2.619999999999999929e+01,3.271865815302382741e-02
2.623999999999999844e+01,2.434532048662860909e-02
2.628000000000000114e+01,1.069658376239042766e-02
2.632000000000000028e+01,5.418986782928339463e-02
2.635999999999999943e+01,2.669363992796014787e-02
2.639999999999999858e+01,5.589987460713092410e-02
2.644000000000000128e+01,2.466602138013159265e-02
2.648000000000000043e+01,1.496988854131138351e-02
2.651999999999999957e+01,1.472359613085451324e-02
2.655999999999999872e+01,9.201908443500911305e-03
2.660000000000000142e+01,3.247067106470286069e-02
2.664000000000000057e+01,3.288166785298590050e-02
2.667999999999999972e+01,1.988542410299234953e-02
2.671999999999999886e+01,2.930602256380385878e-02
2.676000000000000156e+01,2.509960192115558500e-02
2.680000000000000071e+01,4.770561747865566249e-02
2.683999999999999986e+01,3.009127791307383490e-02
2.687999999999999901e+01,2.830039335522786109e-02
2.692000000000000171e+01,3.661869356345791304e-02
2.696000000000000085e+01,3.592534992343085487e-02
2.700000000000000000e+01,3.303353198434532539e-02
2.703999999999999915e+01,2.640478276816071376e-02
2.707999999999999829e+01,3.450059303311978076e-02
2.712000000000000099e+01,1.204635635590391510e-02
2.716000000000000014e+01,9.591391730989801134e-03
2.719999999999999929e+01,2.977305544395620826e-02
2.723999999999999844e+01,1.984423312606065082e-02
2.728000000000000114e+01,4.727727647171143383e-02
2.732000000000000028e+01,2.438010748503382716e-02
2.735999999999999943e+01,3.137229729674829298e-02
2.739999999999999858e+01,4.627588190162437720e-02
2.744000000000000128e+01,3.436567785811932285e-02
2.748000000000000043e+01,1.036692195176319893e-02
2.751999999999999957e+01,3.010364466792018329e-02
2.755999999999999872e+01,3.247710511060894478e-02
2.760000000000000142e+01,2.078399850176914157e-02
2.764000000000000057e+01,5.128791461767257670e-02
2.767999999999999972e+01,3.871435156243516196e-02
2.771999999999999886e+01,2.306320534875787309e-02
2.776000000000000156e+01,3.114759326212183238e-02
2.780000000000000071e+01,3.219836547915056607e-02
2.783999999999999986e+01,3.214957296722757707e-02
2.787999999999999901e+01,3.385835165738581426e-02
2.792000000000000171e+01,2.919285520797508179e-02
2.796000000000000085e+01,4.188928586812572935e-02
2.800000000000000000e+01,2.425546111452893047e-02
2.803999999999999915e+01,2.925827604165153958e-02
2.807999999999999829e+01,3.008461444428253001e-02
2.812000000000000099e+01,2.299822288984481114e-02
2.816000000000000014e+01,2.975728681838574891e-02
2.819999999999999929e+01,1.585640243381616563e-02
2.823999999999999844e+01,5.691110921627173108e-03
2.828000000000000114e+01,1.112951367645164703e-02
2.832000000000000028e+01,3.634742450204413167e-02
2.835999999999999943e+01,2.354279718422813694e-02
2.839999999999999858e+01,3.117701795381123964e-02
2.844000000000000128e+01,7.382091023865781226e-03
2.848000000000000043e+01,3.589406185237040137e-02
2.851999999999999957e+01,3.781203826159727083e-02
2.855999999999999872e+01,4.786120477335932544e-02
2.860000000000000142e+01,2.252519212796765327e-02
2.864000000000000057e+01,2.751811485620101264e-02
2.867999999999999972e+01,2.042250192563860312e-02
2.871999999999999886e+01,2.519433523086436061e-02
2.876000000000000156e+01,3.985559850293050876e-02
2.880000000000000071e+01,2.726353220030408933e-02
2.883999999999999986e+01,2.851693056295433182e-02
2.887999999999999901e+01,2.097849064928949264e-02
2.892000000000000171e+01,1.937344924483992703e-02
2.896000000000000085e+01,1.732819717158480891e-02
2.900000000000000000e+01,2.868885263323956575e-02
2.903999999999999915e+01,5.873012766082735120e-02
2.907999999999999829e+01,3.206760440387865924e-02
2.912000000000000099e+01,2.144834604768924846e-02
2.916000000000000014e+01,3.961957256870667077e-02
2.919999999999999929e+01,2.526276342549542420e-02
2.923999999999999844e+01,1.398222172168342263e-02
2.928000000000000114e+01,3.390974261547373414e-02
2.932000000000000028e+01,2.680372060178254009e-02
2.935999999999999943e+01,2.651022162060815909e-02
2.939999999999999858e+01,3.368858514844670637e-02
2.944000000000000128e+01,3.339379583458467610e-02
2.948000000000000043e+01,3.134012500095242904e-02
2.951999999999999957e+01,4.269236872398735755e-02
2.955999999999999872e+01,3.470336037122978556e-02
2.960000000000000142e+01,4.737299595538050495e-02
2.964000000000000057e+01,1.960253458045791916e-02
2.967999999999999972e+01,2.369948014085052762e-02
2.971999999999999886e+01,4.713639338583502925e-02
2.976000000000000156e+01,5.035293867388819511e-02
2.980000000000000071e+01,5.466774215414998278e-02
2.983999999999999986e+01,6.733353266672642556e-02
2.987999999999999901e+01,3.889989052467958397e-02
2.992000000000000171e+01,5.222374260417356889e-02
2.996000000000000085e+01,3.279978963655365287e-02
3.000000000000000000e+01,4.524324792533031964e-02
3.003999999999999915e+01,4.581796856536093226e-02
3.007999999999999829e+01,4.924918834217575231e-02
3.012000000000000099e+01,8.850385461395834930e-02
3.016000000000000014e+01,8.028548229390809754e-02
3.019999999999999929e+01,6.833022136743761854e-02
3.023999999999999844e+01,8.340722273819446697e-02
3.028000000000000114e+01,9.276931977371868920e-02
3.032000000000000028e+01,1.131197660686233397e-01
3.035999999999999943e+01,1.066564631450146600e-01
3.039999999999999858e+01,1.164562220519446273e-01
3.044000000000000128e+01,1.365849929022997788e-01
3.048000000000000043e+01,1.393505409090542435e-01
3.051999999999999957e+01,1.656318806667236021e-01
3.055999999999999872e+01,1.947697260427992960e-01
3.060000000000000142e+01,1.852257245866751334e-01
3.064000000000000057e+01,1.791975687655884830e-01
3.067999999999999972e+01,1.859160042287283099e-01
3.071999999999999886e+01,1.792272537072443772e-01
3.076000000000000156e+01,1.857246548411645437e-01
3.080000000000000071e+01,1.706830241889459865e-01
3.083999999999999986e+01,1.631132754906067794e-01
3.087999999999999901e+01,1.634549685771893579e-01
3.092000000000000171e+01,1.484114615707411433e-01
3.096000000000000085e+01,1.153453992659534966e-01
3.100000000000000000e+01,1.104105077482296915e-01
3.103999999999999915e+01,1.147057380486903311e-01
3.107999999999999829e+01,8.625317842582208572e-02
3.112000000000000099e+01,7.120655496502800719e-02
3.116000000000000014e+01,7.659881686096038644e-02
3.119999999999999929e+01,8.858384699017404773e-02
3.123999999999999844e+01,8.320566453835559484e-02
3.128000000000000114e+01,4.420057628206926215e-02
3.132000000000000028e+01,6.475515243380125519e-02
3.135999999999999943e+01,5.915533180676017105e-02
3.139999999999999858e+01,4.322524941374469160e-02
3.144000000000000128e+01,5.322854729474327945e-02
3.148000000000000043e+01,5.268180484458412360e-02
3.151999999999999957e+01,2.400265096710972254e-02
3.155999999999999872e+01,2.411401437495252348e-02
3.160000000000000142e+01,4.136757439920395879e-02
3.164000000000000057e+01,2.851070780746271099e-02
3.167999999999999972e+01,3.279603891240043950e-02
3.171999999999999886e+01,3.576207803604500302e-02
3.176000000000000156e+01,3.916706288216088849e-02
3.180000000000000071e+01,3.773628249999542994e-02
3.183999999999999986e+01,1.762361976610347936e-02
3.187999999999999901e+01,2.740037686587839388e-02
3.192000000000000171e+01,2.640731993052883655e-02
3.196000000000000085e+01,3.398505830011175344e-02
3.200000000000000000e+01,3.958416953298683760e-02
3.203999999999999915e+01,2.935853650570875370e-02
3.207999999999999829e+01,2.308832784924196371e-02
3.211999999999999744e+01,4.319106793999457489e-02
3.215999999999999659e+01,2.593066013654121010e-02
3.220000000000000284e+01,1.328501726066554263e-02
3.224000000000000199e+01,2.745188404332219584e-02
3.228000000000000114e+01,1.392590895213922410e-02
3.232000000000000028e+01,1.666302161798343534e-02
3.235999999999999943e+01,2.841049428101912605e-02
3.239999999999999858e+01,1.290468598152815817e-02
3.243999999999999773e+01,1.300262812310888465e-02
3.247999999999999687e+01,9.363712445974493176e-03
3.252000000000000313e+01,1.957031112655287231e-02
3.256000000000000227e+01,1.197415575965252513e-02
3.260000000000000142e+01,2.195976980344744103e-02
3.264000000000000057e+01,3.238434145268758585e-02
3.267999999999999972e+01,3.401712613845440242e-02
3.271999999999999886e+01,1.323178638275637926e-02
3.275999999999999801e+01,2.651169160731859861e-02
3.279999999999999716e+01,3.012069290699851548e-02
3.284000000000000341e+01,3.109173947644824562e-02
3.288000000000000256e+01,1.777651064675907222e-02
3.292000000000000171e+01,2.665842810337349517e-02
3.296000000000000085e+01,2.411120663201692799e-02
3.300000000000000000e+01,1.760735471824900061e-02
3.303999999999999915e+01,3.330065071119012871e-02
3.307999999999999829e+01,2.767472535115119564e-02
3.311999999999999744e+01,2.182842514181856583e-02
3.315999999999999659e+01,2.213536034148350443e-02
3.320000000000000284e+01,1.628787134487639718e-02
3.324000000000000199e+01,2.428590642841514657e-02
3.328000000000000114e+01,2.481084052323019248e-02
3.332000000000000028e+01,3.632416438756400079e-02
3.335999999999999943e+01,2.344135564351277137e-02
3.339999999999999858e+01,2.814032711286042557e-02
3.343999999999999773e+01,3.261892805399572992e-02
3.347999999999999687e+01,4.193209085248810614e-02
3.352000000000000313e+01,1.212388695774116974e-02
3.356000000000000227e+01,3.198529367316762378e-02
3.360000000000000142e+01,2.393409669376173055e-02
3.364000000000000057e+01,3.016798848676078768e-02
3.367999999999999972e+01,3.112658114692450420e-02
3.371999999999999886e+01,1.472199471443689719e-02
3.375999999999999801e+01,2.029478626563779170e-02
3.379999999999999716e+01,4.498782094976484097e-02
3.384000000000000341e+01,3.847156049806565309e-02
3.388000000000000256e+01,2.799868148692891134e-02
3.392000000000000171e+01,5.437337574704526576e-03
3.396000000000000085e+01,6.831391155927434185e-03
3.400000000000000000e+01,2.668635163439143226e-02
3.403999999999999915e+01,3.423306918671956134e-02
3.407999999999999829e+01,1.980123995308618809e-02
3.411999999999999744e+01,1.811604845530426569e-02
3.415999999999999659e+01,3.902836006338393157e-03
3.420000000000000284e+01,1.364502429163092292e-02
3.424000000000000199e+01,1.679324313325857368e-02
3.428000000000000114e+01,1.268815413499566405e-02
3.432000000000000028e+01,1.056050294603083986e-02
3.435999999999999943e+01,2.975089890642119983e-02
3.439999999999999858e+01,2.036936303832173265e-02
3.443999999999999773e+01,2.175645241807221131e-02
3.447999999999999687e+01,2.995613396764202144e-02
3.452000000000000313e+01,2.452890119997618371e-02
3.456000000000000227e+01,7.013212173385396757e-03
3.460000000000000142e+01,1.894742041874631494e-02
3.464000000000000057e+01,2.318876639452577618e-02
3.467999999999999972e+01,2.303394532266393735e-02
3.471999999999999886e+01,4.177960016138358712e-02
3.475999999999999801e+01,3.437090413282019308e-02
3.479999999999999716e+01,1.970890728612347334e-02
3.484000000000000341e+01,3.779350563399425794e-02
3.488000000000000256e+01,2.400948395319230447e-02
3.492000000000000171e+01,3.176329662909176815e-02
3.496000000000000085e+01,2.698909915651075825e-02
3.500000000000000000e+01,3.540111059366241736e-02
3.503999999999999915e+01,5.326307750796974855e-02
3.507999999999999829e+01,4.497069787607538283e-02
3.511999999999999744e+01,5.294144381067045213e-02
3.515999999999999659e+01,6.025228315195849810e-02
3.520000000000000284e+01,7.173836864005510294e-02
3.524000000000000199e+01,4.696024605162253673e-02
3.528000000000000114e+01,5.844519892650289900e-02
3.532000000000000028e+01,7.740209425040223135e-02
3.535999999999999943e+01,8.097384943627533582e-02
3.539999999999999858e+01,8.674283666055000730e-02
3.543999999999999773e+01,9.163214142701021914e-02
3.547999999999999687e+01,1.108065598120935163e-01
3.552000000000000313e+01,1.161342977378669039e-01
3.556000000000000227e+01,1.289339813534703116e-01
3.560000000000000142e+01,1.362386121172730891e-01
3.564000000000000057e+01,1.349712755330593483e-01
3.567999999999999972e+01,2.000768312406613625e-01
3.571999999999999886e+01,2.282588464169952869e-01
3.575999999999999801e+01,2.632534710474742079e-01
3.579999999999999716e+01,3.123134339722038466e-01
3.584000000000000341e+01,3.440102464314465092e-01
3.588000000000000256e+01,3.732889248561861439e-01
3.592000000000000171e+01,4.205889768137478502e-01
3.596000000000000085e+01,4.026139172173306968e-01
3.600000000000000000e+01,3.782646915886501149e-01
3.603999999999999915e+01,3.747939765040947391e-01
3.607999999999999829e+01,3.256085399313416451e-01
3.611999999999999744e+01,2.975213946284377409e-01
3.615999999999999659e+01,2.667963394265234767e-01
3.620000000000000284e+01,2.323344766384652094e-01
3.624000000000000199e+01,2.099599412770620788e-01
3.628000000000000114e+01,2.049474453733364787e-01
3.632000000000000028e+01,1.863080594584583805e-01
3.635999999999999943e+01,1.529428858452943352e-01
3.639999999999999858e+01,1.538627860101451361e-01
3.643999999999999773e+01,1.376393234569903423e-01
3.647999999999999687e+01,1.409756995167256721e-01
3.652000000000000313e+01,1.229929006751062370e-01
3.656000000000000227e+01,1.223721450721107912e-01
3.660000000000000142e+01,1.081245032389088201e-01
3.664000000000000057e+01,1.184916340245719402e-01
3.667999999999999972e+01,1.205065911511866289e-01
3.671999999999999886e+01,1.038397318225662974e-01
3.675999999999999801e+01,1.091502909877726524e-01
3.679999999999999716e+01,1.124822878324921449e-01
3.684000000000000341e+01,1.010885034605479571e-01
3.688000000000000256e+01,1.180457489209920663e-01
3.692000000000000171e+01,1.204969938904964510e-01
3.696000000000000085e+01,1.088817982001036161e-01
3.700000000000000000e+01,1.091341605534802139e-01
3.703999999999999915e+01,1.179573868089567323e-01
3.707999999999999829e+01,1.091976996976829622e-01
3.711999999999999744e+01,1.149429279960281353e-01
3.715999999999999659e+01,1.151931245078446353e-01
3.720000000000000284e+01,1.198383738186821201e-01
3.724000000000000199e+01,1.097578473142075961e-01
3.728000000000000114e+01,1.368195418616194592e-01
3.732000000000000028e+01,1.194852095377459539e-01
3.735999999999999943e+01,1.599523860186729263e-01
3.739999999999999858e+01,1.758037047994141233e-01
3.743999999999999773e+01,1.795666062109629868e-01
3.747999999999999687e+01,2.231090871205180237e-01
3.752000000000000313e+01,2.670905915320097579e-01
3.756000000000000227e+01,3.016210359401584884e-01
3.760000000000000142e+01,4.062606525393237522e-01
3.764000000000000057e+01,5.243062933425970407e-01
3.767999999999999972e+01,6.491645695265035876e-01
3.771999999999999886e+01,8.096266151856078563e-01
3.775999999999999801e+01,9.232750638149234135e-01
3.779999999999999716e+01,1.000000000000000000e+00
3.784000000000000341e+01,9.973839527084169543e-01
3.788000000000000256e+01,9.976245098799774169e-01
3.792000000000000171e+01,8.914911882643485885e-01
3.796000000000000085e+01,8.016210305648067136e-01
3.800000000000000000e+01,7.014207002215944176e-01
3.803999999999999915e+01,6.458351091382610321e-01
3.807999999999999829e+01,5.931061252187469490e-01
3.811999999999999744e+01,4.977393623942802936e-01
3.815999999999999659e+01,4.516027130046250115e-01
3.820000000000000284e+01,4.072237741719262893e-01
3.824000000000000199e+01,3.582289367181631934e-01
3.828000000000000114e+01,3.312115382833635269e-01
3.832000000000000028e+01,3.094683263531844419e-01
3.835999999999999943e+01,2.740982519587466526e-01
3.839999999999999858e+01,2.468595005400973097e-01
3.843999999999999773e+01,2.301696487373617594e-01
3.847999999999999687e+01,1.943584449544315529e-01
3.852000000000000313e+01,1.895356488948759244e-01
3.856000000000000227e+01,1.735035691717274897e-01
3.860000000000000142e+01,1.715368655522921670e-01
3.864000000000000057e+01,1.706685394949394308e-01
3.867999999999999972e+01,1.763930826761457571e-01
3.871999999999999886e+01,1.502490576816562784e-01
3.875999999999999801e+01,1.513571896786401194e-01
3.879999999999999716e+01,1.405967023164813590e-01
3.884000000000000341e+01,1.359895270625151864e-01
3.888000000000000256e+01,1.551180360931692093e-01
3.892000000000000171e+01,1.443559964578862986e-01
3.896000000000000085e+01,1.406263891330160887e-01
3.900000000000000000e+01,1.155776403951718490e-01
3.903999999999999915e+01,1.259128993115324335e-01
3.907999999999999829e+01,1.296542541405844851e-01
3.911999999999999744e+01,1.355928912406094144e-01
3.915999999999999659e+01,1.446079297335570168e-01
3.920000000000000284e+01,1.397763374596309727e-01
3.924000000000000199e+01,1.465925538315905885e-01
3.928000000000000114e+01,1.567049528623320753e-01
3.932000000000000028e+01,1.527509431011516983e-01
3.935999999999999943e+01,1.531920153062918677e-01
3.939999999999999858e+01,1.652808983178584434e-01
3.943999999999999773e+01,1.424243078398111928e-01
3.947999999999999687e+01,1.666000521664995626e-01
3.952000000000000313e+01,1.824236611837370403e-01
3.956000000000000227e+01,1.936313894043709960e-01
3.960000000000000142e+01,2.169264904230145119e-01
3.964000000000000057e+01,2.316496781071590572e-01
3.967999999999999972e+01,2.378009529969395963e-01
3.971999999999999886e+01,2.410945864142867434e-01
3.975999999999999801e+01,2.472448496811305019e-01
3.979999999999999716e+01,2.661418273830207237e-01
3.984000000000000341e+01,2.966866218328242377e-01
3.988000000000000256e+01,2.828354239799936720e-01
3.992000000000000171e+01,3.098627368006832694e-01
3.996000000000000085e+01,3.023841424444235204e-01
4.000000000000000000e+01,3.098500616784227724e-01
4.003999999999999915e+01,3.537989002972745656e-01
4.007999999999999829e+01,3.531319696687144072e-01
4.011999999999999744e+01,3.674095542508185597e-01
4.015999999999999659e+01,3.680603006747470984e-01
4.020000000000000284e+01,3.847544616168785403e-01
4.024000000000000199e+01,3.897998022901872917e-01
4.028000000000000114e+01,4.005589152256477381e-01
4.032000000000000028e+01,4.093395133725167834e-01
4.035999999999999943e+01,4.273503591890662756e-01
4.039999999999999858e+01,4.611848425790410766e-01
4.043999999999999773e+01,4.758980004554447252e-01
4.047999999999999687e+01,4.958853740037685309e-01
4.052000000000000313e+01,5.451029451185962493e-01
4.056000000000000227e+01,5.384959915494975657e-01
4.060000000000000142e+01,5.894708108906950850e-01
4.064000000000000057e+01,5.931925128009291059e-01
4.067999999999999972e+01,6.122982967746274374e-01
4.071999999999999886e+01,5.757993378703937237e-01
4.075999999999999801e+01,5.902887646733870897e-01
4.079999999999999716e+01,5.667558213150114543e-01
4.084000000000000341e+01,5.366289976352749402e-01
4.088000000000000256e+01,5.080401410560981823e-01
4.092000000000000171e+01,4.807694724721624513e-01
4.096000000000000085e+01,4.622895003690274396e-01
4.100000000000000000e+01,4.152376855597067484e-01
4.103999999999999915e+01,3.947787195932031534e-01
4.107999999999999829e+01,3.846489092460815273e-01
4.111999999999999744e+01,3.670461037767306367e-01
4.115999999999999659e+01,3.520801674161539441e-01
4.120000000000000284e+01,3.500807440408085225e-01
4.124000000000000199e+01,3.164325661637369946e-01
4.128000000000000114e+01,2.975091395157964391e-01
4.132000000000000028e+01,2.917720071189461861e-01
4.135999999999999943e+01,3.148255243405313486e-01
4.139999999999999858e+01,2.585381061574874573e-01
4.143999999999999773e+01,2.730192509547978430e-01
4.147999999999999687e+01,2.571703223639152380e-01
4.152000000000000313e+01,2.294528111430819139e-01
4.156000000000000227e+01,2.270094779141012264e-01
4.160000000000000142e+01,2.208294100172256136e-01
4.164000000000000057e+01,2.258576238834389682e-01
4.167999999999999972e+01,2.165996811802522459e-01
4.171999999999999886e+01,2.038247850750296020e-01
4.175999999999999801e+01,1.969834608624136951e-01
4.179999999999999716e+01,1.800317949644226756e-01
4.184000000000000341e+01,1.714312781392989260e-01
4.188000000000000256e+01,1.793137578089628592e-01
4.192000000000000171e+01,1.617013222319012566e-01
4.196000000000000085e+01,1.451873090481417272e-01
4.200000000000000000e+01,1.255959055341999142e-01
4.203999999999999915e+01,1.099600608847281641e-01
4.207999999999999829e+01,1.228950959306711610e-01
4.211999999999999744e+01,1.250604546759594982e-01
4.215999999999999659e+01,1.006320031880649501e-01
4.220000000000000284e+01,1.036755347887224760e-01
4.224000000000000199e+01,9.682851029094548256e-02
4.228000000000000114e+01,8.404696385303486728e-02
4.232000000000000028e+01,7.763855616053079445e-02
4.235999999999999943e+01,8.024064349901217919e-02
4.239999999999999858e+01,9.712793789950205370e-02
4.243999999999999773e+01,7.841046038415533381e-02
4.247999999999999687e+01,6.782436093838503655e-02
4.252000000000000313e+01,7.723774095682385543e-02
4.256000000000000227e+01,8.247483997970458947e-02
4.260000000000000142e+01,6.968954088358211840e-02
4.264000000000000057e+01,6.811253705392784907e-02
4.267999999999999972e+01,5.862299987640896132e-02
4.271999999999999886e+01,5.990219975472145519e-02
4.275999999999999801e+01,4.909305410182003560e-02
4.279999999999999716e+01,7.388774652128368703e-02
4.284000000000000341e+01,5.912163880809662153e-02
4.288000000000000256e+01,6.633303222941823452e-02
4.292000000000000171e+01,5.068687965283740632e-02
4.296000000000000085e+01,5.196329744560143626e-02
4.300000000000000000e+01,5.653594812971875910e-02
4.303999999999999915e+01,5.561364642717813583e-02
4.307999999999999829e+01,3.996564776906121053e-02
4.311999999999999744e+01,5.398744107714191498e-02
4.315999999999999659e+01,4.251433588268749980e-02
4.320000000000000284e+01,4.950226181656448843e-02
4.324000000000000199e+01,5.275347522808882667e-02
4.328000000000000114e+01,5.358665453011749596e-02
4.332000000000000028e+01,5.617761352640517764e-02
4.335999999999999943e+01,5.415274303893103519e-02
4.339999999999999858e+01,3.916041708059125881e-02
4.343999999999999773e+01,4.526648123683792851e-02
4.347999999999999687e+01,5.488856441151355320e-02
4.352000000000000313e+01,6.604865033567045018e-02
4.356000000000000227e+01,4.819736883138543704e-02
4.360000000000000142e+01,4.660932740224707493e-02
4.364000000000000057e+01,6.084496729748322535e-02
4.367999999999999972e+01,5.354174933010728832e-02
4.371999999999999886e+01,5.371058724013735158e-02
4.375999999999999801e+01,6.728553199495711235e-02
4.379999999999999716e+01,5.053043468942408634e-02
4.384000000000000341e+01,3.992871700898056181e-02
4.388000000000000256e+01,5.833746262094197804e-02
4.392000000000000171e+01,5.147109963839030522e-02
4.396000000000000085e+01,5.625260903767506648e-02
4.400000000000000000e+01,5.751719582262902059e-02
4.403999999999999915e+01,6.911097819696788991e-02
4.407999999999999829e+01,7.301202577362683743e-02
4.411999999999999744e+01,7.713240632907276961e-02
4.415999999999999659e+01,8.147212040344083139e-02
4.420000000000000284e+01,7.811910130053446866e-02
4.424000000000000199e+01,6.905136636957187601e-02
4.428000000000000114e+01,7.053260991425884530e-02
4.432000000000000028e+01,6.498046083843797560e-02
4.435999999999999943e+01,6.580147805491749768e-02
4.439999999999999858e+01,6.222645947660342125e-02
4.443999999999999773e+01,5.843121890725037904e-02
4.447999999999999687e+01,5.903112944152038438e-02
4.452000000000000313e+01,6.886134381952901951e-02
4.456000000000000227e+01,7.033949094511897371e-02
4.460000000000000142e+01,5.577328376754729644e-02
4.464000000000000057e+01,4.604178914504665487e-02
4.467999999999999972e+01,5.477134563587903598e-02
4.471999999999999886e+01,5.295104058029674599e-02
4.475999999999999801e+01,2.959189224575221877e-02
4.479999999999999716e+01,3.766079572671190978e-02
4.484000000000000341e+01,4.089411006345758381e-02
4.488000000000000256e+01,3.863249685976356818e-02
4.492000000000000171e+01,3.702978672846728853e-02
4.496000000000000085e+01,3.542664127334302360e-02
4.500000000000000000e+01,2.679011238000878620e-02
4.503999999999999915e+01,4.452670669755587340e-02
4.507999999999999829e+01,2.753768333000260887e-02
4.511999999999999744e+01,3.911958070813753574e-02
4.515999999999999659e+01,2.322858978141307054e-02
4.520000000000000284e+01,2.404041982614961784e-02
4.524000000000000199e+01,4.287374925520429092e-02
4.528000000000000114e+01,3.950890349069301200e-02
4.532000000000000028e+01,2.867111931814594894e-02
4.535999999999999943e+01,3.629439544122983058e-02
4.539999999999999858e+01,3.051068380929953389e-02
4.543999999999999773e+01,2.802323801696825559e-02
4.547999999999999687e+01,2.795294002255639329e-02
4.552000000000000313e+01,3.755251866616998724e-02
4.556000000000000227e+01,2.011877369718324815e-02
4.560000000000000142e+01,2.795926127370202546e-02
4.564000000000000057e+01,1.843673071785179376e-02
4.567999999999999972e+01,2.671592584235300827e-02
4.571999999999999886e+01,3.543425519650184735e-02
4.575999999999999801e+01,3.799832995682375647e-02
4.579999999999999716e+01,3.330925243618563375e-02
4.584000000000000341e+01,2.180658246562996311e-02
4.588000000000000256e+01,3.469903023971145778e-02
4.592000000000000171e+01,2.912956543510181184e-02
4.596000000000000085e+01,3.147174604637521800e-02
4.600000000000000000e+01,2.392342133192064055e-02
4.603999999999999915e+01,2.582520063179503250e-02
4.607999999999999829e+01,1.717713674985082983e-02
4.611999999999999744e+01,2.369344874430108494e-02
4.615999999999999659e+01,1.702256289175909515e-02
4.620000000000000284e+01,3.145010442313072446e-02
4.624000000000000199e+01,1.752565365147806808e-02
4.628000000000000114e+01,2.294139418038010705e-02
4.632000000000000028e+01,4.180956750147812352e-03
4.635999999999999943e+01,3.443096383698427548e-02
4.639999999999999858e+01,2.665867638137630127e-02
4.643999999999999773e+01,3.119363373234660883e-02
4.647999999999999687e+01,2.781610904829394729e-02
4.652000000000000313e+01,2.311949223296319925e-02
4.656000000000000227e+01,2.545541035372849911e-02
4.660000000000000142e+01,1.592281444171050192e-02
4.664000000000000057e+01,3.188424476416613917e-02
4.667999999999999972e+01,1.290029936147475166e-02
4.671999999999999886e+01,1.589390694626886466e-02
4.675999999999999801e+01,5.260765495191113521e-03
4.679999999999999716e+01,1.045134803916680614e-02
4.684000000000000341e+01,2.025689320019451872e-02
4.688000000000000256e+01,1.247965732759010946e-02
4.692000000000000171e+01,2.206460458862018192e-02
4.696000000000000085e+01,1.736346657809331034e-02
4.700000000000000000e+01,3.870734972486106640e-03
4.703999999999999915e+01,1.587203500270435025e-02
4.707999999999999829e+01,2.941138585443441381e-02
4.711999999999999744e+01,1.987346777700199976e-02
4.715999999999999659e+01,1.209338124680545135e-02
4.720000000000000284e+01,2.958754886752134119e-02
4.724000000000000199e+01,1.872973768859247101e-02
4.728000000000000114e+01,2.039896230453422388e-02
4.732000000000000028e+01,1.195791977375515111e-02
4.735999999999999943e+01,0.000000000000000000e+00
4.739999999999999858e+01,2.452509899596979487e-02
4.743999999999999773e+01,8.610341393019476861e-03
4.747999999999999687e+01,1.049733377650343726e-02
4.752000000000000313e+01,2.293334838658623795e-02
4.756000000000000227e+01,1.624813362715922874e-02
4.760000000000000142e+01,1.461745103825995429e-02
4.764000000000000057e+01,1.386548789640408563e-02
4.767999999999999972e+01,7.838414669024351689e-03
4.771999999999999886e+01,1.301970530528027276e-02
4.775999999999999801e+01,1.622258161808758092e-02
4.779999999999999716e+01,1.041409549306439655e-02
4.784000000000000341e+01,2.240736421569212988e-02
4.788000000000000256e+01,9.784916753550011725e-03
4.792000000000000171e+01,1.716202167386577521e-02
4.796000000000000085e+01,2.739586717138921268e-02
4.800000000000000000e+01,2.686011576812876236e-02
4.803999999999999915e+01,2.346683524055137235e-02
4.807999999999999829e+01,1.084241641063601012e-02
4.811999999999999744e+01,1.338240046387390372e-02
4.815999999999999659e+01,1.416375524046857917e-02
4.820000000000000284e+01,1.890075206235035041e-02
4.824000000000000199e+01,2.056044281513731697e-02
4.828000000000000114e+01,1.870326874805730566e-02
4.832000000000000028e+01,1.266989146488456397e-02
4.835999999999999943e+01,1.147127696935422436e-02
4.839999999999999858e+01,2.170081516521119025e-02
4.843999999999999773e+01,3.324864290172239306e-02
4.847999999999999687e+01,2.369723688274989748e-02
4.852000000000000313e+01,2.887067985737512554e-02
4.856000000000000227e+01,1.821960164767482196e-02
4.860000000000000142e+01,1.548020450277914385e-02
4.864000000000000057e+01,1.449865889012091208e-02
4.867999999999999972e+01,3.043976088613761094e-02
4.871999999999999886e+01,3.517171641289633388e-02
4.875999999999999801e+01,1.484840834695179933e-02
4.879999999999999716e+01,2.485430788276081840e-02
4.884000000000000341e+01,2.233238469699542345e-02
4.888000000000000256e+01,1.409580833885412839e-02
4.892000000000000171e+01,2.629835715745742000e-02
4.896000000000000085e+01,2.355550877490154502e-02
4.900000000000000000e+01,1.861448316763382460e-02
4.903999999999999915e+01,2.224448350301867772e-02
4.907999999999999829e+01,2.631366343940593627e-02
4.911999999999999744e+01,2.862422706239422035e-02
4.915999999999999659e+01,3.115419172120161007e-02
4.920000000000000284e+01,2.005744029238279783e-02
4.924000000000000199e+01,2.786136084321438888e-02
4.928000000000000114e+01,2.929129468666086603e-02
4.932000000000000028e+01,1.621539548107210627e-02
4.935999999999999943e+01,3.083135569368552001e-02
4.939999999999999858e+01,3.269972110116330100e-02
4.943999999999999773e+01,2.335894976181619037e-02
4.947999999999999687e+01,2.962215896112563307e-02
4.952000000000000313e+01,2.709380859387085921e-02
4.956000000000000227e+01,2.522442395469420146e-02
4.960000000000000142e+01,2.555246310190649808e-02
4.964000000000000057e+01,2.126475756657960833e-02
4.967999999999999972e+01,2.247117157971678311e-02
4.971999999999999886e+01,2.389699419056560276e-02
4.975999999999999801e+01,3.367407282104649402e-02
4.979999999999999716e+01,2.432995232958739054e-02
4.984000000000000341e+01,3.234805440163070894e-02
4.988000000000000256e+01,2.102517878655071892e-02
4.992000000000000171e+01,2.794364539705811862e-02
4.996000000000000085e+01,3.508152384608819591e-02
5.000000000000000000e+01,3.035093417382480480e-02
5.003999999999999915e+01,1.924636805674472331e-02
5.007999999999999829e+01,2.770182419851460742e-02
5.011999999999999744e+01,3.923382973024539672e-02
5.015999999999999659e+01,2.615014986491136229e-02
5.020000000000000284e+01,2.691222309703779694e-02
5.024000000000000199e+01,3.646511812132571806e-02
5.028000000000000114e+01,3.217153199618352777e-02
5.032000000000000028e+01,4.414127668889759881e-02
5.035999999999999943e+01,3.742938911247149086e-02
5.039999999999999858e+01,3.555229187058173840e-02
5.043999999999999773e+01,3.147703684884649300e-02
5.047999999999999687e+01,2.652230246012284021e-02
5.052000000000000313e+01,4.046825733537517955e-02
5.056000000000000227e+01,2.650183753310958804e-02
5.060000000000000142e+01,3.890861602051467333e-02
5.064000000000000057e+01,4.450186687422337528e-02
5.067999999999999972e+01,4.635850567072195144e-02
5.071999999999999886e+01,3.964338075016523438e-02
5.075999999999999801e+01,4.787291471622968225e-02
5.079999999999999716e+01,4.247575420007503044e-02
5.084000000000000341e+01,5.444082975080215270e-02
5.088000000000000256e+01,5.805392339046830386e-02
5.092000000000000171e+01,5.639195069555981432e-02
5.096000000000000085e+01,6.879552100613380017e-02
5.100000000000000000e+01,6.537460308062795211e-02
5.103999999999999915e+01,6.898628058635783433e-02
5.107999999999999829e+01,6.776245320896123747e-02
5.111999999999999744e+01,5.598885070677803166e-02
5.115999999999999659e+01,6.970933547434339517e-02
5.120000000000000284e+01,6.584709754287548789e-02
5.124000000000000199e+01,7.055591526149485038e-02
5.128000000000000114e+01,5.570399455226850843e-02
5.132000000000000028e+01,6.041211284608257598e-02
5.135999999999999943e+01,5.369134067410659406e-02
5.139999999999999858e+01,5.817898205820239144e-02
5.143999999999999773e+01,4.398500575680779068e-02
5.147999999999999687e+01,4.561481664628219690e-02
5.152000000000000313e+01,4.834317902136568701e-02
5.156000000000000227e+01,4.162067044041786040e-02
5.160000000000000142e+01,3.313957903445197833e-02
5.164000000000000057e+01,3.674602300718359665e-02
5.167999999999999972e+01,4.189057991697231476e-02
5.171999999999999886e+01,3.780404767672416316e-02
5.175999999999999801e+01,3.745342590834000590e-02
5.179999999999999716e+01,3.732224082469660226e-02
5.184000000000000341e+01,4.246542481136322822e-02
5.188000000000000256e+01,3.881708109944088242e-02
5.192000000000000171e+01,4.220134470172815649e-02
5.196000000000000085e+01,3.569518345842856433e-02
5.200000000000000000e+01,3.907876600050658178e-02
5.203999999999999915e+01,4.136311059541435131e-02
5.207999999999999829e+01,3.881196381057492456e-02
5.211999999999999744e+01,2.790885185886502959e-02
5.215999999999999659e+01,4.513719642572686097e-02
5.220000000000000284e+01,3.511252739697395125e-02
5.224000000000000199e+01,5.365887525797059104e-02
5.228000000000000114e+01,3.725992301274477780e-02
5.232000000000000028e+01,3.536609142850468540e-02
5.235999999999999943e+01,3.940597487269286575e-02
5.239999999999999858e+01,3.025874473097632522e-02
5.243999999999999773e+01,3.100126431612415870e-02
5.247999999999999687e+01,4.888626246824233357e-02
5.252000000000000313e+01,3.424353985493942126e-02
5.256000000000000227e+01,2.553453497074064521e-02
5.260000000000000142e+01,3.484712885573232333e-02
5.264000000000000057e+01,4.284071325012785841e-02
5.267999999999999972e+01,3.830652677592576855e-02
5.271999999999999886e+01,5.860710970038307543e-02
5.275999999999999801e+01,4.747887332749862327e-02
5.279999999999999716e+01,3.569096856091972386e-02
5.284000000000000341e+01,4.082576757707395698e-02
5.288000000000000256e+01,3.848773027074067765e-02
5.292000000000000171e+01,6.120424470919636623e-02
5.296000000000000085e+01,5.007436645099586081e-02
5.300000000000000000e+01,3.696614462705478249e-02
5.303999999999999915e+01,4.231908680469844558e-02
5.307999999999999829e+01,3.997941571507676595e-02
5.311999999999999744e+01,4.555148672553459288e-02
5.315999999999999659e+01,5.441992782168034171e-02
5.320000000000000284e+01,4.065074138011749022e-02
5.324000000000000199e+01,4.754051809535185524e-02
5.328000000000000114e+01,2.651795686226029666e-02
5.332000000000000028e+01,4.505540937525082806e-02
5.335999999999999943e+01,4.666950729286858945e-02
5.339999999999999858e+01,3.465694583705368481e-02
5.343999999999999773e+01,3.231436796602898259e-02
5.347999999999999687e+01,3.260882556541254418e-02
5.352000000000000313e+01,3.092494662081280918e-02
5.356000000000000227e+01,4.000995110867713866e-02
5.360000000000000142e+01,3.261116353288702474e-02
5.364000000000000057e+01,3.070654897894349936e-02
5.367999999999999972e+01,4.264773451422067957e-02
5.371999999999999886e+01,3.568755350625890665e-02
5.375999999999999801e+01,2.916661529511503648e-02
5.379999999999999716e+01,3.077720801180232335e-02
5.384000000000000341e+01,3.590395964192919648e-02
5.388000000000000256e+01,2.630516015297712160e-02
5.392000000000000171e+01,4.154114626673974242e-02
5.396000000000000085e+01,3.128237971446466703e-02
5.400000000000000000e+01,3.926501048156483265e-02
5.403999999999999915e+01,3.340121087194148491e-02
5.407999999999999829e+01,2.336128582569067455e-02
5.411999999999999744e+01,2.892540397377683578e-02
5.415999999999999659e+01,3.536832961094004552e-02
5.420000000000000284e+01,3.477799604098378433e-02
5.424000000000000199e+01,2.078079408588721227e-02
5.428000000000000114e+01,3.579419585834137801e-02
5.432000000000000028e+01,2.179637549871581495e-02
5.435999999999999943e+01,3.087510951966267181e-02
5.439999999999999858e+01,1.665689327059526048e-02
5.443999999999999773e+01,3.562509617323873778e-02
5.447999999999999687e+01,2.821943484978714847e-02
5.452000000000000313e+01,3.180244956749750385e-02
5.456000000000000227e+01,3.362692143019269803e-02
5.460000000000000142e+01,3.127527487801779610e-02
5.464000000000000057e+01,3.090134052381034169e-02
5.467999999999999972e+01,3.118644103498354608e-02
5.471999999999999886e+01,3.828440702437504312e-02
5.475999999999999801e+01,2.757991874131032750e-02
5.479999999999999716e+01,2.434763595309516124e-02
5.484000000000000341e+01,2.814799990895742662e-02
5.488000000000000256e+01,2.601401206726657728e-02
5.492000000000000171e+01,2.849509594993326206e-02
5.496000000000000085e+01,2.789896450621467267e-02
5.500000000000000000e+01,3.455526161256786827e-02
5.503999999999999915e+01,3.198051440010380581e-02
5.507999999999999829e+01,3.028458709982577435e-02
5.511999999999999744e+01,3.496197138821045131e-02
5.515999999999999659e+01,2.974897404182235208e-02
5.520000000000000284e+01,3.178840794618198462e-02
5.524000000000000199e+01,3.888247718688785798e-02
5.528000000000000114e+01,2.663564165871923697e-02
5.532000000000000028e+01,3.175110269257202383e-02
5.535999999999999943e+01,2.939376089231817563e-02
5.539999999999999858e+01,3.406907339803421503e-02
5.543999999999999773e+01,2.731555053174817768e-02
5.547999999999999687e+01,3.418807241531204855e-02
5.552000000000000313e+01,2.259881135262709062e-02
5.556000000000000227e+01,2.815207044732102523e-02
5.560000000000000142e+01,4.029842725775339973e-02
5.564000000000000057e+01,2.585115586055715745e-02
5.567999999999999972e+01,3.184310092295018074e-02
5.571999999999999886e+01,3.497762056697989452e-02
5.575999999999999801e+01,3.393603746005954130e-02
5.579999999999999716e+01,2.937769107868533694e-02
5.584000000000000341e+01,3.251134388112891793e-02
5.588000000000000256e+01,3.916118314390601429e-02
5.592000000000000171e+01,3.855800677992250736e-02
5.596000000000000085e+01,4.388859405653316309e-02
5.600000000000000000e+01,2.592225266853658353e-02
5.603999999999999915e+01,3.301050515587262285e-02
5.607999999999999829e+01,4.119737070422785363e-02
5.611999999999999744e+01,4.213122332649837931e-02
5.615999999999999659e+01,3.603184320827307330e-02
5.620000000000000284e+01,2.861350167148225127e-02
5.624000000000000199e+01,2.624980897441708816e-02
5.628000000000000114e+01,3.047922317538832859e-02
5.632000000000000028e+01,3.624681296909709055e-02
5.635999999999999943e+01,3.959654527751276659e-02
5.639999999999999858e+01,3.964930205895578902e-02
5.643999999999999773e+01,2.739411838996144016e-02
5.647999999999999687e+01,4.085287347414766346e-02
5.652000000000000313e+01,4.200368918816681230e-02
5.656000000000000227e+01,3.414326075395894555e-02
5.660000000000000142e+01,3.661219751158117930e-02
5.664000000000000057e+01,3.864129737393939140e-02
5.667999999999999972e+01,3.143937506302250939e-02
5.671999999999999886e+01,2.951188771890699003e-02
5.675999999999999801e+01,2.802368368174772487e-02
5.679999999999999716e+01,3.510661037346507474e-02
5.684000000000000341e+01,4.065080464332597454e-02
5.688000000000000256e+01,2.685411574971946838e-02
5.692000000000000171e+01,2.976040608718041880e-02
5.696000000000000085e+01,3.024884704137587033e-02
5.700000000000000000e+01,2.656120198881175079e-02
5.703999999999999915e+01,3.122491126048165117e-02
5.707999999999999829e+01,2.489936659659892915e-02
5.711999999999999744e+01,3.593614280082060158e-02
5.715999999999999659e+01,3.224741217704786556e-02
5.720000000000000284e+01,3.405290264715226528e-02
5.724000000000000199e+01,3.124275106040081545e-02
5.728000000000000114e+01,2.645431370237263241e-02
5.732000000000000028e+01,3.177547161315390917e-02
5.735999999999999943e+01,3.555790412383612320e-02
5.739999999999999858e+01,2.966976489276906478e-02
5.743999999999999773e+01,3.806703581453654145e-02
5.747999999999999687e+01,3.151902458393734258e-02
5.752000000000000313e+01,3.332237415919430540e-02
5.756000000000000227e+01,2.963096741686218824e-02
5.760000000000000142e+01,3.538982078792486663e-02
5.764000000000000057e+01,3.433524104894686985e-02
5.767999999999999972e+01,2.668700838551706783e-02
5.771999999999999886e+01,3.881868079220947287e-02
5.775999999999999801e+01,3.732375270020332758e-02
5.779999999999999716e+01,2.923517330415092638e-02
5.784000000000000341e+01,2.971773868048969633e-02
5.788000000000000256e+01,3.283739894210613991e-02
5.792000000000000171e+01,3.090186703825743841e-02
5.796000000000000085e+01,3.270232932722496461e-02
5.800000000000000000e+01,2.878826159463673817e-02
5.803999999999999915e+01,2.751129090786681025e-02
5.807999999999999829e+01,3.568458681611388905e-02
5.811999999999999744e+01,3.220930389596191046e-02
5.815999999999999659e+01,3.312935680566302804e-02
5.820000000000000284e+01,3.317003459446474928e-02
5.824000000000000199e+01,3.518847319339968999e-02
5.828000000000000114e+01,2.797591122446652784e-02
5.832000000000000028e+01,2.999383944590775300e-02
5.835999999999999943e+01,3.157195399789742424e-02
5.839999999999999858e+01,2.787510322059043658e-02
5.843999999999999773e+01,4.219993007220957520e-02
5.847999999999999687e+01,3.872235288394387798e-02
5.852000000000000313e+01,2.755223588679667213e-02
5.856000000000000227e+01,2.583239196628852111e-02
5.860000000000000142e+01,2.938700839893517228e-02
5.864000000000000057e+01,3.623806891578870704e-02
5.867999999999999972e+01,3.671526965702344436e-02
5.871999999999999886e+01,3.917023769001359845e-02
5.875999999999999801e+01,2.975685589131383396e-02
5.879999999999999716e+01,3.682669906458121284e-02
5.884000000000000341e+01,3.114907490461439263e-02
5.888000000000000256e+01,3.667996530599734045e-02
5.892000000000000171e+01,3.627655846347982438e-02
5.896000000000000085e+01,3.894982038079700809e-02
5.900000000000000000e+01,3.810636223447443766e-02
5.903999999999999915e+01,4.627362435550561037e-02
5.907999999999999829e+01,3.817694805685515475e-02
5.911999999999999744e+01,3.777231523310702749e-02
5.915999999999999659e+01,3.890589635169378058e-02
5.920000000000000284e+01,2.927003180734590385e-02
5.924000000000000199e+01,2.864489023102778295e-02
5.928000000000000114e+01,3.615135358105983632e-02
5.932000000000000028e+01,3.706418615218225882e-02
5.935999999999999943e+01,4.632840437537896761e-02
5.939999999999999858e+01,4.438362034540959539e-02
5.943999999999999773e+01,4.353749474781409834e-02
5.947999999999999687e+01,4.598782457726426770e-02
5.952000000000000313e+01,3.547091661032464316e-02
5.956000000000000227e+01,4.209658281428142051e-02
5.960000000000000142e+01,4.278796095663576354e-02
5.964000000000000057e+01,3.864394980479118891e-02
5.967999999999999972e+01,4.197221004428757646e-02
5.971999999999999886e+01,3.848706526077243228e-02
5.975999999999999801e+01,3.983683720342481166e-02
5.979999999999999716e+01,3.151606981243845751e-02
5.984000000000000341e+01,4.033788037329476273e-02
5.988000000000000256e+01,4.630232168984611124e-02
5.992000000000000171e+01,5.116763146585692063e-02
5.996000000000000085e+01,5.229645449601835749e-02
