2.003999999999999915e+01,4.257153389053920656e-02
2.007999999999999829e+01,2.824939109850762436e-02
2.012000000000000099e+01,1.811427942054340268e-02
2.016000000000000014e+01,3.607079677489562902e-02
2.019999999999999929e+01,2.715581683709359859e-02
2.023999999999999844e+01,2.818591007839196805e-02
2.028000000000000114e+01,3.671827096426995285e-02
2.032000000000000028e+01,3.478082967347768950e-02
2.035999999999999943e+01,2.882957256613677757e-02
2.039999999999999858e+01,2.479702765562528943e-02
2.044000000000000128e+01,0.000000000000000000e+00
2.048000000000000043e+01,3.016546384512935539e-02
2.051999999999999957e+01,3.398288941377852063e-02
2.055999999999999872e+01,3.308855512163563078e-02
2.060000000000000142e+01,3.376396121324116983e-02
2.064000000000000057e+01,3.077452430477480363e-02
2.067999999999999972e+01,3.336800860565768828e-02
2.071999999999999886e+01,3.037730280230778804e-02
2.076000000000000156e+01,2.564110152112806726e-02
2.080000000000000071e+01,1.619314088085450909e-02
2.083999999999999986e+01,3.448783846321098329e-02
2.087999999999999901e+01,3.376291537604559495e-02
2.092000000000000171e+01,2.902417764295984332e-02
2.096000000000000085e+01,2.271443096570727876e-02
2.100000000000000000e+01,2.896705078998360397e-02
2.103999999999999915e+01,1.724696697269037168e-02
2.107999999999999829e+01,3.082673626158827229e-02
2.112000000000000099e+01,3.568156620195425677e-02
2.116000000000000014e+01,3.373080414879826155e-02
2.119999999999999929e+01,2.165921398969331002e-02
2.123999999999999844e+01,1.848578240660920385e-02
2.128000000000000114e+01,3.991425988547273734e-02
2.132000000000000028e+01,4.598732604179953803e-02
2.135999999999999943e+01,4.612723120059187415e-02
2.139999999999999858e+01,3.492490586244814676e-02
2.144000000000000128e+01,2.790961439771387151e-02
2.148000000000000043e+01,3.956370448324723899e-02
2.151999999999999957e+01,3.272163358386302040e-02
2.155999999999999872e+01,4.140819432151695428e-02
2.160000000000000142e+01,3.700766382450416947e-02
2.164000000000000057e+01,4.516950116688117634e-02
2.167999999999999972e+01,2.803021935113829757e-02
2.171999999999999886e+01,3.113069462759175676e-02
2.176000000000000156e+01,4.557213518521543300e-02
2.180000000000000071e+01,2.912890113696880653e-02
2.183999999999999986e+01,4.269664690431627940e-02
2.187999999999999901e+01,2.974187112255668314e-02
2.192000000000000171e+01,4.505321416781142563e-02
2.196000000000000085e+01,3.977456376095366702e-02
2.200000000000000000e+01,3.885743451371492102e-02
2.203999999999999915e+01,3.724172915785577131e-02
2.207999999999999829e+01,4.592007305860996980e-02
2.212000000000000099e+01,4.430310466100916694e-02
2.216000000000000014e+01,2.610932388774548502e-02
2.219999999999999929e+01,3.426231525541674483e-02
2.223999999999999844e+01,4.485748101301142293e-02
2.228000000000000114e+01,2.142722308766966885e-02
2.232000000000000028e+01,5.540226612757007119e-02
2.235999999999999943e+01,3.179626004830096719e-02
2.239999999999999858e+01,3.663085991502331579e-02
2.244000000000000128e+01,4.373314847416929357e-02
2.248000000000000043e+01,3.303722251751424477e-02
2.251999999999999957e+01,4.746666656165629550e-02
2.255999999999999872e+01,6.451277178023326342e-02
2.260000000000000142e+01,3.898363432132427586e-02
2.264000000000000057e+01,5.149183966707186061e-02
2.267999999999999972e+01,4.358453918138165128e-02
2.271999999999999886e+01,4.073670582272887614e-02
2.276000000000000156e+01,4.102899240333644088e-02
2.280000000000000071e+01,4.969598247425759119e-02
2.283999999999999986e+01,4.632280059610494743e-02
2.287999999999999901e+01,5.359264187805425766e-02
2.292000000000000171e+01,3.015229701097141626e-02
2.296000000000000085e+01,2.503236455679708899e-02
2.300000000000000000e+01,4.957444211192728323e-02
2.303999999999999915e+01,4.881540335189223090e-02
2.307999999999999829e+01,4.317012388331162298e-02
2.312000000000000099e+01,5.375142377513002917e-02
2.316000000000000014e+01,3.327356578845163532e-02
2.319999999999999929e+01,2.500910667103681956e-02
2.323999999999999844e+01,4.152104682835010968e-02
2.328000000000000114e+01,4.895907992124998165e-02
2.332000000000000028e+01,4.837012272684010350e-02
2.335999999999999943e+01,3.853277251966812783e-02
2.339999999999999858e+01,3.602321036356697509e-02
2.344000000000000128e+01,2.949983882937316088e-02
2.348000000000000043e+01,3.117668609138888464e-02
2.351999999999999957e+01,4.419450231369236731e-02
2.355999999999999872e+01,4.115896743364772653e-02
2.360000000000000142e+01,3.079438731393249404e-02
2.364000000000000057e+01,2.967694301837926069e-02
2.367999999999999972e+01,1.861316191666963910e-02
2.371999999999999886e+01,4.576121199283817581e-02
2.376000000000000156e+01,4.097767486684850829e-02
2.380000000000000071e+01,4.055566266321173480e-02
2.383999999999999986e+01,2.687207779184071568e-02
2.387999999999999901e+01,3.831386576422103618e-02
2.392000000000000171e+01,4.155417858795518171e-02
2.396000000000000085e+01,4.427040543223319941e-02
2.400000000000000000e+01,3.738926837044784235e-02
2.403999999999999915e+01,4.900303209479257849e-02
2.407999999999999829e+01,4.072475126101412352e-02
2.412000000000000099e+01,1.918489834481552567e-02
2.416000000000000014e+01,4.056800264696753394e-02
2.419999999999999929e+01,1.937586761628597165e-02
2.423999999999999844e+01,3.150995361422049418e-02
2.428000000000000114e+01,4.085163479907334000e-02
2.432000000000000028e+01,2.524117457564545655e-02
2.435999999999999943e+01,3.388365762145862520e-02
2.439999999999999858e+01,4.043168056736421573e-02
2.444000000000000128e+01,3.685888218024205992e-02
2.448000000000000043e+01,3.468134617206938136e-02
2.451999999999999957e+01,2.761757246553837863e-02
2.455999999999999872e+01,4.602814525539860452e-02
2.460000000000000142e+01,3.250713259904323971e-02
2.464000000000000057e+01,2.613942447028308816e-02
2.467999999999999972e+01,2.605259037482814816e-02
2.471999999999999886e+01,3.573635270791951368e-02
2.476000000000000156e+01,2.483012744204018268e-02
2.480000000000000071e+01,4.550526321959275783e-02
2.483999999999999986e+01,2.168581373077923743e-02
2.487999999999999901e+01,4.567493420168454443e-02
2.492000000000000171e+01,3.075302527205551334e-02
2.496000000000000085e+01,3.205769954917597059e-02
2.500000000000000000e+01,2.812716490017128437e-02
2.503999999999999915e+01,3.588657462003686655e-02
2.507999999999999829e+01,1.415720551521964729e-02
2.512000000000000099e+01,1.860012853974692126e-02
2.516000000000000014e+01,4.084001022933626129e-02
2.519999999999999929e+01,3.987261350601589704e-02
2.523999999999999844e+01,3.838113347896143085e-02
2.528000000000000114e+01,4.212361204596964948e-02
2.532000000000000028e+01,2.457815972231053650e-02
2.535999999999999943e+01,3.041322218039429690e-02
2.539999999999999858e+01,2.909372927712262566e-02
2.544000000000000128e+01,5.342307082538235580e-02
2.548000000000000043e+01,5.000849554093464433e-02
2.551999999999999957e+01,3.560067060319345444e-02
2.555999999999999872e+01,4.230504136272077859e-02
2.560000000000000142e+01,3.208363470642559140e-02
2.564000000000000057e+01,2.168711781372177974e-02
2.567999999999999972e+01,3.065793571332329354e-02
2.571999999999999886e+01,3.544046288538057338e-02
2.576000000000000156e+01,3.341740767979178850e-02
2.580000000000000071e+01,3.627933992411536135e-02
2.583999999999999986e+01,3.251017607360660866e-02
2.587999999999999901e+01,3.746469438302967719e-02
2.592000000000000171e+01,2.793624156369789099e-02
2.596000000000000085e+01,2.905081834292427487e-02
2.600000000000000000e+01,3.906356364851248930e-02
2.603999999999999915e+01,3.372090749828884904e-02
2.607999999999999829e+01,3.343772549887295137e-02
2.612000000000000099e+01,4.030785112085570610e-02
2.616000000000000014e+01,4.159379801042404484e-02
2.619999999999999929e+01,4.392603864328079727e-02
2.623999999999999844e+01,2.549380865538915936e-02
2.628000000000000114e+01,2.625442859846596061e-02
2.632000000000000028e+01,2.631648137986798350e-02
2.635999999999999943e+01,1.992192526903105790e-02
2.639999999999999858e+01,3.463956661140503435e-02
2.644000000000000128e+01,4.202816865086649034e-02
2.648000000000000043e+01,3.545725907894514001e-02
2.651999999999999957e+01,3.446928292435463836e-02
2.655999999999999872e+01,2.946750391374387823e-02
2.660000000000000142e+01,1.923051932166052955e-02
2.664000000000000057e+01,3.725966342331632486e-02
2.667999999999999972e+01,2.946424047214751471e-02
2.671999999999999886e+01,3.475465432638370072e-02
2.676000000000000156e+01,2.207237649618327968e-02
2.680000000000000071e+01,3.032781083977561382e-02
2.683999999999999986e+01,3.160317894778097436e-02
2.687999999999999901e+01,4.631335642681928128e-02
2.692000000000000171e+01,3.903766189751767257e-02
2.696000000000000085e+01,2.373498468999081165e-02
2.700000000000000000e+01,4.455031212990502587e-02
2.703999999999999915e+01,2.819947575676176946e-02
2.707999999999999829e+01,3.488018552970023611e-02
2.712000000000000099e+01,3.807055196399042329e-02
2.716000000000000014e+01,3.567674175627413152e-02
2.719999999999999929e+01,3.834240804062214597e-02
2.723999999999999844e+01,3.175968942299048359e-02
2.728000000000000114e+01,3.390065589186155165e-02
2.732000000000000028e+01,2.574632093249815817e-02
2.735999999999999943e+01,2.579221288012656377e-02
2.739999999999999858e+01,3.019963727557601826e-02
2.744000000000000128e+01,2.745251057410200146e-02
2.748000000000000043e+01,3.290561103046865665e-02
2.751999999999999957e+01,3.172761890388815093e-02
2.755999999999999872e+01,2.828068716750745115e-02
2.760000000000000142e+01,2.553107986982356900e-02
2.764000000000000057e+01,4.162535311490042633e-02
2.767999999999999972e+01,3.398889478453531732e-02
2.771999999999999886e+01,4.659220608881321779e-02
2.776000000000000156e+01,3.040468863302622088e-02
2.780000000000000071e+01,3.131619089865289585e-02
2.783999999999999986e+01,3.693819876304250960e-02
2.787999999999999901e+01,3.156696190750105102e-02
2.792000000000000171e+01,2.043706388308182825e-02
2.796000000000000085e+01,3.565395004034644516e-02
2.800000000000000000e+01,1.754336893413202536e-02
2.803999999999999915e+01,2.734994721706522636e-02
2.807999999999999829e+01,2.738468400721744134e-02
2.812000000000000099e+01,3.893488548911477193e-02
2.816000000000000014e+01,4.018978729872010186e-02
2.819999999999999929e+01,3.010247282616246647e-02
2.823999999999999844e+01,3.379894279875458873e-02
2.828000000000000114e+01,3.784376640035851114e-02
2.832000000000000028e+01,2.461384604088677486e-02
2.835999999999999943e+01,2.534219649299504148e-02
2.839999999999999858e+01,2.310366462892067541e-02
2.844000000000000128e+01,4.180284836690802835e-02
2.848000000000000043e+01,3.816719112642927292e-02
2.851999999999999957e+01,3.139016570503562475e-02
2.855999999999999872e+01,2.635738342261788672e-02
2.860000000000000142e+01,1.888117758884262642e-02
2.864000000000000057e+01,2.885296546358613948e-02
2.867999999999999972e+01,3.603235772304248796e-02
2.871999999999999886e+01,4.233870172222147649e-02
2.876000000000000156e+01,2.979992763987308543e-02
2.880000000000000071e+01,2.109923058517306632e-02
2.883999999999999986e+01,3.298727773753541703e-02
2.887999999999999901e+01,4.906237431594113324e-02
2.892000000000000171e+01,3.861496406171082557e-02
2.896000000000000085e+01,2.380478373727647895e-02
2.900000000000000000e+01,2.295287556228317941e-02
2.903999999999999915e+01,3.187157284639777211e-02
2.907999999999999829e+01,2.630730560744613811e-02
2.912000000000000099e+01,2.475560218065460741e-02
2.916000000000000014e+01,3.628974065986312336e-02
2.919999999999999929e+01,3.578372048499157271e-02
2.923999999999999844e+01,4.295447280033477117e-02
2.928000000000000114e+01,3.948095555348028057e-02
2.932000000000000028e+01,4.368421096407319043e-02
2.935999999999999943e+01,3.811562755760728588e-02
2.939999999999999858e+01,4.022381697582123883e-02
2.944000000000000128e+01,2.383586196514762140e-02
2.948000000000000043e+01,1.337981879057440621e-02
2.951999999999999957e+01,3.328374371708942014e-02
2.955999999999999872e+01,3.242320496300993282e-02
2.960000000000000142e+01,3.383036986867392348e-02
2.964000000000000057e+01,3.192168281909854577e-02
2.967999999999999972e+01,3.158275513417447417e-02
2.971999999999999886e+01,2.531068392752524113e-02
2.976000000000000156e+01,3.369483092135188568e-02
2.980000000000000071e+01,2.218694531418794261e-02
2.983999999999999986e+01,2.603322253705732045e-02
2.987999999999999901e+01,3.057682896475337822e-02
2.992000000000000171e+01,2.901280617322467628e-02
2.996000000000000085e+01,3.023994614072997994e-02
3.000000000000000000e+01,2.309113755368721183e-02
3.003999999999999915e+01,3.426275617964015530e-02
3.007999999999999829e+01,3.932674592083355847e-02
3.012000000000000099e+01,3.095469000647219776e-02
3.016000000000000014e+01,3.182978354573186980e-02
3.019999999999999929e+01,3.340220695874868140e-02
3.023999999999999844e+01,2.363241835403442903e-02
3.028000000000000114e+01,2.031800160449043560e-02
3.032000000000000028e+01,2.694867910535756611e-02
3.035999999999999943e+01,2.450546434189847592e-02
3.039999999999999858e+01,3.619501077003250272e-02
3.044000000000000128e+01,3.183122047782391967e-02
3.048000000000000043e+01,3.200345518747370333e-02
3.051999999999999957e+01,3.269853432422992895e-02
3.055999999999999872e+01,3.164813846915300044e-02
3.060000000000000142e+01,2.710740655004699115e-02
3.064000000000000057e+01,3.478008905283842822e-02
3.067999999999999972e+01,3.826449119650854325e-02
3.071999999999999886e+01,1.819265423515748978e-02
3.076000000000000156e+01,3.598369093699311377e-02
3.080000000000000071e+01,2.568184969592835626e-02
3.083999999999999986e+01,3.544529849599783317e-02
3.087999999999999901e+01,2.426980025922978804e-02
3.092000000000000171e+01,2.966986991920411709e-02
3.096000000000000085e+01,2.425118741328462918e-02
3.100000000000000000e+01,4.064265643877690987e-02
3.103999999999999915e+01,4.028284553584637884e-02
3.107999999999999829e+01,3.137260222042691227e-02
3.112000000000000099e+01,4.357456622494322585e-02
3.116000000000000014e+01,3.693141716491094018e-02
3.119999999999999929e+01,2.697241941067544946e-02
3.123999999999999844e+01,2.067701766910209904e-02
3.128000000000000114e+01,2.380325383798763406e-02
3.132000000000000028e+01,3.757253081001699774e-02
3.135999999999999943e+01,3.546295910046014938e-02
3.139999999999999858e+01,3.998324770291148550e-02
3.144000000000000128e+01,4.066422976611384216e-02
3.148000000000000043e+01,3.296926636857159393e-02
3.151999999999999957e+01,3.434696915202373885e-02
3.155999999999999872e+01,3.048947672242588100e-02
3.160000000000000142e+01,2.104781693223212180e-02
3.164000000000000057e+01,3.219490720224246066e-02
3.167999999999999972e+01,3.723437193214576557e-02
3.171999999999999886e+01,4.122630855741384048e-02
3.176000000000000156e+01,4.172791154352586268e-02
3.180000000000000071e+01,2.094159718481309815e-02
3.183999999999999986e+01,3.819264486250859708e-02
3.187999999999999901e+01,3.904138659888631985e-02
3.192000000000000171e+01,4.093643403568504591e-02
3.196000000000000085e+01,3.916666213582808975e-02
3.200000000000000000e+01,4.961030750082325719e-02
3.203999999999999915e+01,4.469856395245315472e-02
3.207999999999999829e+01,4.240350147920041168e-02
3.211999999999999744e+01,4.464446743607480839e-02
3.215999999999999659e+01,3.379836423298876458e-02
3.220000000000000284e+01,3.882988714004225600e-02
3.224000000000000199e+01,4.351182749179743209e-02
3.228000000000000114e+01,3.929436570839063558e-02
3.232000000000000028e+01,3.629769657714922160e-02
3.235999999999999943e+01,3.923294530238259636e-02
3.239999999999999858e+01,4.583179246515117072e-02
3.243999999999999773e+01,3.096823750537476549e-02
3.247999999999999687e+01,4.663914294987493020e-02
3.252000000000000313e+01,4.172007701696880261e-02
3.256000000000000227e+01,3.208927630816425097e-02
3.260000000000000142e+01,2.786693561078873449e-02
3.264000000000000057e+01,3.132137451101447978e-02
3.267999999999999972e+01,3.180894004200298525e-02
3.271999999999999886e+01,3.421524352364491844e-02
3.275999999999999801e+01,3.592299330583823003e-02
3.279999999999999716e+01,3.274452269824971312e-02
3.284000000000000341e+01,2.729712351821420024e-02
3.288000000000000256e+01,2.987547666864023149e-02
3.292000000000000171e+01,2.704415133338977997e-02
3.296000000000000085e+01,2.787642560630285149e-02
3.300000000000000000e+01,2.207761875170348789e-02
3.303999999999999915e+01,3.948485661759756904e-02
3.307999999999999829e+01,3.246342973392681713e-02
3.311999999999999744e+01,3.556158906939019260e-02
3.315999999999999659e+01,3.307558430529371207e-02
3.320000000000000284e+01,4.193056873663261741e-02
3.324000000000000199e+01,4.101372246169485147e-02
3.328000000000000114e+01,3.835140688083314708e-02
3.332000000000000028e+01,2.434688572069637971e-02
3.335999999999999943e+01,4.279617407578849286e-02
3.339999999999999858e+01,2.879043703350983238e-02
3.343999999999999773e+01,3.484999546742575949e-02
3.347999999999999687e+01,2.677557080723226568e-02
3.352000000000000313e+01,2.829727485559238240e-02
3.356000000000000227e+01,2.196649613799981846e-02
3.360000000000000142e+01,3.221129091944239381e-02
3.364000000000000057e+01,3.791883929820833582e-02
3.367999999999999972e+01,1.972118252839772864e-02
3.371999999999999886e+01,1.530732165917168472e-02
3.375999999999999801e+01,3.881063213622586855e-02
3.379999999999999716e+01,2.706714020277271524e-02
3.384000000000000341e+01,3.818072243097686558e-02
3.388000000000000256e+01,2.748293331566079023e-02
3.392000000000000171e+01,3.597801010202879290e-02
3.396000000000000085e+01,2.597695190815252700e-02
3.400000000000000000e+01,3.761156540133011456e-02
3.403999999999999915e+01,2.848172457894012494e-02
3.407999999999999829e+01,2.493483297736393337e-02
3.411999999999999744e+01,2.365565448417444872e-02
3.415999999999999659e+01,2.743596703228770931e-02
3.420000000000000284e+01,3.610128458973874133e-02
3.424000000000000199e+01,2.574700940551602479e-02
3.428000000000000114e+01,2.516335063413801740e-02
3.432000000000000028e+01,3.958489182665784339e-02
3.435999999999999943e+01,3.027571540765971667e-02
3.439999999999999858e+01,3.108612788351766687e-02
3.443999999999999773e+01,2.701032339786268652e-02
3.447999999999999687e+01,2.258494103942291706e-02
3.452000000000000313e+01,3.456064798761234597e-02
3.456000000000000227e+01,3.624106864211966428e-02
3.460000000000000142e+01,2.867311978004868575e-02
3.464000000000000057e+01,4.029803832475548075e-02
3.467999999999999972e+01,2.278317034385675399e-02
3.471999999999999886e+01,2.097144762534385726e-02
3.475999999999999801e+01,2.910482843865270369e-02
3.479999999999999716e+01,3.078161800276435142e-02
3.484000000000000341e+01,2.268658020525184116e-02
3.488000000000000256e+01,3.570375758760840901e-02
3.492000000000000171e+01,2.464124629791290128e-02
3.496000000000000085e+01,2.300038061137700540e-02
3.500000000000000000e+01,3.217704953626687042e-02
3.503999999999999915e+01,3.385021102017002348e-02
3.507999999999999829e+01,2.278528167926602635e-02
3.511999999999999744e+01,2.253788720063667345e-02
3.515999999999999659e+01,2.874587477836760066e-02
3.520000000000000284e+01,2.867175805864579513e-02
3.524000000000000199e+01,2.475834274322452969e-02
3.528000000000000114e+01,3.288386543361173503e-02
3.532000000000000028e+01,3.106307565018931460e-02
3.535999999999999943e+01,2.522850140633518812e-02
3.539999999999999858e+01,2.637276806728295481e-02
3.543999999999999773e+01,3.030820894269949453e-02
3.547999999999999687e+01,2.255247652295937558e-02
3.552000000000000313e+01,2.683568261072556346e-02
3.556000000000000227e+01,3.705081324427150768e-02
3.560000000000000142e+01,3.278299298421017555e-02
3.564000000000000057e+01,2.188409711531291366e-02
3.567999999999999972e+01,2.023236223908767353e-02
3.571999999999999886e+01,2.224423274055145963e-02
3.575999999999999801e+01,2.320858358262757604e-02
3.579999999999999716e+01,2.923242889427517255e-02
3.584000000000000341e+01,2.356510166331290956e-02
3.588000000000000256e+01,2.888979699891646227e-02
3.592000000000000171e+01,2.950276458239184038e-02
3.596000000000000085e+01,2.784681011549243815e-02
3.600000000000000000e+01,2.758614210904035760e-02
3.603999999999999915e+01,3.151253849595152950e-02
3.607999999999999829e+01,1.868766549009517886e-02
3.611999999999999744e+01,2.156594067319556052e-02
3.615999999999999659e+01,4.084530859119396562e-02
3.620000000000000284e+01,2.313301795985159282e-02
3.624000000000000199e+01,3.595519559271909832e-02
3.628000000000000114e+01,3.918003498973085530e-02
3.632000000000000028e+01,2.460668880218565280e-02
3.635999999999999943e+01,2.277022734041423205e-02
3.639999999999999858e+01,1.709446970781642108e-02
3.643999999999999773e+01,2.258522192799406955e-02
3.647999999999999687e+01,3.051817830550210969e-02
3.652000000000000313e+01,2.606201909955270166e-02
3.656000000000000227e+01,2.928264768560311787e-02
3.660000000000000142e+01,4.000557803168845045e-02
3.664000000000000057e+01,3.450069850237824642e-02
3.667999999999999972e+01,1.992193992011912634e-02
3.671999999999999886e+01,4.023980349499629849e-02
3.675999999999999801e+01,2.304255134441736408e-02
3.679999999999999716e+01,2.311882384450352976e-02
3.684000000000000341e+01,2.476487067656084687e-02
3.688000000000000256e+01,3.949677555256645572e-02
3.692000000000000171e+01,3.241731543989147951e-02
3.696000000000000085e+01,3.196772726189209962e-02
3.700000000000000000e+01,3.675212217753482530e-02
3.703999999999999915e+01,3.281161102393787693e-02
3.707999999999999829e+01,2.468283288982944454e-02
3.711999999999999744e+01,3.173374668834189061e-02
3.715999999999999659e+01,3.529433813590039659e-02
3.720000000000000284e+01,4.688069094448219648e-02
3.724000000000000199e+01,3.874951282028863547e-02
3.728000000000000114e+01,4.562354084759997347e-02
3.732000000000000028e+01,2.911582968216288106e-02
3.735999999999999943e+01,3.267342218731886933e-02
3.739999999999999858e+01,3.396209565228731908e-02
3.743999999999999773e+01,4.763868386950759204e-02
3.747999999999999687e+01,3.269894976100785194e-02
3.752000000000000313e+01,2.543600545129946072e-02
3.756000000000000227e+01,3.160789283817909412e-02
3.760000000000000142e+01,4.196684787945814676e-02
3.764000000000000057e+01,2.964200885924419063e-02
3.767999999999999972e+01,3.685901583181006719e-02
3.771999999999999886e+01,3.011653468917685136e-02
3.775999999999999801e+01,4.099655243516268921e-02
3.779999999999999716e+01,3.739362388643827778e-02
3.784000000000000341e+01,3.099831887056218524e-02
3.788000000000000256e+01,4.135308241624791742e-02
3.792000000000000171e+01,4.996238635550190321e-02
3.796000000000000085e+01,4.007556367614267812e-02
3.800000000000000000e+01,3.542272618083339847e-02
3.803999999999999915e+01,4.298331857643933329e-02
3.807999999999999829e+01,3.379264576009331084e-02
3.811999999999999744e+01,4.693559770560625649e-02
3.815999999999999659e+01,3.669681221431330548e-02
3.820000000000000284e+01,3.396033182770771819e-02
3.824000000000000199e+01,4.308830951893648925e-02
3.828000000000000114e+01,3.511605018513238446e-02
3.832000000000000028e+01,2.766665158361559032e-02
3.835999999999999943e+01,4.481919774821151170e-02
3.839999999999999858e+01,3.038915954538186359e-02
3.843999999999999773e+01,3.776928842659792868e-02
3.847999999999999687e+01,4.288050052526690831e-02
3.852000000000000313e+01,5.322569889499789014e-02
3.856000000000000227e+01,5.519496660407143679e-02
3.860000000000000142e+01,5.297597051005342728e-02
3.864000000000000057e+01,5.616544705352746053e-02
3.867999999999999972e+01,5.760946557927964368e-02
3.871999999999999886e+01,6.655579029673126812e-02
3.875999999999999801e+01,5.787842064580211304e-02
3.879999999999999716e+01,6.717252428867860614e-02
3.884000000000000341e+01,7.227836463016130975e-02
3.888000000000000256e+01,7.546426125642251292e-02
3.892000000000000171e+01,9.086358961315778304e-02
3.896000000000000085e+01,1.020746549193482511e-01
3.900000000000000000e+01,1.258481243544078976e-01
3.903999999999999915e+01,1.581708173435848186e-01
3.907999999999999829e+01,2.140485399104807562e-01
3.911999999999999744e+01,2.945282088321993230e-01
3.915999999999999659e+01,4.210716164088476599e-01
3.920000000000000284e+01,5.973429711512479034e-01
3.924000000000000199e+01,7.858277582930527361e-01
3.928000000000000114e+01,8.898606698858794184e-01
3.932000000000000028e+01,1.000000000000000000e+00
3.935999999999999943e+01,9.677580643594084764e-01
3.939999999999999858e+01,8.877063376927450955e-01
3.943999999999999773e+01,8.242301967330982748e-01
3.947999999999999687e+01,6.872948059241721364e-01
3.952000000000000313e+01,5.796724874269250094e-01
3.956000000000000227e+01,4.966521162042798476e-01
3.960000000000000142e+01,4.164229278921999233e-01
3.964000000000000057e+01,3.574804508259115110e-01
3.967999999999999972e+01,2.953966289076592200e-01
3.971999999999999886e+01,2.648941992217233032e-01
3.975999999999999801e+01,2.244454663433883279e-01
3.979999999999999716e+01,1.737014581251082046e-01
3.984000000000000341e+01,1.677997871741665203e-01
3.988000000000000256e+01,1.467172298142380427e-01
3.992000000000000171e+01,1.134200500938197798e-01
3.996000000000000085e+01,1.050737907153292267e-01
4.000000000000000000e+01,9.498207607845512990e-02
4.003999999999999915e+01,8.925192031215664623e-02
4.007999999999999829e+01,7.270303144448354848e-02
4.011999999999999744e+01,7.953468821297228486e-02
4.015999999999999659e+01,7.572209816290030593e-02
4.020000000000000284e+01,8.674023425274268728e-02
4.024000000000000199e+01,6.792065097732202794e-02
4.028000000000000114e+01,6.428076624021096530e-02
4.032000000000000028e+01,6.866664938619546077e-02
4.035999999999999943e+01,5.891856382007617382e-02
4.039999999999999858e+01,5.422998233940428542e-02
4.043999999999999773e+01,6.123137741988264604e-02
4.047999999999999687e+01,4.083785925493300245e-02
4.052000000000000313e+01,5.062984606997617681e-02
4.056000000000000227e+01,5.623357317912698605e-02
4.060000000000000142e+01,4.002594299229796787e-02
4.064000000000000057e+01,5.033960960910499605e-02
4.067999999999999972e+01,5.035800272552568707e-02
4.071999999999999886e+01,3.379962226425225341e-02
4.075999999999999801e+01,5.091646959629398533e-02
4.079999999999999716e+01,3.854457096486356427e-02
4.084000000000000341e+01,3.699021915284038398e-02
4.088000000000000256e+01,5.236042828918364977e-02
4.092000000000000171e+01,3.702048890383506652e-02
4.096000000000000085e+01,4.000099955873537977e-02
4.100000000000000000e+01,4.332989043263460460e-02
4.103999999999999915e+01,4.421538375984954833e-02
4.107999999999999829e+01,3.637597946307234709e-02
4.111999999999999744e+01,3.516645579706709906e-02
4.115999999999999659e+01,3.186250706638894814e-02
4.120000000000000284e+01,2.820899451046633005e-02
4.124000000000000199e+01,3.258125176081455576e-02
4.128000000000000114e+01,3.416113973501379991e-02
4.132000000000000028e+01,3.294865851668046103e-02
4.135999999999999943e+01,3.382941942570511645e-02
4.139999999999999858e+01,3.785033923919151749e-02
4.143999999999999773e+01,2.913318152286430152e-02
4.147999999999999687e+01,3.751507212472948022e-02
4.152000000000000313e+01,3.926589940935665962e-02
4.156000000000000227e+01,3.613052461617433098e-02
4.160000000000000142e+01,2.950483675344873005e-02
4.164000000000000057e+01,3.805885027198723652e-02
4.167999999999999972e+01,3.614310626496599482e-02
4.171999999999999886e+01,3.021359109250666350e-02
4.175999999999999801e+01,2.794769392379952214e-02
4.179999999999999716e+01,3.056681765152947927e-02
4.184000000000000341e+01,2.829973988676407273e-02
4.188000000000000256e+01,3.353497491938681879e-02
4.192000000000000171e+01,4.051448101883351610e-02
4.196000000000000085e+01,3.580282736896601287e-02
4.200000000000000000e+01,3.737208395826694535e-02
4.203999999999999915e+01,2.794812542781126632e-02
4.207999999999999829e+01,3.300592473607431854e-02
4.211999999999999744e+01,3.352649536831867061e-02
4.215999999999999659e+01,3.317404583536643498e-02
4.220000000000000284e+01,2.671399275339722545e-02
4.224000000000000199e+01,3.246737834205592338e-02
4.228000000000000114e+01,2.757652154381838583e-02
4.232000000000000028e+01,2.495339499531154873e-02
4.235999999999999943e+01,2.930912390084488423e-02
4.239999999999999858e+01,2.267163843916836230e-02
4.243999999999999773e+01,3.016693933759486898e-02
4.247999999999999687e+01,3.190360950348098551e-02
4.252000000000000313e+01,2.508987117114341164e-02
4.256000000000000227e+01,3.485172506789486341e-02
4.260000000000000142e+01,3.396933724668063648e-02
4.264000000000000057e+01,2.366411060018544163e-02
4.267999999999999972e+01,3.324971262967162805e-02
4.271999999999999886e+01,2.939929534274127870e-02
4.275999999999999801e+01,3.357465103950162816e-02
4.279999999999999716e+01,2.780370989870262211e-02
4.284000000000000341e+01,3.110545860231416285e-02
4.288000000000000256e+01,3.091689691210441210e-02
4.292000000000000171e+01,2.357381648448383590e-02
4.296000000000000085e+01,3.891334316745839045e-02
4.300000000000000000e+01,2.197235063655826603e-02
4.303999999999999915e+01,3.068022934836678664e-02
4.307999999999999829e+01,3.589779808443546716e-02
4.311999999999999744e+01,3.535673742582477047e-02
4.315999999999999659e+01,3.307022811451914429e-02
4.320000000000000284e+01,2.921275634971614091e-02
4.324000000000000199e+01,2.378432221503209987e-02
4.328000000000000114e+01,3.179073173406868347e-02
4.332000000000000028e+01,3.159570665837025533e-02
4.335999999999999943e+01,3.262149731293932653e-02
4.339999999999999858e+01,2.492239519326234706e-02
4.343999999999999773e+01,3.310094267990845024e-02
4.347999999999999687e+01,2.993730582582266458e-02
4.352000000000000313e+01,4.806038832831056873e-02
4.356000000000000227e+01,3.774164733033919666e-02
4.360000000000000142e+01,2.306016686573393593e-02
4.364000000000000057e+01,3.681933674738156054e-02
4.367999999999999972e+01,2.894164188708658880e-02
4.371999999999999886e+01,2.036541623821244013e-02
4.375999999999999801e+01,3.010964648272899252e-02
4.379999999999999716e+01,3.269935982939364133e-02
4.384000000000000341e+01,3.528848710065293076e-02
4.388000000000000256e+01,3.037412541013048001e-02
4.392000000000000171e+01,2.528469169585403908e-02
4.396000000000000085e+01,2.455682504655187087e-02
4.400000000000000000e+01,2.400285877189081360e-02
4.403999999999999915e+01,2.990429311641135471e-02
4.407999999999999829e+01,2.568494718351327019e-02
4.411999999999999744e+01,2.914240484609795234e-02
4.415999999999999659e+01,3.591451329825107869e-02
4.420000000000000284e+01,2.401602206035448328e-02
4.424000000000000199e+01,2.363302921157660677e-02
4.428000000000000114e+01,3.302067367972139067e-02
4.432000000000000028e+01,3.455585787470144554e-02
4.435999999999999943e+01,3.172830419175756700e-02
4.439999999999999858e+01,2.261866544311252197e-02
4.443999999999999773e+01,3.200397012491681958e-02
4.447999999999999687e+01,2.690634247593491971e-02
4.452000000000000313e+01,3.332421380138597677e-02
4.456000000000000227e+01,3.311102816443859537e-02
4.460000000000000142e+01,3.237379969405217162e-02
4.464000000000000057e+01,3.931337590616056782e-02
4.467999999999999972e+01,3.281693689905181704e-02
4.471999999999999886e+01,3.975534455585093274e-02
4.475999999999999801e+01,3.779437616577734083e-02
4.479999999999999716e+01,3.862460155638951231e-02
4.484000000000000341e+01,2.776367321806197386e-02
4.488000000000000256e+01,3.574666146112562976e-02
4.492000000000000171e+01,3.831999630340628821e-02
4.496000000000000085e+01,4.385901137641920466e-02
4.500000000000000000e+01,4.712912329634388192e-02
4.503999999999999915e+01,3.713770686517936515e-02
4.507999999999999829e+01,4.721161024255617761e-02
4.511999999999999744e+01,4.489641601398258741e-02
4.515999999999999659e+01,4.083577731352964341e-02
4.520000000000000284e+01,5.073344462712404968e-02
4.524000000000000199e+01,5.609388978677215531e-02
4.528000000000000114e+01,5.656814064492778071e-02
4.532000000000000028e+01,5.198171116962609084e-02
4.535999999999999943e+01,5.873629630911853666e-02
4.539999999999999858e+01,6.287300690052341490e-02
4.543999999999999773e+01,7.206923211303095655e-02
4.547999999999999687e+01,7.637926344212765672e-02
4.552000000000000313e+01,9.150685137374009459e-02
4.556000000000000227e+01,1.050634817852174885e-01
4.560000000000000142e+01,1.348467385494613036e-01
4.564000000000000057e+01,1.454359402870989693e-01
4.567999999999999972e+01,1.739966297005479112e-01
4.571999999999999886e+01,1.912151394557784490e-01
4.575999999999999801e+01,2.202981230087099063e-01
4.579999999999999716e+01,2.485080940055292842e-01
4.584000000000000341e+01,2.484507323836002701e-01
4.588000000000000256e+01,2.593854142323150924e-01
4.592000000000000171e+01,2.546157639513624282e-01
4.596000000000000085e+01,2.409467401320263269e-01
4.600000000000000000e+01,2.176803983955983846e-01
4.603999999999999915e+01,2.043591837707920966e-01
4.607999999999999829e+01,1.828365403207763695e-01
4.611999999999999744e+01,1.539848987070734920e-01
4.615999999999999659e+01,1.448496069283899124e-01
4.620000000000000284e+01,1.315260672337139614e-01
4.624000000000000199e+01,1.291945717622285938e-01
4.628000000000000114e+01,1.078435087175792784e-01
4.632000000000000028e+01,8.945812874661682179e-02
4.635999999999999943e+01,8.154133490295019382e-02
4.639999999999999858e+01,7.379844645090340161e-02
4.643999999999999773e+01,6.151833835339967638e-02
4.647999999999999687e+01,6.127719167427173735e-02
4.652000000000000313e+01,5.632433940133825534e-02
4.656000000000000227e+01,5.765240689983274630e-02
4.660000000000000142e+01,5.217493558477966087e-02
4.664000000000000057e+01,4.547548123839440654e-02
4.667999999999999972e+01,4.575489137661101907e-02
4.671999999999999886e+01,3.120240163539252792e-02
4.675999999999999801e+01,5.015066611435480687e-02
4.679999999999999716e+01,4.606618344879698235e-02
4.684000000000000341e+01,3.657205139603921656e-02
4.688000000000000256e+01,4.504940952758208772e-02
4.692000000000000171e+01,3.468168753940321924e-02
4.696000000000000085e+01,3.443358070160243423e-02
4.700000000000000000e+01,3.086965819804165026e-02
4.703999999999999915e+01,3.585497597186050600e-02
4.707999999999999829e+01,2.443801957856005583e-02
4.711999999999999744e+01,3.814648461008835617e-02
4.715999999999999659e+01,3.335884225475525128e-02
4.720000000000000284e+01,2.874510696336823531e-02
4.724000000000000199e+01,3.233164013627999600e-02
4.728000000000000114e+01,2.754226087689033015e-02
4.732000000000000028e+01,2.781240016857006170e-02
4.735999999999999943e+01,2.947784966772967405e-02
4.739999999999999858e+01,3.009580383984834448e-02
4.743999999999999773e+01,2.425719318552434223e-02
4.747999999999999687e+01,3.761147677881421930e-02
4.752000000000000313e+01,2.426880630547194329e-02
4.756000000000000227e+01,2.697828016651405286e-02
4.760000000000000142e+01,3.212998143022131187e-02
4.764000000000000057e+01,3.518727117509814345e-02
4.767999999999999972e+01,4.068678848987268559e-02
4.771999999999999886e+01,3.152889413120120443e-02
4.775999999999999801e+01,2.428976916291638449e-02
4.779999999999999716e+01,3.449867795536373100e-02
4.784000000000000341e+01,2.673493912917060053e-02
4.788000000000000256e+01,1.740024763258862794e-02
4.792000000000000171e+01,2.132592337363823504e-02
4.796000000000000085e+01,2.699588280757490161e-02
4.800000000000000000e+01,2.306852850523522305e-02
4.803999999999999915e+01,3.170359722905124328e-02
4.807999999999999829e+01,2.812406065010511838e-02
4.811999999999999744e+01,2.751021090757987606e-02
4.815999999999999659e+01,2.689578412021094433e-02
4.820000000000000284e+01,3.744789176881314213e-02
4.824000000000000199e+01,3.159772767516905861e-02
4.828000000000000114e+01,3.621615372240379049e-02
4.832000000000000028e+01,2.774754439066817041e-02
4.835999999999999943e+01,3.236481710076236779e-02
4.839999999999999858e+01,3.802842996119814439e-02
4.843999999999999773e+01,1.908892406515160997e-02
4.847999999999999687e+01,2.352998128107610526e-02
4.852000000000000313e+01,3.058775393842218249e-02
4.856000000000000227e+01,2.368606114058963152e-02
4.860000000000000142e+01,3.021922311744722547e-02
4.864000000000000057e+01,2.907441996728297659e-02
4.867999999999999972e+01,2.164754069836295064e-02
4.871999999999999886e+01,3.079626653544409801e-02
4.875999999999999801e+01,2.546206898868456220e-02
4.879999999999999716e+01,3.077094878539704884e-02
4.884000000000000341e+01,3.014672502898153861e-02
4.888000000000000256e+01,2.550874507444775979e-02
4.892000000000000171e+01,3.709739841283427042e-02
4.896000000000000085e+01,2.565330912198153165e-02
4.900000000000000000e+01,3.287865890941882308e-02
4.903999999999999915e+01,2.893632209437288147e-02
4.907999999999999829e+01,3.650949378601932999e-02
4.911999999999999744e+01,3.623021523845844361e-02
4.915999999999999659e+01,2.966886157553758410e-02
4.920000000000000284e+01,3.287815551434575267e-02
4.924000000000000199e+01,3.120126342967642283e-02
4.928000000000000114e+01,3.249006060630095505e-02
4.932000000000000028e+01,3.150996366039894581e-02
4.935999999999999943e+01,3.140172275604876523e-02
4.939999999999999858e+01,3.513160194174751866e-02
4.943999999999999773e+01,2.856622593903231089e-02
4.947999999999999687e+01,3.055009531429175168e-02
4.952000000000000313e+01,2.468151528650702406e-02
4.956000000000000227e+01,3.050293088439162345e-02
4.960000000000000142e+01,2.480768881925890165e-02
4.964000000000000057e+01,3.184935924051557343e-02
4.967999999999999972e+01,3.400484455807404466e-02
4.971999999999999886e+01,2.656301973485765758e-02
4.975999999999999801e+01,3.098567707097339349e-02
4.979999999999999716e+01,2.581102443354684264e-02
4.984000000000000341e+01,3.476917362524099830e-02
4.988000000000000256e+01,2.837197119644502968e-02
4.992000000000000171e+01,3.000055671865952886e-02
4.996000000000000085e+01,2.499809656667782709e-02
5.000000000000000000e+01,3.569881361851307000e-02
5.003999999999999915e+01,3.575530450501657187e-02
5.007999999999999829e+01,2.534205542538583295e-02
5.011999999999999744e+01,3.080646991600226661e-02
5.015999999999999659e+01,3.173367253747871874e-02
5.020000000000000284e+01,2.707674667994423856e-02
5.024000000000000199e+01,2.329167870352041175e-02
5.028000000000000114e+01,2.945174670204731698e-02
5.032000000000000028e+01,2.287375573358192346e-02
5.035999999999999943e+01,3.269688718380527048e-02
5.039999999999999858e+01,3.833177949774892179e-02
5.043999999999999773e+01,2.442365458788146523e-02
5.047999999999999687e+01,3.145329135266351772e-02
5.052000000000000313e+01,2.679178626202215890e-02
5.056000000000000227e+01,2.212970914351587021e-02
5.060000000000000142e+01,2.619136585982217644e-02
5.064000000000000057e+01,2.536683947922187612e-02
5.067999999999999972e+01,2.663557470858027645e-02
5.071999999999999886e+01,2.528644651082058090e-02
5.075999999999999801e+01,2.585609397467099335e-02
5.079999999999999716e+01,2.851900329932897937e-02
5.084000000000000341e+01,3.083236895027380645e-02
5.088000000000000256e+01,3.646039943832740660e-02
5.092000000000000171e+01,2.847794163572727952e-02
5.096000000000000085e+01,3.253445461652992865e-02
5.100000000000000000e+01,2.524879897646733345e-02
5.103999999999999915e+01,3.000211428704012417e-02
5.107999999999999829e+01,3.388242807885390867e-02
5.111999999999999744e+01,2.729300407855753466e-02
5.115999999999999659e+01,4.024545424973819535e-02
5.120000000000000284e+01,3.086311093651798385e-02
5.124000000000000199e+01,2.217814147923500429e-02
5.128000000000000114e+01,3.198812975079064896e-02
5.132000000000000028e+01,3.080492230157403852e-02
5.135999999999999943e+01,2.874871391891258357e-02
5.139999999999999858e+01,2.651744914874749198e-02
5.143999999999999773e+01,3.458029500956863456e-02
5.147999999999999687e+01,3.130097325292032634e-02
5.152000000000000313e+01,3.604744279193492634e-02
5.156000000000000227e+01,2.474061976001959429e-02
5.160000000000000142e+01,2.931146339215501967e-02
5.164000000000000057e+01,2.725126486197928730e-02
5.167999999999999972e+01,3.216994126844436447e-02
5.171999999999999886e+01,3.656458972517390160e-02
5.175999999999999801e+01,3.659651577299714853e-02
5.179999999999999716e+01,3.104431668646192091e-02
5.184000000000000341e+01,4.014838195660670045e-02
5.188000000000000256e+01,2.674316904824666080e-02
5.192000000000000171e+01,4.073170710122871879e-02
5.196000000000000085e+01,2.453357805736465849e-02
5.200000000000000000e+01,3.729957518230642144e-02
5.203999999999999915e+01,2.965012785018330058e-02
5.207999999999999829e+01,3.630797314527563213e-02
5.211999999999999744e+01,3.842861066842730156e-02
5.215999999999999659e+01,3.705895719674195260e-02
5.220000000000000284e+01,3.376938785406694704e-02
5.224000000000000199e+01,3.082822222657460171e-02
5.228000000000000114e+01,3.364452998089913216e-02
5.232000000000000028e+01,2.354829683346569211e-02
5.235999999999999943e+01,3.944992664250402542e-02
5.239999999999999858e+01,3.162087655098103772e-02
5.243999999999999773e+01,2.989827240690266438e-02
5.247999999999999687e+01,3.463108652504764268e-02
5.252000000000000313e+01,2.784724908416607442e-02
5.256000000000000227e+01,3.484724692715195776e-02
5.260000000000000142e+01,3.364582957438717881e-02
5.264000000000000057e+01,2.406851099390687129e-02
5.267999999999999972e+01,2.705362513907436442e-02
5.271999999999999886e+01,2.480358830422098315e-02
5.275999999999999801e+01,3.180074816620476197e-02
5.279999999999999716e+01,2.745574317005744502e-02
5.284000000000000341e+01,3.375382396262965184e-02
5.288000000000000256e+01,3.307189295383398259e-02
5.292000000000000171e+01,3.256388096611703004e-02
5.296000000000000085e+01,2.926352411821416324e-02
5.300000000000000000e+01,3.398896165977778605e-02
5.303999999999999915e+01,3.627102673955065471e-02
5.307999999999999829e+01,2.546606639069427108e-02
5.311999999999999744e+01,2.198895621982837126e-02
5.315999999999999659e+01,2.531623796382563227e-02
5.320000000000000284e+01,2.881743931421570926e-02
5.324000000000000199e+01,3.109667142996513922e-02
5.328000000000000114e+01,3.389879555050254872e-02
5.332000000000000028e+01,3.076782548293886116e-02
5.335999999999999943e+01,3.077703932111405805e-02
5.339999999999999858e+01,2.572558971632693883e-02
5.343999999999999773e+01,3.463246335054739888e-02
5.347999999999999687e+01,3.132474297020783338e-02
5.352000000000000313e+01,3.115720683007247582e-02
5.356000000000000227e+01,3.622368840073237478e-02
5.360000000000000142e+01,2.488790943373176204e-02
5.364000000000000057e+01,3.396644040032559958e-02
5.367999999999999972e+01,3.030691942369734271e-02
5.371999999999999886e+01,3.467319434162922237e-02
5.375999999999999801e+01,3.694507053402636132e-02
5.379999999999999716e+01,3.433077023520546972e-02
5.384000000000000341e+01,3.311179368970704889e-02
5.388000000000000256e+01,3.834823833300289586e-02
5.392000000000000171e+01,2.630999252966260971e-02
5.396000000000000085e+01,2.421689039397382018e-02
5.400000000000000000e+01,3.276687647187759983e-02
5.403999999999999915e+01,2.840432524352488886e-02
5.407999999999999829e+01,3.451037628041619260e-02
5.411999999999999744e+01,3.032118191200202512e-02
5.415999999999999659e+01,2.979563146839670981e-02
5.420000000000000284e+01,3.275923891763529022e-02
5.424000000000000199e+01,3.572228203170971228e-02
5.428000000000000114e+01,2.961148288401240294e-02
5.432000000000000028e+01,2.559395295535814296e-02
5.435999999999999943e+01,3.309194257074950934e-02
5.439999999999999858e+01,2.750290951684989174e-02
5.443999999999999773e+01,3.081210444051010744e-02
5.447999999999999687e+01,3.150344379698549052e-02
5.452000000000000313e+01,2.992589990105496908e-02
5.456000000000000227e+01,2.887125068563431776e-02
5.460000000000000142e+01,2.781603788759619278e-02
5.464000000000000057e+01,3.321624786706232901e-02
5.467999999999999972e+01,3.024056088324477906e-02
5.471999999999999886e+01,3.406926907532649429e-02
5.475999999999999801e+01,3.144142774275075769e-02
5.479999999999999716e+01,3.736284290911905809e-02
5.484000000000000341e+01,3.543181979341267218e-02
5.488000000000000256e+01,2.564835847924790829e-02
5.492000000000000171e+01,3.244051523161257250e-02
5.496000000000000085e+01,3.207817841507637491e-02
5.500000000000000000e+01,2.700415373139270284e-02
5.503999999999999915e+01,2.978144158602623326e-02
5.507999999999999829e+01,3.186022239911312504e-02
5.511999999999999744e+01,2.992526005822639806e-02
5.515999999999999659e+01,3.706301331557437795e-02
5.520000000000000284e+01,3.059028722921398880e-02
5.524000000000000199e+01,3.092195740576489382e-02
5.528000000000000114e+01,3.038063484326957928e-02
5.532000000000000028e+01,2.948977797208792925e-02
5.535999999999999943e+01,3.121565084071714971e-02
5.539999999999999858e+01,3.241750345231145941e-02
5.543999999999999773e+01,3.449122481513706290e-02
5.547999999999999687e+01,3.586643997257910749e-02
5.552000000000000313e+01,4.265016305359688176e-02
5.556000000000000227e+01,3.023985184485392108e-02
5.560000000000000142e+01,3.161338227481811508e-02
5.564000000000000057e+01,3.403326798967629824e-02
5.567999999999999972e+01,3.104352279653950497e-02
5.571999999999999886e+01,2.735527189971704437e-02
5.575999999999999801e+01,3.413562678002371453e-02
5.579999999999999716e+01,4.388168455108313465e-02
5.584000000000000341e+01,3.338679192420864611e-02
5.588000000000000256e+01,3.231358863182481889e-02
5.592000000000000171e+01,3.176328286290551473e-02
5.596000000000000085e+01,3.208484693222953682e-02
5.600000000000000000e+01,3.223136422992575051e-02
5.603999999999999915e+01,3.377320987984157308e-02
5.607999999999999829e+01,3.548898115652474039e-02
5.611999999999999744e+01,3.615727533452290504e-02
5.615999999999999659e+01,2.618135614048502230e-02
5.620000000000000284e+01,3.138516876404885692e-02
5.624000000000000199e+01,3.309869892163947586e-02
5.628000000000000114e+01,3.062400223454831219e-02
5.632000000000000028e+01,3.094052340964071821e-02
5.635999999999999943e+01,3.596760980192657137e-02
5.639999999999999858e+01,3.087394167061782366e-02
5.643999999999999773e+01,3.589990850675308515e-02
5.647999999999999687e+01,2.277875966979011832e-02
5.652000000000000313e+01,3.792380198795120699e-02
5.656000000000000227e+01,3.335135376001564095e-02
5.660000000000000142e+01,3.331498513539010720e-02
5.664000000000000057e+01,3.537189057955368587e-02
5.667999999999999972e+01,2.975084770357415073e-02
5.671999999999999886e+01,3.983299607895195160e-02
5.675999999999999801e+01,3.281494606003310804e-02
5.679999999999999716e+01,3.783587903249850670e-02
5.684000000000000341e+01,3.866858633091047048e-02
5.688000000000000256e+01,3.147437349609844004e-02
5.692000000000000171e+01,3.178250489840771242e-02
5.696000000000000085e+01,3.104316095797457833e-02
5.700000000000000000e+01,3.780616142189545392e-02
5.703999999999999915e+01,4.160233943891305380e-02
5.707999999999999829e+01,3.527776435381341918e-02
5.711999999999999744e+01,3.191889491880483404e-02
5.715999999999999659e+01,3.710928691610289321e-02
5.720000000000000284e+01,3.706453729840693267e-02
5.724000000000000199e+01,3.492539622979540237e-02
5.728000000000000114e+01,3.365812775876547702e-02
5.732000000000000028e+01,2.942403742614643769e-02
5.735999999999999943e+01,2.937705605438490492e-02
5.739999999999999858e+01,3.561101711407192033e-02
5.743999999999999773e+01,3.364357309558196202e-02
5.747999999999999687e+01,3.708464109786702850e-02
5.752000000000000313e+01,3.878029046571317834e-02
5.756000000000000227e+01,2.861032657902557244e-02
5.760000000000000142e+01,3.449252801441667071e-02
5.764000000000000057e+01,2.763668578460058353e-02
5.767999999999999972e+01,2.706178657154720280e-02
5.771999999999999886e+01,3.102296930306053593e-02
5.775999999999999801e+01,2.695723374090866487e-02
5.779999999999999716e+01,3.178973318008684185e-02
5.784000000000000341e+01,2.615250887469526553e-02
5.788000000000000256e+01,3.377567262739698123e-02
5.792000000000000171e+01,3.738509907926698683e-02
5.796000000000000085e+01,2.738405195695404332e-02
5.800000000000000000e+01,3.238825429939561074e-02
5.803999999999999915e+01,3.931124752161604952e-02
5.807999999999999829e+01,3.559003138538341382e-02
5.811999999999999744e+01,2.122460597431401544e-02
5.815999999999999659e+01,3.006527779478191179e-02
5.820000000000000284e+01,3.122800447252655279e-02
5.824000000000000199e+01,3.151774459883193574e-02
5.828000000000000114e+01,2.761926206127114300e-02
5.832000000000000028e+01,4.099434915995133627e-02
5.835999999999999943e+01,3.238362997271287957e-02
5.839999999999999858e+01,3.336909150337404040e-02
5.843999999999999773e+01,3.679680309672083566e-02
5.847999999999999687e+01,3.272105624823977432e-02
5.852000000000000313e+01,3.038961516735203330e-02
5.856000000000000227e+01,3.433911894278586507e-02
5.860000000000000142e+01,3.357694237654042235e-02
5.864000000000000057e+01,2.949897447688163907e-02
5.867999999999999972e+01,3.170195168439338823e-02
5.871999999999999886e+01,3.756858234897358234e-02
5.875999999999999801e+01,3.401240788564650203e-02
5.879999999999999716e+01,3.446885927778295389e-02
5.884000000000000341e+01,2.515353347808236065e-02
5.888000000000000256e+01,2.997102840478902894e-02
5.892000000000000171e+01,2.588917688479734636e-02
5.896000000000000085e+01,3.175247948449610308e-02
5.900000000000000000e+01,4.372224174471470853e-02
5.903999999999999915e+01,3.580003252746662840e-02
5.907999999999999829e+01,3.555465817820201851e-02
5.911999999999999744e+01,3.391284077031344463e-02
5.915999999999999659e+01,2.860626088486115451e-02
5.920000000000000284e+01,3.149997446498491172e-02
5.924000000000000199e+01,3.125238408152136715e-02
5.928000000000000114e+01,2.280339246623123983e-02
5.932000000000000028e+01,2.883619472829017719e-02
5.935999999999999943e+01,3.504292947365401922e-02
5.939999999999999858e+01,3.863181893663950733e-02
5.943999999999999773e+01,2.477154337645864901e-02
5.947999999999999687e+01,3.760709011877793467e-02
5.952000000000000313e+01,3.177206919609504299e-02
5.956000000000000227e+01,2.384266167224259950e-02
5.960000000000000142e+01,3.510617373174656358e-02
5.964000000000000057e+01,3.258472961337154777e-02
5.967999999999999972e+01,3.669320492373726733e-02
5.971999999999999886e+01,2.980850207275619404e-02
5.975999999999999801e+01,3.007717716449217690e-02
5.979999999999999716e+01,3.523091078000562676e-02
5.984000000000000341e+01,3.078735540967101475e-02
5.988000000000000256e+01,2.930951145895304907e-02
5.992000000000000171e+01,3.306569851402383492e-02
5.996000000000000085e+01,2.321141617572736529e-02
