2.003999999999999915e+01,7.058767553697607375e-03
2.007999999999999829e+01,7.731713960023828096e-03
2.012000000000000099e+01,8.923794420317810588e-03
2.016000000000000014e+01,1.132744882650673322e-02
2.019999999999999929e+01,7.383542270782858692e-03
2.023999999999999844e+01,7.998002334252140438e-03
2.028000000000000114e+01,9.477816567723279864e-03
2.032000000000000028e+01,8.591599084228041319e-03
2.035999999999999943e+01,8.224515946250524068e-03
2.039999999999999858e+01,4.914367985710970527e-03
2.044000000000000128e+01,9.855599385104578045e-03
2.048000000000000043e+01,1.029577641161707503e-02
2.051999999999999957e+01,5.715569231339165911e-03
2.055999999999999872e+01,5.693729058986222828e-03
2.060000000000000142e+01,6.017913562866284566e-03
2.064000000000000057e+01,9.053958922962920472e-03
2.067999999999999972e+01,1.364779878231050202e-02
2.071999999999999886e+01,5.085086518647620457e-03
2.076000000000000156e+01,5.812413768651073995e-03
2.080000000000000071e+01,1.017485519368265152e-02
2.083999999999999986e+01,1.540265146899682559e-02
2.087999999999999901e+01,9.551215345669175627e-03
2.092000000000000171e+01,9.527619713702546039e-03
2.096000000000000085e+01,4.945266971674672392e-03
2.100000000000000000e+01,1.161486692430900407e-02
2.103999999999999915e+01,1.234083017739650776e-02
2.107999999999999829e+01,9.027366348697815623e-03
2.112000000000000099e+01,1.384987606543166411e-02
2.116000000000000014e+01,4.881097670604917990e-03
2.119999999999999929e+01,9.299295063678431408e-03
2.123999999999999844e+01,7.139119477106077929e-03
2.128000000000000114e+01,2.612913339762667781e-03
2.132000000000000028e+01,4.433878062195723002e-03
2.135999999999999943e+01,2.965559206595027100e-03
2.139999999999999858e+01,1.044106072045722020e-02
2.144000000000000128e+01,8.799243405405264909e-03
2.148000000000000043e+01,7.157231913931725448e-03
2.151999999999999957e+01,1.047751183852348514e-02
2.155999999999999872e+01,1.033539846720531521e-02
2.160000000000000142e+01,4.768978959121666743e-03
2.164000000000000057e+01,9.704369759551762648e-03
2.167999999999999972e+01,1.025411428540067352e-02
2.171999999999999886e+01,4.167783094423609114e-03
2.176000000000000156e+01,8.294745756345412585e-03
2.180000000000000071e+01,1.086352498307538439e-02
2.183999999999999986e+01,6.219195435975162500e-03
2.187999999999999901e+01,7.864334108654247660e-03
2.192000000000000171e+01,9.105355897472904025e-03
2.196000000000000085e+01,5.095181947682921562e-03
2.200000000000000000e+01,1.049045565845081567e-02
2.203999999999999915e+01,8.095587635567350060e-03
2.207999999999999829e+01,9.797461904862048501e-03
2.212000000000000099e+01,4.690150982411935357e-03
2.216000000000000014e+01,4.429725612935040205e-03
2.219999999999999929e+01,9.593219047801384430e-03
2.223999999999999844e+01,4.831548141693202056e-03
2.228000000000000114e+01,5.262982855999819021e-03
2.232000000000000028e+01,7.194510741530010453e-03
2.235999999999999943e+01,9.414362121040277531e-03
2.239999999999999858e+01,9.210480990063017737e-03
2.244000000000000128e+01,8.602483606914530095e-03
2.248000000000000043e+01,1.082175595574620848e-02
2.251999999999999957e+01,6.231843598747781321e-03
2.255999999999999872e+01,1.156670946508852812e-02
2.260000000000000142e+01,6.168564943888068045e-03
2.264000000000000057e+01,7.463812807649882093e-03
2.267999999999999972e+01,5.412075376618766254e-03
2.271999999999999886e+01,5.206651524393124050e-03
2.276000000000000156e+01,6.155101456230166121e-03
2.280000000000000071e+01,7.161062135442139431e-03
2.283999999999999986e+01,1.099429298395754664e-02
2.287999999999999901e+01,1.055728565619169432e-02
2.292000000000000171e+01,1.242821871241154424e-02
2.296000000000000085e+01,8.067000800086121873e-03
2.300000000000000000e+01,5.667503447262137867e-03
2.303999999999999915e+01,5.056616741697588652e-03
2.307999999999999829e+01,6.176637411706088071e-03
2.312000000000000099e+01,7.007949296154186540e-03
2.316000000000000014e+01,7.262035842244081787e-03
2.319999999999999929e+01,8.843106667736452819e-03
2.323999999999999844e+01,7.942742682884380151e-03
2.328000000000000114e+01,5.888120302670038497e-03
2.332000000000000028e+01,8.564978244025984316e-03
2.335999999999999943e+01,7.317818513865544973e-03
2.339999999999999858e+01,4.916400534117226599e-03
2.344000000000000128e+01,6.380913217545862610e-03
2.348000000000000043e+01,8.249157396071597412e-03
2.351999999999999957e+01,5.327834293279052995e-03
2.355999999999999872e+01,5.118375593880764539e-03
2.360000000000000142e+01,4.966428613686977266e-03
2.364000000000000057e+01,7.641752774626067203e-03
2.367999999999999972e+01,3.046267076665034202e-03
2.371999999999999886e+01,1.039517722092087731e-02
2.376000000000000156e+01,6.145528582620481302e-03
2.380000000000000071e+01,8.300757137045857922e-03
2.383999999999999986e+01,8.666991453333222281e-03
2.387999999999999901e+01,8.398297985631051482e-03
2.392000000000000171e+01,4.955730690305287962e-03
2.396000000000000085e+01,6.186941173735629670e-03
2.400000000000000000e+01,4.705904488948114105e-03
2.403999999999999915e+01,8.937305445101025037e-03
2.407999999999999829e+01,5.090050544378570477e-03
2.412000000000000099e+01,4.704803890943212892e-03
2.416000000000000014e+01,3.569223153102943358e-03
2.419999999999999929e+01,1.628224840974645121e-02
2.423999999999999844e+01,1.353059300831517889e-02
2.428000000000000114e+01,8.355207380195683875e-03
2.432000000000000028e+01,1.033484274010326373e-02
2.435999999999999943e+01,6.486252074112204731e-03
2.439999999999999858e+01,1.013890241499828745e-02
2.444000000000000128e+01,1.425298873745476508e-02
2.448000000000000043e+01,1.080774957145137077e-02
2.451999999999999957e+01,6.958396680033527258e-03
2.455999999999999872e+01,1.032176838846946172e-02
2.460000000000000142e+01,8.030024323389157656e-03
2.464000000000000057e+01,6.372826443670211519e-03
2.467999999999999972e+01,1.042806698235522987e-02
2.471999999999999886e+01,1.027077490024480566e-02
2.476000000000000156e+01,1.149817231288228180e-02
2.480000000000000071e+01,7.936003999128660516e-03
2.483999999999999986e+01,9.740054376477817397e-03
2.487999999999999901e+01,9.755111779067312736e-03
2.492000000000000171e+01,9.712275863824205990e-03
2.496000000000000085e+01,9.611546679340035940e-03
2.500000000000000000e+01,1.147254048393110161e-02
2.503999999999999915e+01,8.890188775347116629e-03
2.507999999999999829e+01,5.268987498572937425e-03
2.512000000000000099e+01,8.225774978876769505e-03
2.516000000000000014e+01,5.008117483444343015e-03
2.519999999999999929e+01,7.156679116437992920e-03
2.523999999999999844e+01,6.419885126715983367e-03
2.528000000000000114e+01,7.240891224264594042e-03
2.532000000000000028e+01,7.253861326283310602e-03
2.535999999999999943e+01,3.804442748582225614e-03
2.539999999999999858e+01,4.855693738096785415e-03
2.544000000000000128e+01,8.387998133693567310e-03
2.548000000000000043e+01,9.438870440068532208e-03
2.551999999999999957e+01,8.354530627480261096e-03
2.555999999999999872e+01,5.827418587854596606e-03
2.560000000000000142e+01,1.028221913034961695e-02
2.564000000000000057e+01,7.812432116593962146e-03
2.567999999999999972e+01,1.330551422686551515e-02
2.571999999999999886e+01,3.737840718891870164e-03
2.576000000000000156e+01,6.749302054356743491e-03
2.580000000000000071e+01,9.183541258500800553e-03
2.583999999999999986e+01,8.617018928245682302e-03
2.587999999999999901e+01,7.184757962463406665e-03
2.592000000000000171e+01,6.098528135580429457e-03
2.596000000000000085e+01,6.108472659800339571e-03
2.600000000000000000e+01,3.463875765654039242e-03
2.603999999999999915e+01,8.782148432858268364e-03
2.607999999999999829e+01,8.906933686653694532e-03
2.612000000000000099e+01,3.665121614798158046e-03
2.616000000000000014e+01,7.655652296180351715e-03
2.619999999999999929e+01,1.721023447144076233e-03
2.623999999999999844e+01,1.234705912381603432e-02
2.628000000000000114e+01,7.219900019189153320e-03
2.632000000000000028e+01,6.766521560215395942e-03
2.635999999999999943e+01,5.331998408256549346e-03
2.639999999999999858e+01,1.069824363012682883e-03
2.644000000000000128e+01,7.828796339760335163e-03
2.648000000000000043e+01,9.695966284472280457e-04
2.651999999999999957e+01,3.746663349640058129e-03
2.655999999999999872e+01,9.581818040254968388e-03
2.660000000000000142e+01,4.164637319975508442e-03
2.664000000000000057e+01,1.017252610658997414e-02
2.667999999999999972e+01,3.600903213102362495e-03
2.671999999999999886e+01,7.588800119523804628e-03
2.676000000000000156e+01,6.960243641370027906e-03
2.680000000000000071e+01,8.466522299741515226e-03
2.683999999999999986e+01,5.760270912665696984e-03
2.687999999999999901e+01,5.361964720131689836e-03
2.692000000000000171e+01,6.059834044895942053e-03
2.696000000000000085e+01,9.873495145274881896e-03
2.700000000000000000e+01,5.262284014289075884e-03
2.703999999999999915e+01,9.075570221663494669e-03
2.707999999999999829e+01,4.175467693466828646e-03
2.712000000000000099e+01,2.795080377195753932e-03
2.716000000000000014e+01,9.954597185615043226e-03
2.719999999999999929e+01,3.726756461731491488e-03
2.723999999999999844e+01,7.539106286945433839e-03
2.728000000000000114e+01,7.369739882329814397e-03
2.732000000000000028e+01,6.738559833425136932e-03
2.735999999999999943e+01,1.055034841244053938e-02
2.739999999999999858e+01,8.245398057120136015e-03
2.744000000000000128e+01,5.074710961340178107e-03
2.748000000000000043e+01,5.596849475642588778e-03
2.751999999999999957e+01,1.148520993667668036e-02
2.755999999999999872e+01,5.717312911066852604e-03
2.760000000000000142e+01,5.604154530760885843e-03
2.764000000000000057e+01,8.433678791291102095e-03
2.767999999999999972e+01,4.511727934569437562e-03
2.771999999999999886e+01,7.398582274483177408e-03
2.776000000000000156e+01,2.726115110438025353e-03
2.780000000000000071e+01,6.997476090491814432e-03
2.783999999999999986e+01,9.397562904326856384e-04
2.787999999999999901e+01,6.480217464436769347e-03
2.792000000000000171e+01,1.040479931746686980e-02
2.796000000000000085e+01,7.635609713663268905e-03
2.800000000000000000e+01,9.251686194965491952e-03
2.803999999999999915e+01,6.366717487175459732e-03
2.807999999999999829e+01,7.405388399451379687e-03
2.812000000000000099e+01,8.097653279823507910e-03
2.816000000000000014e+01,4.173466476322051921e-03
2.819999999999999929e+01,7.923635256721522566e-03
2.823999999999999844e+01,6.768835849041130760e-03
2.828000000000000114e+01,8.383609898826955772e-03
2.832000000000000028e+01,5.612745740216581319e-03
2.835999999999999943e+01,9.650687555705176127e-03
2.839999999999999858e+01,5.206055520252834100e-03
2.844000000000000128e+01,6.704679751914628498e-03
2.848000000000000043e+01,6.933645264550218103e-03
2.851999999999999957e+01,9.470557963978094504e-03
2.855999999999999872e+01,5.659919857111523483e-03
2.860000000000000142e+01,1.044689094450627388e-02
2.864000000000000057e+01,0.000000000000000000e+00
2.867999999999999972e+01,5.940666584448335910e-03
2.871999999999999886e+01,6.053112439468849582e-03
2.876000000000000156e+01,1.020460538116610243e-02
2.880000000000000071e+01,3.276875545333721596e-03
2.883999999999999986e+01,4.081205391143719052e-03
2.887999999999999901e+01,7.481999462458501643e-03
2.892000000000000171e+01,8.112849022029137297e-03
2.896000000000000085e+01,1.105164630289825686e-02
2.900000000000000000e+01,6.084903664477087082e-03
2.903999999999999915e+01,7.984671146487877860e-03
2.907999999999999829e+01,6.075834546119017639e-03
2.912000000000000099e+01,9.013891953640143853e-03
2.916000000000000014e+01,7.912532094853126988e-03
2.919999999999999929e+01,6.060844274187171359e-03
2.923999999999999844e+01,5.536148070236536489e-03
2.928000000000000114e+01,3.741794119089215595e-03
2.932000000000000028e+01,5.467158052398588680e-03
2.935999999999999943e+01,5.980567655972101292e-03
2.939999999999999858e+01,9.494365358684574499e-03
2.944000000000000128e+01,6.314393402447958381e-03
2.948000000000000043e+01,7.981315891424624331e-03
2.951999999999999957e+01,9.474944010032675112e-03
2.955999999999999872e+01,7.159968629358801247e-03
2.960000000000000142e+01,4.787105616054974228e-03
2.964000000000000057e+01,2.067838417323429080e-03
2.967999999999999972e+01,5.349532312319623013e-03
2.971999999999999886e+01,6.380612549901834921e-03
2.976000000000000156e+01,1.018126804283487306e-02
2.980000000000000071e+01,2.902701973025177077e-03
2.983999999999999986e+01,3.990933322701137841e-03
2.987999999999999901e+01,3.405584412107577792e-03
2.992000000000000171e+01,9.975263292347677155e-03
2.996000000000000085e+01,1.077442626977355780e-02
3.000000000000000000e+01,3.379533941306780889e-03
3.003999999999999915e+01,7.005792008064348070e-03
3.007999999999999829e+01,6.765743886951303479e-03
3.012000000000000099e+01,3.178719509059794741e-03
3.016000000000000014e+01,4.784810324103760774e-03
3.019999999999999929e+01,7.602487281502750584e-03
3.023999999999999844e+01,5.053571918172789293e-03
3.028000000000000114e+01,3.254616232157955726e-03
3.032000000000000028e+01,9.303128666225794069e-03
3.035999999999999943e+01,4.157013577275839311e-03
3.039999999999999858e+01,3.223057528086695992e-03
3.044000000000000128e+01,4.250831076413495377e-03
3.048000000000000043e+01,1.931628805285126463e-03
3.051999999999999957e+01,9.017884544698887006e-03
3.055999999999999872e+01,6.294392690720742103e-03
3.060000000000000142e+01,2.416651333620327673e-03
3.064000000000000057e+01,4.828388837832315109e-03
3.067999999999999972e+01,6.085876936104972663e-03
3.071999999999999886e+01,3.130839702303519437e-03
3.076000000000000156e+01,7.215424639200998351e-03
3.080000000000000071e+01,7.664517543985851188e-03
3.083999999999999986e+01,5.343668269417338468e-03
3.087999999999999901e+01,6.542538774373107824e-03
3.092000000000000171e+01,4.856060556602780943e-03
3.096000000000000085e+01,1.784519991922010494e-03
3.100000000000000000e+01,9.445614387271728321e-03
3.103999999999999915e+01,6.893038530382277797e-03
3.107999999999999829e+01,4.571093440136763004e-03
3.112000000000000099e+01,6.980638146799286216e-03
3.116000000000000014e+01,8.466747311731607703e-03
3.119999999999999929e+01,5.105595204631123776e-03
3.123999999999999844e+01,3.590767026320393698e-03
3.128000000000000114e+01,2.421976498166689053e-03
3.132000000000000028e+01,3.272619956819259289e-03
3.135999999999999943e+01,1.064805266418386099e-03
3.139999999999999858e+01,3.530777392788046146e-03
3.144000000000000128e+01,3.111401428120797244e-03
3.148000000000000043e+01,3.499689918790776372e-03
3.151999999999999957e+01,1.000434837895206042e-02
3.155999999999999872e+01,9.411316513567503927e-03
3.160000000000000142e+01,6.336859993456879503e-03
3.164000000000000057e+01,3.550738240548715827e-03
3.167999999999999972e+01,2.899457552325820312e-03
3.171999999999999886e+01,5.190864461269630893e-03
3.176000000000000156e+01,1.596351013459894200e-03
3.180000000000000071e+01,4.118207875281806700e-03
3.183999999999999986e+01,6.755289786429976955e-03
3.187999999999999901e+01,3.044824924376178694e-03
3.192000000000000171e+01,7.470346727453384093e-03
3.196000000000000085e+01,5.836838455900851368e-03
3.200000000000000000e+01,3.856928865817632352e-03
3.203999999999999915e+01,4.127267418298686923e-03
3.207999999999999829e+01,3.012544984430638381e-03
3.211999999999999744e+01,4.494290711976929413e-03
3.215999999999999659e+01,6.495185119526260958e-03
3.220000000000000284e+01,4.860589195664600203e-03
3.224000000000000199e+01,7.322747906215909715e-03
3.228000000000000114e+01,9.207692357265472374e-03
3.232000000000000028e+01,4.398870647952175458e-03
3.235999999999999943e+01,5.129386725772632633e-03
3.239999999999999858e+01,9.437327749871294094e-03
3.243999999999999773e+01,1.742797293818924408e-03
3.247999999999999687e+01,1.722627620955346616e-03
3.252000000000000313e+01,6.260839484867919934e-03
3.256000000000000227e+01,3.643658917743641638e-03
3.260000000000000142e+01,6.508113109024138074e-03
3.264000000000000057e+01,4.409901137009217265e-03
3.267999999999999972e+01,7.908730661137720191e-03
3.271999999999999886e+01,6.848817361098732612e-03
3.275999999999999801e+01,1.109742905299686624e-02
3.279999999999999716e+01,7.440505441794902780e-03
3.284000000000000341e+01,6.610864147765237696e-03
3.288000000000000256e+01,6.069559127273763122e-03
3.292000000000000171e+01,4.893337304466309143e-03
3.296000000000000085e+01,1.773884207850933911e-02
3.300000000000000000e+01,6.278261938551851773e-02
3.303999999999999915e+01,4.354471776951263084e-02
3.307999999999999829e+01,9.361476116648769288e-03
3.311999999999999744e+01,5.472297573356264475e-03
3.315999999999999659e+01,4.756621657634979398e-03
3.320000000000000284e+01,2.309666194458818121e-03
3.324000000000000199e+01,1.362817167979055687e-03
3.328000000000000114e+01,6.128417007070552196e-03
3.332000000000000028e+01,5.181208345309634700e-03
3.335999999999999943e+01,3.829896696850338886e-03
3.339999999999999858e+01,2.651515313062712161e-03
3.343999999999999773e+01,6.954769708100843988e-03
3.347999999999999687e+01,1.171947106638287529e-02
3.352000000000000313e+01,6.501318466208600225e-03
3.356000000000000227e+01,5.322218783688143114e-03
3.360000000000000142e+01,5.816335936020952321e-03
3.364000000000000057e+01,4.290657474015815119e-03
3.367999999999999972e+01,3.688052780434767416e-03
3.371999999999999886e+01,5.797324832482794905e-03
3.375999999999999801e+01,8.194934227081496908e-03
3.379999999999999716e+01,6.841648593372495757e-03
3.384000000000000341e+01,4.622633993840006943e-03
3.388000000000000256e+01,8.173772309028789693e-03
3.392000000000000171e+01,5.723586250847979666e-03
3.396000000000000085e+01,1.830638169839590408e-03
3.400000000000000000e+01,5.092722835995370199e-03
3.403999999999999915e+01,5.065539327615165011e-03
3.407999999999999829e+01,3.537890621903934298e-03
3.411999999999999744e+01,5.876185553293613965e-03
3.415999999999999659e+01,8.156598391481587745e-03
3.420000000000000284e+01,6.109083484498075735e-03
3.424000000000000199e+01,2.618806894827315108e-03
3.428000000000000114e+01,5.302606947737522648e-03
3.432000000000000028e+01,5.851205571809166804e-03
3.435999999999999943e+01,6.861252228137156711e-03
3.439999999999999858e+01,4.870547748641724378e-03
3.443999999999999773e+01,6.688083974701136691e-03
3.447999999999999687e+01,5.331759201286509313e-03
3.452000000000000313e+01,6.802718785886172244e-03
3.456000000000000227e+01,8.331203403754572009e-03
3.460000000000000142e+01,6.512717207089803104e-03
3.464000000000000057e+01,9.425725083382930150e-03
3.467999999999999972e+01,5.298749744543139982e-03
3.471999999999999886e+01,9.134654511404062191e-03
3.475999999999999801e+01,6.853829284760679097e-03
3.479999999999999716e+01,6.246222350714827898e-03
3.484000000000000341e+01,5.696140790078070386e-03
3.488000000000000256e+01,6.473057697554645065e-03
3.492000000000000171e+01,5.287883865898353186e-03
3.496000000000000085e+01,8.199467972875372490e-03
3.500000000000000000e+01,3.840255972339863891e-03
3.503999999999999915e+01,4.212538530677024072e-03
3.507999999999999829e+01,4.873160035083528609e-03
3.511999999999999744e+01,3.917910964981659826e-03
3.515999999999999659e+01,5.386023788412708582e-03
3.520000000000000284e+01,8.411948749800338826e-03
3.524000000000000199e+01,7.802387072729112701e-03
3.528000000000000114e+01,1.053944055941090190e-02
3.532000000000000028e+01,1.096818387120744587e-02
3.535999999999999943e+01,5.107087957538266297e-03
3.539999999999999858e+01,7.035763014791307501e-03
3.543999999999999773e+01,4.405698552097211257e-03
3.547999999999999687e+01,4.776029574446384769e-03
3.552000000000000313e+01,8.666086012930975663e-03
3.556000000000000227e+01,9.555392724744935298e-03
3.560000000000000142e+01,4.847300345976267300e-03
3.564000000000000057e+01,6.024769660509497922e-03
3.567999999999999972e+01,1.210684427221255660e-02
3.571999999999999886e+01,1.068731036993822610e-02
3.575999999999999801e+01,5.112960578393553265e-03
3.579999999999999716e+01,7.328382243685861025e-03
3.584000000000000341e+01,6.196834600780715997e-03
3.588000000000000256e+01,1.147017882522700927e-02
3.592000000000000171e+01,9.992057942265394552e-03
3.596000000000000085e+01,6.321034302437855690e-03
3.600000000000000000e+01,9.112605996014032719e-03
3.603999999999999915e+01,7.864768781015881588e-03
3.607999999999999829e+01,7.424601609374670806e-03
3.611999999999999744e+01,4.906938515789137541e-03
3.615999999999999659e+01,7.928617825527549748e-03
3.620000000000000284e+01,7.776438225225377511e-03
3.624000000000000199e+01,1.264427124292938007e-02
3.628000000000000114e+01,1.035671634860380746e-02
3.632000000000000028e+01,6.799512259181255194e-03
3.635999999999999943e+01,1.270547659493410919e-02
3.639999999999999858e+01,1.659164866916084530e-02
3.643999999999999773e+01,1.037956369155330211e-02
3.647999999999999687e+01,9.591414865445789181e-03
3.652000000000000313e+01,1.440031220026335469e-02
3.656000000000000227e+01,8.591622746520395995e-03
3.660000000000000142e+01,1.420801489894875022e-02
3.664000000000000057e+01,1.624662543389776559e-02
3.667999999999999972e+01,9.975782137174852085e-03
3.671999999999999886e+01,1.414906414767414661e-02
3.675999999999999801e+01,1.497537796757994824e-02
3.679999999999999716e+01,1.326257012937367107e-02
3.684000000000000341e+01,1.195351001581740173e-02
3.688000000000000256e+01,1.566446329773093712e-02
3.692000000000000171e+01,1.250854604646775212e-02
3.696000000000000085e+01,1.171828955507603007e-02
3.700000000000000000e+01,1.819847609576485947e-02
3.703999999999999915e+01,1.383026314987944282e-02
3.707999999999999829e+01,1.909832946464958339e-02
3.711999999999999744e+01,1.830737197309033337e-02
3.715999999999999659e+01,1.670839286907793708e-02
3.720000000000000284e+01,1.943698770593289826e-02
3.724000000000000199e+01,1.697210868640073450e-02
3.728000000000000114e+01,1.883480370491888087e-02
3.732000000000000028e+01,2.664076577785873950e-02
3.735999999999999943e+01,2.642579144657102377e-02
3.739999999999999858e+01,3.151934774383156196e-02
3.743999999999999773e+01,2.824574781238037291e-02
3.747999999999999687e+01,3.622412059527940764e-02
3.752000000000000313e+01,3.560452396553820398e-02
3.756000000000000227e+01,3.706207222315132527e-02
3.760000000000000142e+01,4.001973221393170799e-02
3.764000000000000057e+01,4.909376960869918372e-02
3.767999999999999972e+01,5.499394989131065753e-02
3.771999999999999886e+01,6.510629810592297173e-02
3.775999999999999801e+01,6.985206313500375019e-02
3.779999999999999716e+01,8.348396513577453770e-02
3.784000000000000341e+01,1.054249709540482499e-01
3.788000000000000256e+01,1.259809228317368690e-01
3.792000000000000171e+01,1.647709497119022870e-01
3.796000000000000085e+01,2.156784996936834953e-01
3.800000000000000000e+01,2.978610751579195970e-01
3.803999999999999915e+01,4.203780974368251933e-01
3.807999999999999829e+01,5.930391310262270732e-01
3.811999999999999744e+01,7.959365304788568185e-01
3.815999999999999659e+01,9.418805789034682130e-01
3.820000000000000284e+01,1.000000000000000000e+00
3.824000000000000199e+01,9.288061065372665848e-01
3.828000000000000114e+01,7.744038514658654337e-01
3.832000000000000028e+01,6.135963541242119845e-01
3.835999999999999943e+01,4.500766270586804008e-01
3.839999999999999858e+01,3.255064675584731781e-01
3.843999999999999773e+01,2.389049192274582123e-01
3.847999999999999687e+01,1.862327496947771277e-01
3.852000000000000313e+01,1.371380125428700025e-01
3.856000000000000227e+01,1.178757185467521063e-01
3.860000000000000142e+01,9.728607480497344917e-02
3.864000000000000057e+01,7.750410421640614722e-02
3.867999999999999972e+01,7.047439412715757190e-02
3.871999999999999886e+01,6.130948795413276864e-02
3.875999999999999801e+01,5.237522187731518536e-02
3.879999999999999716e+01,4.736460844307900653e-02
3.884000000000000341e+01,4.033420571139671729e-02
3.888000000000000256e+01,4.005491841309364448e-02
3.892000000000000171e+01,3.764043527397170630e-02
3.896000000000000085e+01,3.701458212151646082e-02
3.900000000000000000e+01,3.044511408708689207e-02
3.903999999999999915e+01,2.652982594067480188e-02
3.907999999999999829e+01,2.596115757420589670e-02
3.911999999999999744e+01,2.256485376654122563e-02
3.915999999999999659e+01,2.153421339127919304e-02
3.920000000000000284e+01,2.119584020895346962e-02
3.924000000000000199e+01,2.120351434648840711e-02
3.928000000000000114e+01,2.213426905525404595e-02
3.932000000000000028e+01,1.798695907494498453e-02
3.935999999999999943e+01,2.111009499361352765e-02
3.939999999999999858e+01,1.880894639872321764e-02
3.943999999999999773e+01,1.598829556248311523e-02
3.947999999999999687e+01,1.461005542293178014e-02
3.952000000000000313e+01,1.363556626365928885e-02
3.956000000000000227e+01,1.462281778075919837e-02
3.960000000000000142e+01,1.364798424392887725e-02
3.964000000000000057e+01,1.296149519259612304e-02
3.967999999999999972e+01,1.527540672841157590e-02
3.971999999999999886e+01,1.037623121078646259e-02
3.975999999999999801e+01,1.292061203888729762e-02
3.979999999999999716e+01,1.304128149379243581e-02
3.984000000000000341e+01,1.125756950659404822e-02
3.988000000000000256e+01,1.212803842783413341e-02
3.992000000000000171e+01,8.439773271372326760e-03
3.996000000000000085e+01,1.017544849386894934e-02
4.000000000000000000e+01,1.116080887418502594e-02
4.003999999999999915e+01,8.222171845630055903e-03
4.007999999999999829e+01,8.341639210415903102e-03
4.011999999999999744e+01,1.244246414157969965e-02
4.015999999999999659e+01,9.676422475476306392e-03
4.020000000000000284e+01,4.659779882925544486e-03
4.024000000000000199e+01,7.028990898920582653e-03
4.028000000000000114e+01,7.493821007318330306e-03
4.032000000000000028e+01,7.381446623100910986e-03
4.035999999999999943e+01,8.596077364028979415e-03
4.039999999999999858e+01,6.059821094242867807e-03
4.043999999999999773e+01,6.466263014565134561e-03
4.047999999999999687e+01,1.102717289942219299e-02
4.052000000000000313e+01,1.143327267739449767e-02
4.056000000000000227e+01,1.010810184874340149e-02
4.060000000000000142e+01,6.705440540393267472e-03
4.064000000000000057e+01,9.419160280390867848e-03
4.067999999999999972e+01,8.785916591759593969e-03
4.071999999999999886e+01,5.498149366425127138e-03
4.075999999999999801e+01,8.557576616324278837e-03
4.079999999999999716e+01,1.017425015253815151e-02
4.084000000000000341e+01,9.713433500601829571e-03
4.088000000000000256e+01,4.924697218270453376e-03
4.092000000000000171e+01,8.502771815263503521e-03
4.096000000000000085e+01,1.150364269710498800e-02
4.100000000000000000e+01,1.254243022571788907e-02
4.103999999999999915e+01,9.657221560246629158e-03
4.107999999999999829e+01,7.637392332344616029e-03
4.111999999999999744e+01,7.925525597549653092e-03
4.115999999999999659e+01,8.444301874450480319e-03
4.120000000000000284e+01,8.501281368304320490e-03
4.124000000000000199e+01,7.692540885757663711e-03
4.128000000000000114e+01,4.575497468455627138e-03
4.132000000000000028e+01,7.632539245834278098e-03
4.135999999999999943e+01,1.080481763731037936e-02
4.139999999999999858e+01,7.802670781189283665e-03
4.143999999999999773e+01,8.089443251630593079e-03
4.147999999999999687e+01,5.086956585550372195e-03
4.152000000000000313e+01,5.835015905438329167e-03
4.156000000000000227e+01,5.601948997101899134e-03
4.160000000000000142e+01,6.349668798579585424e-03
4.164000000000000057e+01,8.712911881519267571e-03
4.167999999999999972e+01,8.421632593951206003e-03
4.171999999999999886e+01,6.803007350857507782e-03
4.175999999999999801e+01,5.068805926664600101e-03
4.179999999999999716e+01,6.912040867746658754e-03
4.184000000000000341e+01,1.042850265352593050e-02
4.188000000000000256e+01,8.578386258695681540e-03
4.192000000000000171e+01,5.458627471575050460e-03
4.196000000000000085e+01,8.743767937710127808e-03
4.200000000000000000e+01,1.341361884151906839e-02
4.203999999999999915e+01,7.638999574633171391e-03
4.207999999999999829e+01,7.230619941776069218e-03
4.211999999999999744e+01,7.283697767921573120e-03
4.215999999999999659e+01,4.913067087768448020e-03
4.220000000000000284e+01,5.889059977693631223e-03
4.224000000000000199e+01,8.595983518508635082e-03
4.228000000000000114e+01,9.687045182689400097e-03
4.232000000000000028e+01,1.072023466632947980e-02
4.235999999999999943e+01,6.386846552457726110e-03
4.239999999999999858e+01,8.342951585792219779e-03
4.243999999999999773e+01,9.087118178803353999e-03
4.247999999999999687e+01,9.658006145083998864e-03
4.252000000000000313e+01,6.651119636832208970e-03
4.256000000000000227e+01,1.010683643098610196e-02
4.260000000000000142e+01,1.183128509668187993e-02
4.264000000000000057e+01,1.067039927695389266e-02
4.267999999999999972e+01,6.451069059560058522e-03
4.271999999999999886e+01,9.790705424217078373e-03
4.275999999999999801e+01,7.071324833942768499e-03
4.279999999999999716e+01,1.150698768095727818e-02
4.284000000000000341e+01,6.998467656330687250e-03
4.288000000000000256e+01,1.443436674923778175e-02
4.292000000000000171e+01,8.309817445458394722e-03
4.296000000000000085e+01,9.282608453055856204e-03
4.300000000000000000e+01,1.129389119144694024e-02
4.303999999999999915e+01,1.232404949949822068e-02
4.307999999999999829e+01,8.968587529407781589e-03
4.311999999999999744e+01,1.103706977700230803e-02
4.315999999999999659e+01,1.425945059031208210e-02
4.320000000000000284e+01,1.315391459153239864e-02
4.324000000000000199e+01,9.509264757868228155e-03
4.328000000000000114e+01,1.267343902292342346e-02
4.332000000000000028e+01,1.231754310555357480e-02
4.335999999999999943e+01,1.132674306824284736e-02
4.339999999999999858e+01,1.356716141819897144e-02
4.343999999999999773e+01,1.678836871317709520e-02
4.347999999999999687e+01,1.700883590259673686e-02
4.352000000000000313e+01,1.567114604199573019e-02
4.356000000000000227e+01,2.437366655581431341e-02
4.360000000000000142e+01,2.211238891150493421e-02
4.364000000000000057e+01,2.140893365795347794e-02
4.367999999999999972e+01,2.122464107875001588e-02
4.371999999999999886e+01,2.329061083082171676e-02
4.375999999999999801e+01,2.501019355025655214e-02
4.379999999999999716e+01,2.626798264509032713e-02
4.384000000000000341e+01,3.144943050503143378e-02
4.388000000000000256e+01,3.149511589504819242e-02
4.392000000000000171e+01,3.754177967735799343e-02
4.396000000000000085e+01,3.862579104775999000e-02
4.400000000000000000e+01,4.294102153430095353e-02
4.403999999999999915e+01,5.493062684696717324e-02
4.407999999999999829e+01,6.063040352710934167e-02
4.411999999999999744e+01,6.379106744137949536e-02
4.415999999999999659e+01,8.056954831616831847e-02
4.420000000000000284e+01,9.723245597393793960e-02
4.424000000000000199e+01,1.129719439793898800e-01
4.428000000000000114e+01,1.318849481208432817e-01
4.432000000000000028e+01,1.462969268499350051e-01
4.435999999999999943e+01,1.686717973952730210e-01
4.439999999999999858e+01,1.752357918509727941e-01
4.443999999999999773e+01,1.774141676806410550e-01
4.447999999999999687e+01,1.664360202506353081e-01
4.452000000000000313e+01,1.545921568287300929e-01
4.456000000000000227e+01,1.415363575418497055e-01
4.460000000000000142e+01,1.101884396363407154e-01
4.464000000000000057e+01,9.972895762945779841e-02
4.467999999999999972e+01,7.969055846308527313e-02
4.471999999999999886e+01,7.148117400889859863e-02
4.475999999999999801e+01,6.027105100408063770e-02
4.479999999999999716e+01,4.784899242583640772e-02
4.484000000000000341e+01,4.627499226082892186e-02
4.488000000000000256e+01,3.662236150651342059e-02
4.492000000000000171e+01,3.118190743066436357e-02
4.496000000000000085e+01,2.810712383298189995e-02
4.500000000000000000e+01,2.907140705011524925e-02
4.503999999999999915e+01,2.126462002897223577e-02
4.507999999999999829e+01,2.626780460206188522e-02
4.511999999999999744e+01,2.157666590961243580e-02
4.515999999999999659e+01,2.040526434384403245e-02
4.520000000000000284e+01,1.836814761223122885e-02
4.524000000000000199e+01,1.511909584169835591e-02
4.528000000000000114e+01,1.585140790584378331e-02
4.532000000000000028e+01,1.641044479325347652e-02
4.535999999999999943e+01,9.756401478620684367e-03
4.539999999999999858e+01,1.256553757083680133e-02
4.543999999999999773e+01,1.214312265736530901e-02
4.547999999999999687e+01,1.102810287902331737e-02
4.552000000000000313e+01,1.233645757940640166e-02
4.556000000000000227e+01,8.047425288484294156e-03
4.560000000000000142e+01,7.566647260138741407e-03
4.564000000000000057e+01,1.043249698073837363e-02
4.567999999999999972e+01,8.739619620808620343e-03
4.571999999999999886e+01,1.073959002867413623e-02
4.575999999999999801e+01,1.002733970208454992e-02
4.579999999999999716e+01,9.084111461579098476e-03
4.584000000000000341e+01,4.909332701300798442e-03
4.588000000000000256e+01,7.024051315687117845e-03
4.592000000000000171e+01,8.042242357764170513e-03
4.596000000000000085e+01,7.329169353067033037e-03
4.600000000000000000e+01,7.943108324913463261e-03
4.603999999999999915e+01,5.614013621333697329e-03
4.607999999999999829e+01,9.747526496209499985e-03
4.611999999999999744e+01,7.187289974781536223e-03
4.615999999999999659e+01,8.262198435377210090e-03
4.620000000000000284e+01,6.682590016301878655e-03
4.624000000000000199e+01,5.045114178650456256e-03
4.628000000000000114e+01,7.389003390464232018e-03
4.632000000000000028e+01,6.732155946714308593e-03
4.635999999999999943e+01,8.902607244055433730e-03
4.639999999999999858e+01,8.187728623571515624e-03
4.643999999999999773e+01,8.049719350525277525e-03
4.647999999999999687e+01,6.295853302949753517e-03
4.652000000000000313e+01,7.080769589441921266e-03
4.656000000000000227e+01,6.422939159421285106e-03
4.660000000000000142e+01,8.130781199817744068e-03
4.664000000000000057e+01,6.260853770603745996e-03
4.667999999999999972e+01,6.468082307600509298e-03
4.671999999999999886e+01,7.309883852453146792e-03
4.675999999999999801e+01,5.439465877637567753e-03
4.679999999999999716e+01,4.665247570083664273e-03
4.684000000000000341e+01,5.679668821717145412e-03
4.688000000000000256e+01,5.366750386125353038e-03
4.692000000000000171e+01,3.726492311899761746e-03
4.696000000000000085e+01,5.317456949582345833e-03
4.700000000000000000e+01,7.369884974427573510e-03
4.703999999999999915e+01,5.844544015577104838e-03
4.707999999999999829e+01,6.050139587185023211e-03
4.711999999999999744e+01,5.159209044227941292e-03
4.715999999999999659e+01,5.306775285577943792e-03
4.720000000000000284e+01,9.533196131524834284e-04
4.724000000000000199e+01,6.389334766654994465e-04
4.728000000000000114e+01,3.498067120540625328e-03
4.732000000000000028e+01,6.068521376698105332e-03
4.735999999999999943e+01,4.368767194557431760e-03
4.739999999999999858e+01,6.419566141331866163e-03
4.743999999999999773e+01,5.527333113381750762e-03
4.747999999999999687e+01,4.519530852913445501e-03
4.752000000000000313e+01,7.839315069913213585e-03
4.756000000000000227e+01,7.523627614628601232e-03
4.760000000000000142e+01,5.880601346765287549e-03
4.764000000000000057e+01,4.468225962416807855e-03
4.767999999999999972e+01,6.748700726845894941e-03
4.771999999999999886e+01,3.027867881964488479e-03
4.775999999999999801e+01,6.519787819992717802e-03
4.779999999999999716e+01,5.683796533951193664e-03
4.784000000000000341e+01,4.270609890491912711e-03
4.788000000000000256e+01,8.569889848492492218e-03
4.792000000000000171e+01,6.233125917083546207e-03
4.796000000000000085e+01,2.972946852364152966e-03
4.800000000000000000e+01,6.002267737657584687e-03
4.803999999999999915e+01,9.262239992380617154e-03
4.807999999999999829e+01,5.136025388447906445e-03
4.811999999999999744e+01,4.529551506965453708e-03
4.815999999999999659e+01,4.442245742076281548e-03
4.820000000000000284e+01,7.874680796820306139e-03
4.824000000000000199e+01,5.421215514498722333e-03
4.828000000000000114e+01,6.198974547604015409e-03
4.832000000000000028e+01,6.745758728056390485e-03
4.835999999999999943e+01,3.772478848609612384e-03
4.839999999999999858e+01,4.203533391197701585e-03
4.843999999999999773e+01,3.538063422739485056e-03
4.847999999999999687e+01,4.026498482662749928e-03
4.852000000000000313e+01,4.226255612612628970e-03
4.856000000000000227e+01,7.484127437296146483e-03
4.860000000000000142e+01,5.894759127238706833e-03
4.864000000000000057e+01,4.074416353260164152e-03
4.867999999999999972e+01,5.196781779233966558e-03
4.871999999999999886e+01,3.664633386799735076e-03
4.875999999999999801e+01,3.055577081775911856e-03
4.879999999999999716e+01,3.542722873587504737e-03
4.884000000000000341e+01,4.087411045824653096e-03
4.888000000000000256e+01,6.824664497359410852e-03
4.892000000000000171e+01,3.964535039272930328e-03
4.896000000000000085e+01,4.566444003779829112e-03
4.900000000000000000e+01,6.206851987801687877e-03
4.903999999999999915e+01,4.500306698813054222e-03
4.907999999999999829e+01,3.428337284577345680e-03
4.911999999999999744e+01,2.009987348962524213e-03
4.915999999999999659e+01,4.573005961399151907e-03
4.920000000000000284e+01,8.001413875474549381e-03
4.924000000000000199e+01,3.928229699491318262e-03
4.928000000000000114e+01,5.336700544558162229e-03
4.932000000000000028e+01,2.822391617507039149e-04
4.935999999999999943e+01,2.844455747456894196e-03
4.939999999999999858e+01,1.025359097693119385e-02
4.943999999999999773e+01,6.814341783188672570e-03
4.947999999999999687e+01,6.779428323450862985e-03
4.952000000000000313e+01,7.840717835195055996e-03
4.956000000000000227e+01,5.381944744784375283e-03
4.960000000000000142e+01,6.038990932763535838e-03
4.964000000000000057e+01,4.676260942995003923e-03
4.967999999999999972e+01,3.890404236573674797e-03
4.971999999999999886e+01,4.489267345981000704e-03
4.975999999999999801e+01,8.030839967310521299e-03
4.979999999999999716e+01,3.897711218028494448e-03
4.984000000000000341e+01,5.361644810632927582e-03
4.988000000000000256e+01,4.690395876482783034e-03
4.992000000000000171e+01,7.019559968898604445e-03
4.996000000000000085e+01,4.732298859795063505e-03
5.000000000000000000e+01,9.888606535835217648e-03
5.003999999999999915e+01,2.753947510584327067e-03
5.007999999999999829e+01,3.639890570438621478e-03
5.011999999999999744e+01,2.390651395087212659e-03
5.015999999999999659e+01,8.181057957300421485e-03
5.020000000000000284e+01,6.527576915928253593e-03
5.024000000000000199e+01,5.393266517906116289e-03
5.028000000000000114e+01,6.451523099883235170e-03
5.032000000000000028e+01,6.124740853224138956e-03
5.035999999999999943e+01,4.412919826520284895e-03
5.039999999999999858e+01,4.778259285034417922e-03
5.043999999999999773e+01,3.816263380964605642e-03
5.047999999999999687e+01,8.278220635411299294e-03
5.052000000000000313e+01,6.623467041395076672e-03
5.056000000000000227e+01,5.545587799738529132e-03
5.060000000000000142e+01,3.140373389863927289e-03
5.064000000000000057e+01,5.928299051760323179e-03
5.067999999999999972e+01,5.715493354563836934e-03
5.071999999999999886e+01,9.195541499097077687e-03
5.075999999999999801e+01,7.886055453106917759e-03
5.079999999999999716e+01,5.480047762967488710e-03
5.084000000000000341e+01,7.113113981999348058e-03
5.088000000000000256e+01,3.206502992670113607e-03
5.092000000000000171e+01,5.416285539697855700e-03
5.096000000000000085e+01,3.125050740548849116e-03
5.100000000000000000e+01,6.892506254661922259e-03
5.103999999999999915e+01,6.332054480614744338e-03
5.107999999999999829e+01,6.579290971727852488e-03
5.111999999999999744e+01,8.730578861871944596e-03
5.115999999999999659e+01,6.842476211019492792e-03
5.120000000000000284e+01,5.646655330546032810e-03
5.124000000000000199e+01,7.278139119323663239e-03
5.128000000000000114e+01,6.485925480659102821e-03
5.132000000000000028e+01,5.693553914813701856e-03
5.135999999999999943e+01,5.131837751490368402e-03
5.139999999999999858e+01,5.262403601503406678e-03
5.143999999999999773e+01,8.797307566503454260e-03
5.147999999999999687e+01,4.599808881456076901e-03
5.152000000000000313e+01,6.576407781915669624e-03
5.156000000000000227e+01,5.783089673406269920e-03
5.160000000000000142e+01,6.028273742857755135e-03
5.164000000000000057e+01,6.446410234693771869e-03
5.167999999999999972e+01,7.095202517783650263e-03
5.171999999999999886e+01,3.993121541546931948e-03
5.175999999999999801e+01,3.833752506806175752e-03
5.179999999999999716e+01,2.981786284648050515e-03
5.184000000000000341e+01,5.534158663391687029e-03
5.188000000000000256e+01,7.220823991067324039e-03
5.192000000000000171e+01,5.791352825430124036e-03
5.196000000000000085e+01,6.265934079244904822e-03
5.200000000000000000e+01,5.586291826376859476e-03
5.203999999999999915e+01,7.503141933477981175e-03
5.207999999999999829e+01,4.976679375241510953e-03
5.211999999999999744e+01,6.373885640547850145e-03
5.215999999999999659e+01,7.828638319372175150e-03
5.220000000000000284e+01,5.763331603079012953e-03
5.224000000000000199e+01,5.428967685544605279e-03
5.228000000000000114e+01,4.402007163690527594e-03
5.232000000000000028e+01,9.491441878895051990e-03
5.235999999999999943e+01,6.790771692786776864e-03
5.239999999999999858e+01,5.244011297024607846e-03
5.243999999999999773e+01,3.408577733253653850e-03
5.247999999999999687e+01,6.708583156183686377e-03
5.252000000000000313e+01,6.892452814673042001e-03
5.256000000000000227e+01,5.691286365648778878e-03
5.260000000000000142e+01,4.663073505204477429e-03
5.264000000000000057e+01,6.173650413323639348e-03
5.267999999999999972e+01,4.394981790534439187e-03
5.271999999999999886e+01,6.828499321549409522e-03
5.275999999999999801e+01,5.684254817449697038e-03
5.279999999999999716e+01,5.116887386832325371e-03
5.284000000000000341e+01,4.953287117455150435e-03
5.288000000000000256e+01,5.943597221521774998e-03
5.292000000000000171e+01,5.895091577065230543e-03
5.296000000000000085e+01,6.423463200456886249e-03
5.300000000000000000e+01,8.625075225567466891e-03
5.303999999999999915e+01,6.094859150146605432e-03
5.307999999999999829e+01,5.757213456128311077e-03
5.311999999999999744e+01,5.419412021545576275e-03
5.315999999999999659e+01,7.908917588604767041e-03
5.320000000000000284e+01,7.051474936166907299e-03
5.324000000000000199e+01,5.328326884771236727e-03
5.328000000000000114e+01,4.182056489955588222e-03
5.332000000000000028e+01,5.978499931703470417e-03
5.335999999999999943e+01,5.120435191654454897e-03
5.339999999999999858e+01,7.089677744796200366e-03
5.343999999999999773e+01,7.500775298603273508e-03
5.347999999999999687e+01,7.276981026112783885e-03
5.352000000000000313e+01,4.802602008136301961e-03
5.356000000000000227e+01,6.367300203551448483e-03
5.360000000000000142e+01,5.566007110107812177e-03
5.364000000000000057e+01,5.514702071401044597e-03
5.367999999999999972e+01,7.655968142968969971e-03
5.371999999999999886e+01,6.796506548396193809e-03
5.375999999999999801e+01,6.109999951556148619e-03
5.379999999999999716e+01,4.557788636038937781e-03
5.384000000000000341e+01,7.160061514609389506e-03
5.388000000000000256e+01,4.164957508901551489e-03
5.392000000000000171e+01,6.940030762244242361e-03
5.396000000000000085e+01,5.329496954326565228e-03
5.400000000000000000e+01,3.026368631522652515e-03
5.403999999999999915e+01,5.166241347153041792e-03
5.407999999999999829e+01,5.978783122023773565e-03
5.411999999999999744e+01,7.829830136118338252e-03
5.415999999999999659e+01,5.987710175244163185e-03
5.420000000000000284e+01,7.607635002446655470e-03
5.424000000000000199e+01,6.399942756031183448e-03
5.428000000000000114e+01,7.961855551541075285e-03
5.432000000000000028e+01,6.349931448948810918e-03
5.435999999999999943e+01,9.296415414078364192e-03
5.439999999999999858e+01,7.049446368563810558e-03
5.443999999999999773e+01,7.976005801285501046e-03
5.447999999999999687e+01,9.825664269998604650e-03
5.452000000000000313e+01,8.616892724122660399e-03
5.456000000000000227e+01,8.388923631698921857e-03
5.460000000000000142e+01,4.640898059646223796e-03
5.464000000000000057e+01,6.720753941568481486e-03
5.467999999999999972e+01,9.088972579383108180e-03
5.471999999999999886e+01,6.609958516952576212e-03
5.475999999999999801e+01,6.265813556488726913e-03
5.479999999999999716e+01,6.152328177413833935e-03
5.484000000000000341e+01,5.807875866096541377e-03
5.488000000000000256e+01,6.098006475296157032e-03
5.492000000000000171e+01,6.676500131936997928e-03
5.496000000000000085e+01,5.812257276274930377e-03
5.500000000000000000e+01,4.370827761069241355e-03
5.503999999999999915e+01,9.795939950754641717e-03
5.507999999999999829e+01,6.853917340569018468e-03
5.511999999999999744e+01,7.316237315786147839e-03
5.515999999999999659e+01,5.354864576934234739e-03
5.520000000000000284e+01,7.605681004557989823e-03
5.524000000000000199e+01,5.297781965015007678e-03
5.528000000000000114e+01,6.221115744407144585e-03
5.532000000000000028e+01,5.470900167708219602e-03
5.535999999999999943e+01,9.567610474907266987e-03
5.539999999999999858e+01,5.874219573745640376e-03
5.543999999999999773e+01,6.508424771164272697e-03
5.547999999999999687e+01,9.219796624918282640e-03
5.552000000000000313e+01,4.371880697197459351e-03
5.556000000000000227e+01,4.255484255776304132e-03
5.560000000000000142e+01,7.254914381466328471e-03
5.564000000000000057e+01,6.791992611183622977e-03
5.567999999999999972e+01,8.175424459082281450e-03
5.571999999999999886e+01,4.192294939021939254e-03
5.575999999999999801e+01,5.575421671275024825e-03
5.579999999999999716e+01,5.573516231924044786e-03
5.584000000000000341e+01,5.744568317062547468e-03
5.588000000000000256e+01,7.877380903895465220e-03
5.592000000000000171e+01,8.048128262120207363e-03
5.596000000000000085e+01,7.064656924218200990e-03
5.600000000000000000e+01,6.773473187672252212e-03
5.603999999999999915e+01,5.558884133293922822e-03
5.607999999999999829e+01,7.171605627735238089e-03
5.611999999999999744e+01,4.456426005133692393e-03
5.615999999999999659e+01,7.511426362705315302e-03
5.620000000000000284e+01,6.353932340972763548e-03
5.624000000000000199e+01,7.446715859647195894e-03
5.628000000000000114e+01,6.519731266758850216e-03
5.632000000000000028e+01,8.246947553405435324e-03
5.635999999999999943e+01,7.261955982337964938e-03
5.639999999999999858e+01,7.142362459374869063e-03
5.643999999999999773e+01,6.503287346439122138e-03
5.647999999999999687e+01,8.229896706014950061e-03
5.652000000000000313e+01,4.070615786960604839e-03
5.656000000000000227e+01,8.682087988442608803e-03
5.660000000000000142e+01,8.215516492367373400e-03
5.664000000000000057e+01,9.595299780668900894e-03
5.667999999999999972e+01,3.877423258871228774e-03
5.671999999999999886e+01,5.372310404473731350e-03
5.675999999999999801e+01,6.347716348835409118e-03
5.679999999999999716e+01,9.054070631384025791e-03
5.684000000000000341e+01,6.278458265979271376e-03
5.688000000000000256e+01,5.868530859000838616e-03
5.692000000000000171e+01,7.708881818484474534e-03
5.696000000000000085e+01,6.202289126069771528e-03
5.700000000000000000e+01,6.484348335077279313e-03
5.703999999999999915e+01,7.170179807429934160e-03
5.707999999999999829e+01,6.528683983383583300e-03
5.711999999999999744e+01,6.348663840143206789e-03
5.715999999999999659e+01,7.322559269634538841e-03
5.720000000000000284e+01,8.700227156836914597e-03
5.724000000000000199e+01,7.885018137838380181e-03
5.728000000000000114e+01,6.781141830399613733e-03
5.732000000000000028e+01,4.869268400611388194e-03
5.735999999999999943e+01,6.996476800404943450e-03
5.739999999999999858e+01,6.122962004473548291e-03
5.743999999999999773e+01,7.326616245859832698e-03
5.747999999999999687e+01,5.933470630649080417e-03
5.752000000000000313e+01,5.174911142992629810e-03
5.756000000000000227e+01,5.743377674816166518e-03
5.760000000000000142e+01,7.754276915266908321e-03
5.764000000000000057e+01,7.687706375987213465e-03
5.767999999999999972e+01,7.736392276127014404e-03
5.771999999999999886e+01,8.419664546778473507e-03
5.775999999999999801e+01,4.428817770970457438e-03
5.779999999999999716e+01,7.766142615088177624e-03
5.784000000000000341e+01,7.410304954652889228e-03
5.788000000000000256e+01,8.150680421318010418e-03
5.792000000000000171e+01,8.890905978395787293e-03
5.796000000000000085e+01,8.650025229754132808e-03
5.800000000000000000e+01,7.601148184818115952e-03
5.803999999999999915e+01,9.437287389961889969e-03
5.807999999999999829e+01,7.349451100990118078e-03
5.811999999999999744e+01,8.550554401226069870e-03
5.815999999999999659e+01,4.904429180083724922e-03
5.820000000000000284e+01,7.490112979502645818e-03
5.824000000000000199e+01,5.286271675004095526e-03
5.828000000000000114e+01,7.756249840747654438e-03
5.832000000000000028e+01,6.994692647258791106e-03
5.835999999999999943e+01,6.752315961189470951e-03
5.839999999999999858e+01,8.760219439466825422e-03
5.843999999999999773e+01,8.806060750398952280e-03
5.847999999999999687e+01,1.012122587813719075e-02
5.852000000000000313e+01,8.666482451823177488e-03
5.856000000000000227e+01,6.115226808106182313e-03
5.860000000000000142e+01,6.218174813638240907e-03
5.864000000000000057e+01,7.128820268119429558e-03
5.867999999999999972e+01,1.103988939069974404e-02
5.871999999999999886e+01,1.108468711690597033e-02
5.875999999999999801e+01,1.014837950922228491e-02
5.879999999999999716e+01,7.884746694573060294e-03
5.884000000000000341e+01,1.012182406961305119e-02
5.888000000000000256e+01,7.973300360144180976e-03
5.892000000000000171e+01,8.075057446711145573e-03
5.896000000000000085e+01,8.118962566791275773e-03
5.900000000000000000e+01,7.008652683696809868e-03
5.903999999999999915e+01,8.033217101856893194e-03
5.907999999999999829e+01,8.307489855970301082e-03
5.911999999999999744e+01,8.350800877129234065e-03
5.915999999999999659e+01,1.070209630615070497e-02
5.920000000000000284e+01,1.011037404634145334e-02
5.924000000000000199e+01,9.345393519629995732e-03
5.928000000000000114e+01,8.926484657108459814e-03
5.932000000000000028e+01,9.719197311536156847e-03
5.935999999999999943e+01,8.376738955388996974e-03
5.939999999999999858e+01,9.688485220320404434e-03
5.943999999999999773e+01,8.172620728525627209e-03
5.947999999999999687e+01,9.830290837493047343e-03
5.952000000000000313e+01,6.467624116358816622e-03
5.956000000000000227e+01,6.278492093169695150e-03
5.960000000000000142e+01,6.493135443180183229e-03
5.964000000000000057e+01,7.342367496093168099e-03
5.967999999999999972e+01,8.306858417999402749e-03
5.971999999999999886e+01,1.123311450638175314e-02
5.975999999999999801e+01,7.061714526208512713e-03
5.979999999999999716e+01,8.256575706087742467e-03
5.984000000000000341e+01,7.373969778767679867e-03
5.988000000000000256e+01,8.799349133956756858e-03
5.992000000000000171e+01,1.126324077413361907e-02
5.996000000000000085e+01,1.084181896899564894e-02
