2.003999999999999915e+01,4.848648601883059905e-02
2.007999999999999829e+01,3.373217493310013554e-02
2.012000000000000099e+01,4.693958956214611816e-02
2.016000000000000014e+01,3.621817062108574625e-02
2.019999999999999929e+01,6.181862647972864028e-02
2.023999999999999844e+01,4.619339831264256818e-02
2.028000000000000114e+01,5.391740789534853889e-02
2.032000000000000028e+01,3.569462398637692629e-02
2.035999999999999943e+01,3.707342937613151285e-02
2.039999999999999858e+01,5.863038743564733674e-02
2.044000000000000128e+01,3.521401776918986481e-02
2.048000000000000043e+01,4.148907343226697353e-02
2.051999999999999957e+01,1.518688296628334031e-02
2.055999999999999872e+01,5.691747986099784246e-02
2.060000000000000142e+01,4.762085659617632666e-02
2.064000000000000057e+01,3.688132847421728144e-02
2.067999999999999972e+01,6.563478398610192444e-02
2.071999999999999886e+01,4.566727123898378649e-02
2.076000000000000156e+01,4.357167826438136660e-02
2.080000000000000071e+01,4.983473715334334891e-02
2.083999999999999986e+01,3.937601173636737228e-02
2.087999999999999901e+01,3.352828973188957257e-02
2.092000000000000171e+01,2.652595484923920069e-02
2.096000000000000085e+01,2.355806475887398457e-02
2.100000000000000000e+01,4.249803645466271318e-02
2.103999999999999915e+01,3.866233299455833217e-02
2.107999999999999829e+01,5.212200018840044274e-02
2.112000000000000099e+01,2.118492836502094967e-02
2.116000000000000014e+01,4.242521850218455848e-02
2.119999999999999929e+01,4.463749143616519560e-02
2.123999999999999844e+01,4.194751254255070505e-02
2.128000000000000114e+01,3.666153055465985050e-02
2.132000000000000028e+01,5.241858034063998084e-02
2.135999999999999943e+01,3.790466440302386886e-02
2.139999999999999858e+01,2.137131190938103623e-02
2.144000000000000128e+01,3.510598453927582518e-02
2.148000000000000043e+01,4.249701037465018066e-02
2.151999999999999957e+01,4.037330116825844917e-02
2.155999999999999872e+01,2.527548777914083791e-02
2.160000000000000142e+01,1.968948150058922111e-02
2.164000000000000057e+01,4.062385664533102458e-02
2.167999999999999972e+01,6.934035670557019138e-02
2.171999999999999886e+01,3.578672609243550157e-02
2.176000000000000156e+01,4.172612187054183103e-02
2.180000000000000071e+01,4.333984977898333590e-02
2.183999999999999986e+01,2.880839475909710221e-02
2.187999999999999901e+01,4.339185870757356067e-02
2.192000000000000171e+01,6.604573796690491050e-02
2.196000000000000085e+01,3.017714767278691090e-02
2.200000000000000000e+01,5.599922208752427383e-02
2.203999999999999915e+01,2.589335815945222052e-02
2.207999999999999829e+01,4.364067920918256877e-02
2.212000000000000099e+01,4.063033411641422954e-02
2.216000000000000014e+01,5.693336869098680059e-02
2.219999999999999929e+01,5.737951548341119895e-02
2.223999999999999844e+01,5.119376467614010495e-02
2.228000000000000114e+01,5.596125236932855684e-02
2.232000000000000028e+01,2.699844162092899721e-02
2.235999999999999943e+01,4.819507408529466463e-02
2.239999999999999858e+01,8.553400588779182245e-02
2.244000000000000128e+01,7.617000378239742464e-02
2.248000000000000043e+01,4.114757459383372451e-02
2.251999999999999957e+01,3.206899988049627392e-02
2.255999999999999872e+01,4.259210156428647892e-02
2.260000000000000142e+01,2.659193823458765732e-02
2.264000000000000057e+01,4.085984753664555907e-02
2.267999999999999972e+01,5.714430347010500399e-02
2.271999999999999886e+01,7.400390315000406061e-02
2.276000000000000156e+01,3.608871656688082685e-02
2.280000000000000071e+01,6.217047351446976927e-02
2.283999999999999986e+01,3.318916647253714047e-02
2.287999999999999901e+01,6.359231182910937696e-02
2.292000000000000171e+01,5.478784551763889871e-02
2.296000000000000085e+01,5.751320641538005402e-02
2.300000000000000000e+01,7.090355342479814915e-02
2.303999999999999915e+01,5.719409105297989376e-02
2.307999999999999829e+01,6.798710085832047889e-02
2.312000000000000099e+01,6.609434913533424050e-02
2.316000000000000014e+01,5.728145534190599852e-02
2.319999999999999929e+01,7.008822953931992394e-02
2.323999999999999844e+01,5.838973031695871008e-02
2.328000000000000114e+01,8.733744123777173463e-02
2.332000000000000028e+01,6.295179253463398239e-02
2.335999999999999943e+01,7.315845837389291229e-02
2.339999999999999858e+01,6.693172215179515883e-02
2.344000000000000128e+01,7.598248376047755936e-02
2.348000000000000043e+01,7.724827328643489588e-02
2.351999999999999957e+01,9.119703576696164271e-02
2.355999999999999872e+01,5.642494242460385778e-02
2.360000000000000142e+01,9.804590271480258246e-02
2.364000000000000057e+01,6.701869617107744648e-02
2.367999999999999972e+01,7.317834488203260601e-02
2.371999999999999886e+01,8.884988463474097209e-02
2.376000000000000156e+01,9.788958696483082700e-02
2.380000000000000071e+01,6.282093727310276987e-02
2.383999999999999986e+01,9.751489016015496558e-02
2.387999999999999901e+01,9.588407832287883237e-02
2.392000000000000171e+01,1.086659406385287324e-01
2.396000000000000085e+01,1.246175238358693538e-01
2.400000000000000000e+01,1.126044929774070724e-01
2.403999999999999915e+01,1.573814323986359731e-01
2.407999999999999829e+01,1.623742442890063753e-01
2.412000000000000099e+01,1.503571208355238276e-01
2.416000000000000014e+01,1.812924895142872250e-01
2.419999999999999929e+01,1.620656232393135054e-01
2.423999999999999844e+01,1.921334319255061929e-01
2.428000000000000114e+01,2.017319408777082101e-01
2.432000000000000028e+01,1.894197472109575286e-01
2.435999999999999943e+01,1.883491552859600515e-01
2.439999999999999858e+01,1.777639423389221485e-01
2.444000000000000128e+01,1.464211550986088961e-01
2.448000000000000043e+01,1.943542652673518056e-01
2.451999999999999957e+01,1.607025357364006979e-01
2.455999999999999872e+01,1.362744496092419821e-01
2.460000000000000142e+01,1.481684124785899448e-01
2.464000000000000057e+01,1.303681012675678985e-01
2.467999999999999972e+01,1.082422362066069732e-01
2.471999999999999886e+01,1.074478184198514319e-01
2.476000000000000156e+01,1.178950182109222422e-01
2.480000000000000071e+01,1.006659165120498828e-01
2.483999999999999986e+01,1.105338847124828494e-01
2.487999999999999901e+01,8.926618386562053253e-02
2.492000000000000171e+01,8.327603944300820960e-02
2.496000000000000085e+01,7.728456566141650441e-02
2.500000000000000000e+01,7.244488767930833129e-02
2.503999999999999915e+01,7.423434406085530068e-02
2.507999999999999829e+01,8.236465549595030355e-02
2.512000000000000099e+01,8.040381262650865557e-02
2.516000000000000014e+01,6.633385078014031322e-02
2.519999999999999929e+01,6.754145644327302911e-02
2.523999999999999844e+01,7.336023813209989475e-02
2.528000000000000114e+01,5.813319788969108920e-02
2.532000000000000028e+01,5.241811203332720492e-02
2.535999999999999943e+01,3.632360048035659233e-02
2.539999999999999858e+01,4.271368669777107080e-02
2.544000000000000128e+01,7.533602388745901102e-02
2.548000000000000043e+01,7.739927757138878595e-02
2.551999999999999957e+01,7.571357244856065372e-02
2.555999999999999872e+01,3.539692196319994821e-02
2.560000000000000142e+01,6.859059535362135862e-02
2.564000000000000057e+01,6.113536029272755024e-02
2.567999999999999972e+01,4.589524024751035630e-02
2.571999999999999886e+01,7.158970783922664893e-02
2.576000000000000156e+01,5.115793474988519773e-02
2.580000000000000071e+01,3.879673058130690688e-02
2.583999999999999986e+01,4.546077087822756463e-02
2.587999999999999901e+01,4.491649589628906453e-02
2.592000000000000171e+01,5.964981692878315589e-02
2.596000000000000085e+01,5.823811814450195745e-02
2.600000000000000000e+01,4.788842346990040966e-02
2.603999999999999915e+01,6.002335190340074567e-02
2.607999999999999829e+01,6.322028761379533401e-02
2.612000000000000099e+01,2.403864851387856050e-02
2.616000000000000014e+01,3.934081647512886748e-02
2.619999999999999929e+01,3.359719892811149911e-02
2.623999999999999844e+01,3.534760593410971735e-02
2.628000000000000114e+01,5.035765695100925116e-02
2.632000000000000028e+01,6.767267960128853233e-02
2.635999999999999943e+01,6.250051860915974145e-02
2.639999999999999858e+01,4.550756862564449279e-02
2.644000000000000128e+01,5.762971814172403173e-02
2.648000000000000043e+01,6.484982328276538144e-02
2.651999999999999957e+01,5.015931290325571085e-02
2.655999999999999872e+01,5.305267102560663056e-02
2.660000000000000142e+01,4.181900092489612697e-02
2.664000000000000057e+01,5.220513500525576084e-02
2.667999999999999972e+01,3.462676113150153084e-02
2.671999999999999886e+01,5.538848644143817140e-02
2.676000000000000156e+01,3.665447121591944996e-02
2.680000000000000071e+01,7.326913107042619389e-02
2.683999999999999986e+01,5.136151457157484002e-02
2.687999999999999901e+01,1.849797076576624455e-02
2.692000000000000171e+01,3.665889338509670248e-02
2.696000000000000085e+01,2.743188092299213288e-02
2.700000000000000000e+01,3.434734991385927916e-02
2.703999999999999915e+01,4.443266172417943000e-02
2.707999999999999829e+01,4.500345861414850601e-02
2.712000000000000099e+01,2.452850641881759025e-02
2.716000000000000014e+01,3.893430010229113891e-02
2.719999999999999929e+01,3.863652752938526863e-02
2.723999999999999844e+01,3.949063943797174320e-02
2.728000000000000114e+01,2.592946915110733511e-02
2.732000000000000028e+01,2.245689421808073905e-02
2.735999999999999943e+01,4.896429788875866773e-02
2.739999999999999858e+01,2.848068312513688666e-02
2.744000000000000128e+01,2.932862332101709296e-02
2.748000000000000043e+01,2.354487336975805145e-02
2.751999999999999957e+01,5.033563640005787876e-02
2.755999999999999872e+01,5.348613972131310845e-02
2.760000000000000142e+01,5.548229462681521923e-02
2.764000000000000057e+01,5.113504661332140405e-02
2.767999999999999972e+01,2.228270096046301718e-02
2.771999999999999886e+01,5.050875217288165048e-02
2.776000000000000156e+01,2.799614758518538180e-02
2.780000000000000071e+01,2.479714595345944989e-02
2.783999999999999986e+01,3.687581634931677566e-02
2.787999999999999901e+01,3.338610472897709375e-02
2.792000000000000171e+01,2.787721468060101043e-02
2.796000000000000085e+01,4.283505749748019870e-02
2.800000000000000000e+01,3.357609623756727113e-02
2.803999999999999915e+01,4.824324173469110577e-02
2.807999999999999829e+01,5.454903547650181983e-02
2.812000000000000099e+01,4.730442295975666872e-02
2.816000000000000014e+01,4.322969760346928592e-02
2.819999999999999929e+01,2.906393988040738979e-02
2.823999999999999844e+01,3.132899359585716165e-02
2.828000000000000114e+01,5.031314122714009712e-02
2.832000000000000028e+01,3.989144136363893811e-02
2.835999999999999943e+01,2.053183904264821447e-02
2.839999999999999858e+01,1.299056019517598123e-02
2.844000000000000128e+01,4.321288683908079686e-02
2.848000000000000043e+01,3.711063087349714129e-02
2.851999999999999957e+01,3.763764704540369099e-02
2.855999999999999872e+01,2.029006097272630094e-02
2.860000000000000142e+01,3.753499689500207348e-02
2.864000000000000057e+01,5.650843451245371463e-02
2.867999999999999972e+01,3.425652224531713225e-02
2.871999999999999886e+01,4.919166476738082855e-02
2.876000000000000156e+01,4.423424670689965477e-02
2.880000000000000071e+01,2.342020215947548945e-02
2.883999999999999986e+01,5.276585736919919140e-02
2.887999999999999901e+01,3.454399095066531394e-02
2.892000000000000171e+01,1.920376088741394816e-02
2.896000000000000085e+01,3.586153902815653743e-02
2.900000000000000000e+01,4.098691200570106496e-02
2.903999999999999915e+01,2.621973548595194978e-02
2.907999999999999829e+01,4.950447068901060732e-02
2.912000000000000099e+01,5.145525509342041559e-02
2.916000000000000014e+01,4.590957318105617913e-02
2.919999999999999929e+01,6.515488663148218118e-02
2.923999999999999844e+01,3.942722074954150419e-02
2.928000000000000114e+01,4.137336233474454839e-02
2.932000000000000028e+01,2.256212282676324857e-02
2.935999999999999943e+01,4.122624433941300681e-02
2.939999999999999858e+01,4.749313384379607456e-02
2.944000000000000128e+01,3.703857951781138608e-02
2.948000000000000043e+01,9.574302051352175796e-03
2.951999999999999957e+01,2.563929070794519760e-02
2.955999999999999872e+01,3.478439067126509049e-02
2.960000000000000142e+01,4.940568195461667034e-02
2.964000000000000057e+01,2.510790850966635596e-02
2.967999999999999972e+01,3.915035143534741774e-02
2.971999999999999886e+01,3.733620429705336585e-02
2.976000000000000156e+01,1.880062599724994718e-02
2.980000000000000071e+01,4.235292043718037053e-02
2.983999999999999986e+01,5.869705637537457610e-02
2.987999999999999901e+01,2.920339563777735181e-02
2.992000000000000171e+01,2.478903966161554936e-02
2.996000000000000085e+01,2.959854087623206564e-02
3.000000000000000000e+01,6.150531627549608166e-02
3.003999999999999915e+01,5.189851473910610247e-02
3.007999999999999829e+01,5.353354140031369585e-02
3.012000000000000099e+01,4.767213975132228443e-02
3.016000000000000014e+01,4.440414265572598107e-02
3.019999999999999929e+01,5.699047280797150949e-02
3.023999999999999844e+01,3.728822254144441989e-02
3.028000000000000114e+01,3.228717911511821276e-02
3.032000000000000028e+01,2.584361406462161101e-02
3.035999999999999943e+01,2.920048382840405993e-02
3.039999999999999858e+01,3.457420585979747302e-02
3.044000000000000128e+01,4.974836587268460786e-02
3.048000000000000043e+01,5.886751629640817052e-02
3.051999999999999957e+01,3.944574900489095787e-02
3.055999999999999872e+01,5.749939024222402995e-02
3.060000000000000142e+01,6.834490306635969403e-02
3.064000000000000057e+01,6.160417688720483398e-02
3.067999999999999972e+01,5.140297708034804319e-02
3.071999999999999886e+01,5.446159706480283025e-02
3.076000000000000156e+01,5.434802748248415694e-02
3.080000000000000071e+01,3.318885450673739190e-02
3.083999999999999986e+01,6.218946046850357123e-02
3.087999999999999901e+01,6.553197190463382060e-02
3.092000000000000171e+01,6.541401921470595127e-02
3.096000000000000085e+01,3.387235729207856150e-02
3.100000000000000000e+01,5.364360421624906478e-02
3.103999999999999915e+01,4.746848205549889649e-02
3.107999999999999829e+01,5.426491304481218664e-02
3.112000000000000099e+01,4.001575330955583348e-02
3.116000000000000014e+01,3.844986899786354689e-02
3.119999999999999929e+01,4.927898079962880762e-02
3.123999999999999844e+01,3.617969769050724538e-02
3.128000000000000114e+01,6.055585161516734843e-02
3.132000000000000028e+01,5.927392843387181004e-02
3.135999999999999943e+01,5.510812033362624124e-02
3.139999999999999858e+01,5.584201302831325736e-02
3.144000000000000128e+01,7.704277636209087843e-02
3.148000000000000043e+01,6.451360390035286441e-02
3.151999999999999957e+01,7.533411418205912535e-02
3.155999999999999872e+01,9.307229784912440795e-02
3.160000000000000142e+01,6.410791025437043156e-02
3.164000000000000057e+01,7.550178288300271601e-02
3.167999999999999972e+01,8.141725521811833677e-02
3.171999999999999886e+01,1.060699239152922413e-01
3.176000000000000156e+01,9.785751058334332675e-02
3.180000000000000071e+01,1.095354203555229111e-01
3.183999999999999986e+01,1.243833629800320251e-01
3.187999999999999901e+01,1.109787226256626624e-01
3.192000000000000171e+01,1.289956458747997803e-01
3.196000000000000085e+01,1.349037193602515283e-01
3.200000000000000000e+01,1.287029446656252352e-01
3.203999999999999915e+01,1.366268847024931232e-01
3.207999999999999829e+01,1.168748114659469428e-01
3.211999999999999744e+01,1.213372874080962255e-01
3.215999999999999659e+01,1.257987190405804867e-01
3.220000000000000284e+01,1.002778950007612857e-01
3.224000000000000199e+01,1.139622313635823558e-01
3.228000000000000114e+01,8.959245019732527127e-02
3.232000000000000028e+01,9.549112489579215934e-02
3.235999999999999943e+01,8.870440387921882386e-02
3.239999999999999858e+01,1.095916138511588561e-01
3.243999999999999773e+01,5.754272448906798398e-02
3.247999999999999687e+01,4.729353307468619344e-02
3.252000000000000313e+01,6.356515382478425402e-02
3.256000000000000227e+01,7.522325180186770210e-02
3.260000000000000142e+01,6.756550301013518334e-02
3.264000000000000057e+01,6.826687482972847165e-02
3.267999999999999972e+01,6.925550382026562923e-02
3.271999999999999886e+01,5.554078509223100979e-02
3.275999999999999801e+01,5.277971976976919555e-02
3.279999999999999716e+01,3.243250095881118622e-02
3.284000000000000341e+01,6.339826384058688813e-02
3.288000000000000256e+01,6.784116869595006871e-02
3.292000000000000171e+01,4.143700370279951306e-02
3.296000000000000085e+01,5.913880281035697323e-02
3.300000000000000000e+01,5.175915311089341470e-02
3.303999999999999915e+01,1.095299759204672319e-01
3.307999999999999829e+01,9.580612920229640561e-02
3.311999999999999744e+01,7.833362456275515251e-02
3.315999999999999659e+01,5.365309286088382201e-02
3.320000000000000284e+01,5.693480471338596693e-02
3.324000000000000199e+01,5.127880730848927843e-02
3.328000000000000114e+01,3.812650669837060191e-02
3.332000000000000028e+01,3.506303898318530177e-02
3.335999999999999943e+01,4.987198987681593781e-02
3.339999999999999858e+01,3.729326064978726041e-02
3.343999999999999773e+01,3.624477353708346894e-02
3.347999999999999687e+01,6.344682195771804423e-02
3.352000000000000313e+01,5.605417266566762452e-02
3.356000000000000227e+01,4.231835482850191538e-02
3.360000000000000142e+01,4.818465046407947872e-02
3.364000000000000057e+01,2.810467994921100540e-02
3.367999999999999972e+01,5.068929757141264064e-02
3.371999999999999886e+01,6.433622493950302834e-02
3.375999999999999801e+01,2.695645315485994953e-02
3.379999999999999716e+01,4.838500430608720648e-02
3.384000000000000341e+01,5.453369029231940057e-02
3.388000000000000256e+01,5.578062487086423576e-02
3.392000000000000171e+01,2.646881008479182520e-02
3.396000000000000085e+01,3.088488681590954854e-02
3.400000000000000000e+01,2.780468884673673383e-02
3.403999999999999915e+01,3.337194780885919393e-02
3.407999999999999829e+01,2.971324987562236342e-02
3.411999999999999744e+01,2.807155148547562512e-02
3.415999999999999659e+01,2.787029243459847663e-02
3.420000000000000284e+01,1.527199140833110369e-02
3.424000000000000199e+01,9.879750762825961763e-03
3.428000000000000114e+01,2.783730212966887413e-02
3.432000000000000028e+01,1.783064801139261010e-02
3.435999999999999943e+01,3.348003622239027754e-02
3.439999999999999858e+01,2.058866032805569540e-02
3.443999999999999773e+01,2.297521775650903514e-02
3.447999999999999687e+01,2.564910361823487944e-02
3.452000000000000313e+01,2.255642072884854119e-02
3.456000000000000227e+01,3.733620395649724089e-02
3.460000000000000142e+01,2.905256797741429323e-02
3.464000000000000057e+01,4.267733379457561149e-02
3.467999999999999972e+01,3.756289697792832005e-02
3.471999999999999886e+01,2.754674200934714365e-02
3.475999999999999801e+01,2.992572409527339064e-02
3.479999999999999716e+01,2.913267655876357679e-02
3.484000000000000341e+01,3.439258958227012913e-02
3.488000000000000256e+01,3.330938631970232350e-02
3.492000000000000171e+01,1.752292243696439503e-02
3.496000000000000085e+01,3.142845714960457865e-02
3.500000000000000000e+01,3.437838602756993628e-02
3.503999999999999915e+01,5.231799108871895698e-02
3.507999999999999829e+01,4.027545449729033611e-02
3.511999999999999744e+01,8.340609116877718138e-03
3.515999999999999659e+01,2.397118566014170421e-02
3.520000000000000284e+01,2.201570373134770567e-02
3.524000000000000199e+01,4.975223148318284883e-02
3.528000000000000114e+01,3.280429992106779352e-02
3.532000000000000028e+01,0.000000000000000000e+00
3.535999999999999943e+01,1.908534332635374378e-02
3.539999999999999858e+01,2.865650112267532218e-02
3.543999999999999773e+01,4.053299161484179292e-02
3.547999999999999687e+01,4.174217616933503100e-02
3.552000000000000313e+01,2.824812385776775264e-02
3.556000000000000227e+01,3.377970082827359832e-02
3.560000000000000142e+01,1.480649371366085480e-02
3.564000000000000057e+01,2.639015479689204788e-02
3.567999999999999972e+01,1.721668658049988615e-02
3.571999999999999886e+01,2.476260683089901923e-02
3.575999999999999801e+01,3.144278261514860812e-02
3.579999999999999716e+01,2.169004725630530733e-02
3.584000000000000341e+01,1.943171651623032750e-02
3.588000000000000256e+01,4.081152202650942251e-02
3.592000000000000171e+01,2.269594964740534460e-02
3.596000000000000085e+01,2.533570774873098591e-02
3.600000000000000000e+01,1.759646139299220549e-02
3.603999999999999915e+01,2.455864991690563659e-02
3.607999999999999829e+01,3.209651111209758934e-02
3.611999999999999744e+01,3.300302421932778396e-02
3.615999999999999659e+01,4.025083103932901307e-02
3.620000000000000284e+01,3.538995595801897043e-02
3.624000000000000199e+01,3.110475988241652098e-02
3.628000000000000114e+01,4.094444640068239938e-02
3.632000000000000028e+01,4.040514113074237385e-02
3.635999999999999943e+01,2.862200297506182003e-02
3.639999999999999858e+01,3.067547127035762100e-02
3.643999999999999773e+01,3.099837933968642087e-02
3.647999999999999687e+01,2.267198731752186752e-02
3.652000000000000313e+01,3.884859956456984675e-02
3.656000000000000227e+01,3.455639824506911290e-02
3.660000000000000142e+01,4.092972146372827330e-02
3.664000000000000057e+01,4.268968343731790321e-02
3.667999999999999972e+01,5.367376864771261635e-02
3.671999999999999886e+01,3.352265355857333290e-02
3.675999999999999801e+01,3.037924900372911130e-02
3.679999999999999716e+01,1.397406272682736456e-02
3.684000000000000341e+01,4.253983684168376189e-02
3.688000000000000256e+01,4.660087754685520584e-02
3.692000000000000171e+01,3.999466932421631010e-02
3.696000000000000085e+01,3.540557308078599169e-02
3.700000000000000000e+01,4.753591597958053278e-02
3.703999999999999915e+01,4.294511593339470773e-02
3.707999999999999829e+01,4.901985942865636631e-02
3.711999999999999744e+01,5.249922693813349750e-02
3.715999999999999659e+01,3.435668106031573160e-02
3.720000000000000284e+01,4.850075050331010412e-02
3.724000000000000199e+01,2.257293252853462273e-02
3.728000000000000114e+01,4.882311470804497067e-02
3.732000000000000028e+01,3.903734514899456776e-02
3.735999999999999943e+01,5.548429847719364705e-02
3.739999999999999858e+01,5.549840400659186018e-02
3.743999999999999773e+01,5.752964051848637878e-02
3.747999999999999687e+01,6.388425674619564731e-02
3.752000000000000313e+01,5.322946813849813857e-02
3.756000000000000227e+01,4.488009615783276202e-02
3.760000000000000142e+01,5.555643422321294989e-02
3.764000000000000057e+01,4.922337220400838792e-02
3.767999999999999972e+01,6.422227054777533695e-02
3.771999999999999886e+01,2.675322204736226006e-02
3.775999999999999801e+01,6.827231581991546894e-02
3.779999999999999716e+01,6.251252200235349332e-02
3.784000000000000341e+01,6.078784125935809274e-02
3.788000000000000256e+01,7.434123002937871594e-02
3.792000000000000171e+01,9.135317325375270914e-02
3.796000000000000085e+01,1.020221221298146935e-01
3.800000000000000000e+01,1.207621229268671936e-01
3.803999999999999915e+01,1.325825707553943689e-01
3.807999999999999829e+01,1.395014334550010171e-01
3.811999999999999744e+01,1.697702401932567884e-01
3.815999999999999659e+01,1.763992068784029366e-01
3.820000000000000284e+01,2.127203004311186973e-01
3.824000000000000199e+01,2.164648493928084116e-01
3.828000000000000114e+01,2.340460792350177732e-01
3.832000000000000028e+01,3.012108223618777947e-01
3.835999999999999943e+01,3.112951496828521569e-01
3.839999999999999858e+01,3.392520951471626467e-01
3.843999999999999773e+01,3.868113457006998046e-01
3.847999999999999687e+01,4.363877684105231247e-01
3.852000000000000313e+01,4.346493995231679452e-01
3.856000000000000227e+01,4.389641384713082739e-01
3.860000000000000142e+01,4.081078190374631265e-01
3.864000000000000057e+01,3.933944418863143389e-01
3.867999999999999972e+01,3.714732562106434766e-01
3.871999999999999886e+01,3.322544323140710909e-01
3.875999999999999801e+01,3.279168135424206931e-01
3.879999999999999716e+01,2.719761333651289914e-01
3.884000000000000341e+01,2.618713354411022487e-01
3.888000000000000256e+01,2.387931190363117295e-01
3.892000000000000171e+01,2.139844405892068757e-01
3.896000000000000085e+01,2.004179419005206741e-01
3.900000000000000000e+01,1.614819510521947610e-01
3.903999999999999915e+01,1.493553113900527030e-01
3.907999999999999829e+01,1.700919232656938895e-01
3.911999999999999744e+01,1.317301831679906776e-01
3.915999999999999659e+01,1.403574615672664727e-01
3.920000000000000284e+01,1.501370979466180866e-01
3.924000000000000199e+01,1.287816337936957822e-01
3.928000000000000114e+01,1.218394518989034253e-01
3.932000000000000028e+01,1.408417895944044096e-01
3.935999999999999943e+01,1.278441888273117166e-01
3.939999999999999858e+01,1.324309649000237343e-01
3.943999999999999773e+01,1.266388727058992691e-01
3.947999999999999687e+01,1.525569243107753603e-01
3.952000000000000313e+01,1.199532015658080486e-01
3.956000000000000227e+01,1.432752208590236942e-01
3.960000000000000142e+01,1.467051087272732701e-01
3.964000000000000057e+01,1.345670801598727873e-01
3.967999999999999972e+01,1.593282593963595006e-01
3.971999999999999886e+01,1.417114022490177927e-01
3.975999999999999801e+01,1.382195654693798292e-01
3.979999999999999716e+01,1.543300876216168460e-01
3.984000000000000341e+01,1.785117345407802314e-01
3.988000000000000256e+01,1.911614070379318575e-01
3.992000000000000171e+01,2.064048704886603247e-01
3.996000000000000085e+01,2.285663398822813663e-01
4.000000000000000000e+01,2.279528847498704380e-01
4.003999999999999915e+01,2.414644610704142491e-01
4.007999999999999829e+01,2.610292054035309173e-01
4.011999999999999744e+01,3.166283322790734989e-01
4.015999999999999659e+01,3.583892486681442002e-01
4.020000000000000284e+01,4.243650341245855939e-01
4.024000000000000199e+01,4.597823204263633556e-01
4.028000000000000114e+01,5.424769504598383474e-01
4.032000000000000028e+01,6.522692632486447595e-01
4.035999999999999943e+01,7.182421605227703454e-01
4.039999999999999858e+01,8.147721144440086549e-01
4.043999999999999773e+01,8.974638689640264122e-01
4.047999999999999687e+01,9.807314703521257115e-01
4.052000000000000313e+01,1.000000000000000000e+00
4.056000000000000227e+01,9.480624371484089874e-01
4.060000000000000142e+01,9.454201969533709837e-01
4.064000000000000057e+01,8.865624738992055054e-01
4.067999999999999972e+01,7.766783256563694060e-01
4.071999999999999886e+01,6.927387524300824273e-01
4.075999999999999801e+01,5.759344534863155562e-01
4.079999999999999716e+01,5.098668895857076944e-01
4.084000000000000341e+01,4.400509733999388717e-01
4.088000000000000256e+01,3.734054479617497369e-01
4.092000000000000171e+01,3.329927863518599707e-01
4.096000000000000085e+01,2.709583617973690961e-01
4.100000000000000000e+01,2.527419387549401653e-01
4.103999999999999915e+01,2.088678234231299558e-01
4.107999999999999829e+01,1.854609603797703066e-01
4.111999999999999744e+01,1.721432390347679975e-01
4.115999999999999659e+01,1.542123353923212925e-01
4.120000000000000284e+01,1.613611830885693377e-01
4.124000000000000199e+01,1.287265826214915865e-01
4.128000000000000114e+01,1.321264106214515288e-01
4.132000000000000028e+01,1.225529167406931436e-01
4.135999999999999943e+01,1.066365631182433493e-01
4.139999999999999858e+01,1.155116878588110935e-01
4.143999999999999773e+01,1.082424056386294270e-01
4.147999999999999687e+01,9.664823468357579273e-02
4.152000000000000313e+01,9.456665947552456153e-02
4.156000000000000227e+01,7.691724384497367062e-02
4.160000000000000142e+01,8.463587628290455966e-02
4.164000000000000057e+01,5.689528979929123903e-02
4.167999999999999972e+01,6.461258583136070266e-02
4.171999999999999886e+01,5.387923883822082205e-02
4.175999999999999801e+01,4.285694670745451851e-02
4.179999999999999716e+01,4.423007034608090332e-02
4.184000000000000341e+01,5.915173491256282834e-02
4.188000000000000256e+01,5.129854938255604818e-02
4.192000000000000171e+01,5.266969454191083172e-02
4.196000000000000085e+01,5.634643052510103500e-02
4.200000000000000000e+01,3.897800652490764073e-02
4.203999999999999915e+01,6.225653537971315155e-02
4.207999999999999829e+01,4.488680664580450841e-02
4.211999999999999744e+01,5.778592176040889261e-02
4.215999999999999659e+01,3.637896211521950834e-02
4.220000000000000284e+01,4.408772591090207027e-02
4.224000000000000199e+01,6.736301272651057381e-02
4.228000000000000114e+01,4.307130842230777468e-02
4.232000000000000028e+01,4.270627622294857761e-02
4.235999999999999943e+01,4.810622140806460750e-02
4.239999999999999858e+01,4.514538176928185875e-02
4.243999999999999773e+01,3.295891620906595681e-02
4.247999999999999687e+01,6.545535343552381924e-02
4.252000000000000313e+01,3.827701150783040240e-02
4.256000000000000227e+01,3.992612637976062501e-02
4.260000000000000142e+01,5.137616064980463082e-02
4.264000000000000057e+01,5.533026227873533154e-02
4.267999999999999972e+01,3.103220850275918707e-02
4.271999999999999886e+01,2.460694389970772764e-02
4.275999999999999801e+01,5.709897529430321000e-02
4.279999999999999716e+01,4.260059794341006928e-02
4.284000000000000341e+01,4.280392468541068668e-02
4.288000000000000256e+01,3.897069901250874158e-02
4.292000000000000171e+01,4.522668630029264697e-02
4.296000000000000085e+01,6.503125885693658570e-02
4.300000000000000000e+01,3.553918343641732785e-02
4.303999999999999915e+01,3.429802203138161698e-02
4.307999999999999829e+01,4.228123724031934705e-02
4.311999999999999744e+01,1.653497748346634960e-02
4.315999999999999659e+01,3.374196207232797728e-02
4.320000000000000284e+01,3.711085652887276265e-02
4.324000000000000199e+01,5.172210018981739793e-02
4.328000000000000114e+01,4.471167275538452668e-02
4.332000000000000028e+01,2.530456440802612839e-02
4.335999999999999943e+01,2.492339414616506071e-02
4.339999999999999858e+01,3.059552333628286908e-02
4.343999999999999773e+01,4.376235803055638501e-02
4.347999999999999687e+01,5.231610227660896811e-02
4.352000000000000313e+01,6.058097106375659457e-02
4.356000000000000227e+01,4.837730341563335756e-02
4.360000000000000142e+01,5.087536994894261561e-02
4.364000000000000057e+01,4.241817270675427715e-02
4.367999999999999972e+01,6.682440911718891263e-02
4.371999999999999886e+01,6.240196950907879458e-02
4.375999999999999801e+01,3.606959691516477273e-02
4.379999999999999716e+01,5.240221311096815437e-02
4.384000000000000341e+01,5.345536004360212923e-02
4.388000000000000256e+01,3.865247750924605957e-02
4.392000000000000171e+01,7.718098158284371346e-02
4.396000000000000085e+01,6.381834764242824698e-02
4.400000000000000000e+01,5.160826171496496473e-02
4.403999999999999915e+01,6.591944403088428883e-02
4.407999999999999829e+01,8.023005395211485480e-02
4.411999999999999744e+01,6.945965530915437780e-02
4.415999999999999659e+01,5.551759760786657144e-02
4.420000000000000284e+01,8.020461202037473813e-02
4.424000000000000199e+01,8.557624049379171371e-02
4.428000000000000114e+01,8.835277644713128431e-02
4.432000000000000028e+01,7.037252516002479030e-02
4.435999999999999943e+01,9.534556572685194686e-02
4.439999999999999858e+01,1.030211929450144115e-01
4.443999999999999773e+01,1.055072059341035096e-01
4.447999999999999687e+01,1.074161005771489541e-01
4.452000000000000313e+01,1.136486536508943546e-01
4.456000000000000227e+01,1.172861252898133727e-01
4.460000000000000142e+01,1.379316178500586410e-01
4.464000000000000057e+01,1.479101671187028622e-01
4.467999999999999972e+01,1.578881677467678657e-01
4.471999999999999886e+01,1.678656213178606194e-01
4.475999999999999801e+01,1.712120688601689311e-01
4.479999999999999716e+01,1.817649948555672967e-01
4.484000000000000341e+01,1.626244464922837474e-01
4.488000000000000256e+01,1.685637951595667094e-01
4.492000000000000171e+01,1.569174701713661468e-01
4.496000000000000085e+01,1.380635852849897705e-01
4.500000000000000000e+01,1.445778830737158294e-01
4.503999999999999915e+01,1.551275789863229559e-01
4.507999999999999829e+01,1.469384840030200923e-01
4.511999999999999744e+01,1.491269699725185915e-01
4.515999999999999659e+01,1.400719714498832591e-01
4.520000000000000284e+01,1.486015793901113990e-01
4.524000000000000199e+01,1.349330320442921338e-01
4.528000000000000114e+01,1.278944203674226565e-01
4.532000000000000028e+01,1.444943186722306705e-01
4.535999999999999943e+01,1.452382461035188477e-01
4.539999999999999858e+01,1.370449456940281974e-01
4.543999999999999773e+01,1.369229917564861176e-01
4.547999999999999687e+01,1.376653635316524571e-01
4.552000000000000313e+01,1.502267365642627750e-01
4.556000000000000227e+01,1.659586856265072574e-01
4.560000000000000142e+01,1.583393700803143178e-01
4.564000000000000057e+01,1.749351389720850969e-01
4.567999999999999972e+01,1.918186797071728400e-01
4.571999999999999886e+01,2.046657804634766098e-01
4.575999999999999801e+01,2.264490830417289768e-01
4.579999999999999716e+01,2.162327021181635056e-01
4.584000000000000341e+01,2.109165936717666834e-01
4.588000000000000256e+01,2.203023096724186503e-01
4.592000000000000171e+01,2.296875261243175592e-01
4.596000000000000085e+01,2.050550991528303502e-01
4.600000000000000000e+01,1.893588835049357100e-01
4.603999999999999915e+01,1.673199933974041376e-01
4.607999999999999829e+01,1.816040026835004928e-01
4.611999999999999744e+01,1.785906667160462591e-01
4.615999999999999659e+01,1.441542232866674933e-01
4.620000000000000284e+01,1.322032011034712795e-01
4.624000000000000199e+01,1.323594895763642865e-01
4.628000000000000114e+01,1.250199895164086361e-01
4.632000000000000028e+01,9.778862407751379160e-02
4.635999999999999943e+01,8.179973136438845049e-02
4.639999999999999858e+01,7.618847027949822437e-02
4.643999999999999773e+01,8.124312330016429662e-02
4.647999999999999687e+01,6.352310833918133059e-02
4.652000000000000313e+01,5.473932528868594161e-02
4.656000000000000227e+01,4.710819160201000499e-02
4.660000000000000142e+01,6.311561857244514517e-02
4.664000000000000057e+01,6.240228266365243498e-02
4.667999999999999972e+01,7.062518499977649133e-02
4.671999999999999886e+01,7.452340605358505343e-02
4.675999999999999801e+01,4.642198161215080332e-02
4.679999999999999716e+01,4.570677736414496123e-02
4.684000000000000341e+01,4.787391892749310457e-02
4.688000000000000256e+01,4.254529571210205474e-02
4.692000000000000171e+01,4.874744828669668600e-02
4.696000000000000085e+01,4.312962584405816147e-02
4.700000000000000000e+01,2.482698728665216556e-02
4.703999999999999915e+01,4.227072434202146928e-02
4.707999999999999829e+01,3.549841270128181042e-02
4.711999999999999744e+01,5.034671604855084359e-02
4.715999999999999659e+01,3.636647956750311411e-02
4.720000000000000284e+01,5.813262503365984601e-02
4.724000000000000199e+01,4.126868345244179975e-02
4.728000000000000114e+01,4.083630710681137449e-02
4.732000000000000028e+01,4.328629557582261422e-02
4.735999999999999943e+01,4.342959435623252457e-02
4.739999999999999858e+01,4.357245218135961939e-02
4.743999999999999773e+01,3.448988203596641683e-02
4.747999999999999687e+01,4.183888504419733256e-02
4.752000000000000313e+01,3.967418235540867699e-02
4.756000000000000227e+01,4.788715721946685405e-02
4.760000000000000142e+01,3.274894665545269312e-02
4.764000000000000057e+01,3.865480987891440484e-02
4.767999999999999972e+01,3.129932212150489390e-02
4.771999999999999886e+01,3.201527110166031698e-02
4.775999999999999801e+01,3.157766980414300484e-02
4.779999999999999716e+01,4.641853075425275005e-02
4.784000000000000341e+01,4.021446292764523089e-02
4.788000000000000256e+01,3.573965851132587107e-02
4.792000000000000171e+01,2.953474836433522821e-02
4.796000000000000085e+01,4.091455394911205912e-02
4.800000000000000000e+01,1.856507776818906372e-02
4.803999999999999915e+01,4.378153343249402418e-02
4.807999999999999829e+01,3.642183407316931104e-02
4.811999999999999744e+01,2.790859868863767787e-02
4.815999999999999659e+01,3.352071622934311990e-02
4.820000000000000284e+01,4.201523342405091149e-02
4.824000000000000199e+01,3.638357912724801690e-02
4.828000000000000114e+01,2.786870977738396468e-02
4.832000000000000028e+01,3.117295253747502659e-02
4.835999999999999943e+01,3.880100575456708195e-02
4.839999999999999858e+01,3.143805113343600688e-02
4.843999999999999773e+01,3.647077516050978296e-02
4.847999999999999687e+01,3.487264043427813071e-02
4.852000000000000313e+01,2.866161479434579246e-02
4.856000000000000227e+01,4.234157579000162597e-02
4.860000000000000142e+01,4.218366044032637041e-02
4.864000000000000057e+01,4.490816216433378416e-02
4.867999999999999972e+01,2.716433015480496441e-02
4.871999999999999886e+01,3.219430005243262977e-02
4.875999999999999801e+01,2.742233245115309817e-02
4.879999999999999716e+01,4.571245081795848736e-02
4.884000000000000341e+01,3.517409586795380155e-02
4.888000000000000256e+01,4.395017843496790144e-02
4.892000000000000171e+01,5.041963307406549522e-02
4.896000000000000085e+01,3.930357400201706097e-02
4.900000000000000000e+01,3.366447429954201598e-02
4.903999999999999915e+01,4.906950381079846352e-02
4.907999999999999829e+01,5.899682189771460888e-02
4.911999999999999744e+01,4.240192490278305026e-02
4.915999999999999659e+01,6.414801549523889423e-02
4.920000000000000284e+01,5.101174825535843144e-02
4.924000000000000199e+01,5.488368563525133220e-02
4.928000000000000114e+01,4.837714431570409174e-02
4.932000000000000028e+01,4.532960877859143478e-02
4.935999999999999943e+01,5.669575456864889285e-02
4.939999999999999858e+01,6.258420160322446246e-02
4.943999999999999773e+01,7.942696240761801252e-02
4.947999999999999687e+01,7.436001668205190207e-02
4.952000000000000313e+01,5.862632086497568396e-02
4.956000000000000227e+01,6.566646021080917162e-02
4.960000000000000142e+01,7.039999855005026064e-02
4.964000000000000057e+01,7.398006104116200410e-02
4.967999999999999972e+01,9.802771629629408734e-02
4.971999999999999886e+01,9.526489932997411758e-02
4.975999999999999801e+01,7.578144300579583992e-02
4.979999999999999716e+01,7.388277525932088197e-02
4.984000000000000341e+01,6.852439243304175864e-02
4.988000000000000256e+01,7.585002615854426200e-02
4.992000000000000171e+01,8.605812763316302016e-02
4.996000000000000085e+01,7.262685621882646048e-02
5.000000000000000000e+01,6.265461750824848075e-02
5.003999999999999915e+01,5.354688504161142504e-02
5.007999999999999829e+01,7.009581726191800588e-02
5.011999999999999744e+01,5.723976505342043275e-02
5.015999999999999659e+01,5.447321243853044809e-02
5.020000000000000284e+01,4.911180167744368802e-02
5.024000000000000199e+01,4.519146686576217681e-02
5.028000000000000114e+01,4.559501852423209628e-02
5.032000000000000028e+01,4.513340214961061858e-02
5.035999999999999943e+01,4.784255183749963614e-02
5.039999999999999858e+01,4.420919967894760411e-02
5.043999999999999773e+01,3.423334725756205926e-02
5.047999999999999687e+01,4.933761357176530415e-02
5.052000000000000313e+01,3.936112469894595400e-02
5.056000000000000227e+01,3.601478053124045065e-02
5.060000000000000142e+01,3.122671762826673830e-02
5.064000000000000057e+01,3.306880259762153690e-02
5.067999999999999972e+01,3.000980127435592601e-02
5.071999999999999886e+01,3.300438920320561409e-02
5.075999999999999801e+01,5.387208461004780458e-02
5.079999999999999716e+01,4.446997982826812051e-02
5.084000000000000341e+01,3.016679508829741771e-02
5.088000000000000256e+01,4.065546402627472772e-02
5.092000000000000171e+01,5.287351672869521069e-02
5.096000000000000085e+01,4.001083166377344263e-02
5.100000000000000000e+01,3.694939855449864974e-02
5.103999999999999915e+01,3.273454502334999239e-02
5.107999999999999829e+01,3.832094661506305761e-02
5.111999999999999744e+01,1.680865051786556777e-02
5.115999999999999659e+01,3.017805046385392195e-02
5.120000000000000284e+01,2.134953108128265567e-02
5.124000000000000199e+01,3.270038532970281908e-02
5.128000000000000114e+01,2.992518844076732382e-02
5.132000000000000028e+01,3.262704277062874331e-02
5.135999999999999943e+01,3.331064666633302279e-02
5.139999999999999858e+01,2.765178830577883634e-02
5.143999999999999773e+01,3.179419932055208703e-02
5.147999999999999687e+01,3.968398252626814671e-02
5.152000000000000313e+01,4.728520699453953730e-02
5.156000000000000227e+01,2.865259387472256919e-02
5.160000000000000142e+01,4.691966047376904675e-02
5.164000000000000057e+01,3.866461175822769047e-02
5.167999999999999972e+01,3.502178583280733670e-02
5.171999999999999886e+01,3.195525176912068777e-02
5.175999999999999801e+01,3.465406723762518015e-02
5.179999999999999716e+01,4.542448097163939713e-02
5.184000000000000341e+01,5.014073076278949270e-02
5.188000000000000256e+01,4.909109908839654618e-02
5.192000000000000171e+01,3.478028429550646117e-02
5.196000000000000085e+01,4.497308504424768483e-02
5.200000000000000000e+01,4.594063835370112286e-02
5.203999999999999915e+01,4.806105798117436823e-02
5.207999999999999829e+01,4.153279512400206985e-02
5.211999999999999744e+01,5.777846878060702990e-02
5.215999999999999659e+01,5.528563183979443713e-02
5.220000000000000284e+01,5.567535291371435852e-02
5.224000000000000199e+01,5.923591447968804685e-02
5.228000000000000114e+01,7.057981242074513883e-02
5.232000000000000028e+01,6.952738576051983865e-02
5.235999999999999943e+01,7.597001774887862657e-02
5.239999999999999858e+01,8.846630550085944622e-02
5.243999999999999773e+01,9.000767787094919592e-02
5.247999999999999687e+01,9.212537219131136657e-02
5.252000000000000313e+01,9.222486200212819119e-02
5.256000000000000227e+01,8.309912654415922695e-02
5.260000000000000142e+01,1.019364026901052878e-01
5.264000000000000057e+01,8.502661451280144056e-02
5.267999999999999972e+01,8.051267284607634134e-02
5.271999999999999886e+01,7.628678173755359948e-02
5.275999999999999801e+01,7.321378545198214960e-02
5.279999999999999716e+01,7.100540467925553489e-02
5.284000000000000341e+01,6.389602312870279466e-02
5.288000000000000256e+01,5.966922651420669688e-02
5.292000000000000171e+01,4.535237620224902982e-02
5.296000000000000085e+01,5.265637208496615901e-02
5.300000000000000000e+01,4.929375565000847226e-02
5.303999999999999915e+01,4.391295529240032969e-02
5.307999999999999829e+01,4.862177013173279994e-02
5.311999999999999744e+01,5.015928064077383730e-02
5.315999999999999659e+01,3.814737622943022849e-02
5.320000000000000284e+01,4.083758606527162355e-02
5.324000000000000199e+01,3.862681095936001258e-02
5.328000000000000114e+01,3.641582768843908829e-02
5.332000000000000028e+01,3.910541302925251567e-02
5.335999999999999943e+01,3.920026532884595544e-02
5.339999999999999858e+01,4.044803778910754932e-02
5.343999999999999773e+01,3.708311411936663499e-02
5.347999999999999687e+01,3.458283288379453840e-02
5.352000000000000313e+01,3.092922941000125422e-02
5.356000000000000227e+01,3.650041745529468418e-02
5.360000000000000142e+01,3.544094944901735045e-02
5.364000000000000057e+01,2.256177088792643906e-02
5.367999999999999972e+01,2.236675932131083899e-02
5.371999999999999886e+01,3.514419722649187589e-02
5.375999999999999801e+01,2.889490698483365011e-02
5.379999999999999716e+01,2.610479988962775832e-02
5.384000000000000341e+01,2.821528199305114309e-02
5.388000000000000256e+01,3.205526504785802255e-02
5.392000000000000171e+01,2.782320025138313932e-02
5.396000000000000085e+01,3.512218995977918479e-02
5.400000000000000000e+01,2.541242727897706846e-02
5.403999999999999915e+01,3.357590193196625938e-02
5.407999999999999829e+01,4.260404277323379812e-02
5.411999999999999744e+01,3.894764938183369746e-02
5.415999999999999659e+01,3.010202657793469364e-02
5.420000000000000284e+01,2.558044543770272503e-02
5.424000000000000199e+01,3.633758150587359376e-02
5.428000000000000114e+01,4.075236933751165413e-02
5.432000000000000028e+01,4.199590034707738340e-02
5.435999999999999943e+01,2.536585053876903167e-02
5.439999999999999858e+01,3.842856895898763558e-02
5.443999999999999773e+01,4.860831620166958245e-02
5.447999999999999687e+01,3.860824022758815866e-02
5.452000000000000313e+01,3.004940964889333405e-02
5.456000000000000227e+01,2.812088213604245490e-02
5.460000000000000142e+01,3.743515357206537997e-02
5.464000000000000057e+01,4.156021459887708491e-02
5.467999999999999972e+01,3.530701071323446433e-02
5.471999999999999886e+01,3.741380159014855156e-02
5.475999999999999801e+01,3.923216200180965757e-02
5.479999999999999716e+01,4.191521710668045381e-02
5.484000000000000341e+01,4.056219329523209904e-02
5.488000000000000256e+01,3.315512589507457752e-02
5.492000000000000171e+01,3.381978028179630225e-02
5.496000000000000085e+01,3.361945033387366000e-02
5.500000000000000000e+01,3.601350835948081280e-02
5.503999999999999915e+01,3.638946164280262158e-02
5.507999999999999829e+01,2.062154797546505991e-02
5.511999999999999744e+01,3.137534121073313337e-02
5.515999999999999659e+01,3.175088853683459555e-02
5.520000000000000284e+01,4.509894392820273934e-02
5.524000000000000199e+01,4.028517244734353825e-02
5.528000000000000114e+01,4.498454147439891193e-02
5.532000000000000028e+01,3.642286198957776083e-02
5.535999999999999943e+01,4.919384282215573390e-02
5.539999999999999858e+01,3.515457630551850621e-02
5.543999999999999773e+01,3.668235539921702038e-02
5.547999999999999687e+01,2.696705857146555405e-02
5.552000000000000313e+01,2.964772069041144223e-02
5.556000000000000227e+01,3.607591652824501671e-02
5.560000000000000142e+01,2.895479404573928633e-02
5.564000000000000057e+01,4.547259011559499214e-02
5.567999999999999972e+01,4.469341941404551821e-02
5.571999999999999886e+01,4.074304731667902080e-02
5.575999999999999801e+01,4.313474489966182684e-02
5.579999999999999716e+01,4.264352514775626712e-02
5.584000000000000341e+01,3.926938964456976738e-02
5.588000000000000256e+01,4.079592410398482499e-02
5.592000000000000171e+01,3.655673704219439268e-02
5.596000000000000085e+01,3.491197596050912844e-02
5.600000000000000000e+01,3.240227171796920824e-02
5.603999999999999915e+01,3.306355841017673269e-02
5.607999999999999829e+01,3.113021974646107415e-02
5.611999999999999744e+01,3.265615607842119184e-02
5.615999999999999659e+01,5.292025635650143139e-02
5.620000000000000284e+01,4.637414095751254267e-02
5.624000000000000199e+01,4.069277726159630654e-02
5.628000000000000114e+01,4.740740260091617919e-02
5.632000000000000028e+01,3.624852471911971241e-02
5.635999999999999943e+01,4.065672887062697638e-02
5.639999999999999858e+01,3.468673620479389985e-02
5.643999999999999773e+01,3.909477265262883972e-02
5.647999999999999687e+01,3.485430081262161361e-02
5.652000000000000313e+01,4.733404091520275470e-02
5.656000000000000227e+01,4.511137712916434700e-02
5.660000000000000142e+01,3.568161427467518576e-02
5.664000000000000057e+01,4.066582096388506734e-02
5.667999999999999972e+01,4.910932481927320070e-02
5.671999999999999886e+01,3.939106039590406505e-02
5.675999999999999801e+01,4.033911864877537390e-02
5.679999999999999716e+01,3.869258005065468603e-02
5.684000000000000341e+01,4.886549087084455373e-02
5.688000000000000256e+01,4.001179706556479837e-02
5.692000000000000171e+01,4.124787048352671071e-02
5.696000000000000085e+01,3.988935338492596155e-02
5.700000000000000000e+01,4.833232578306771027e-02
5.703999999999999915e+01,3.601901452788552199e-02
5.707999999999999829e+01,3.062438699952133719e-02
5.711999999999999744e+01,3.877890533700221326e-02
5.715999999999999659e+01,4.145603213881805804e-02
5.720000000000000284e+01,4.499794865028169943e-02
5.724000000000000199e+01,4.162107232472533197e-02
5.728000000000000114e+01,6.130661769200205363e-02
5.732000000000000028e+01,3.227264380095742208e-02
5.735999999999999943e+01,3.956201588079991810e-02
5.739999999999999858e+01,4.166228682033507741e-02
5.743999999999999773e+01,4.779844680201484480e-02
5.747999999999999687e+01,4.240332914889590604e-02
5.752000000000000313e+01,5.199877766626468528e-02
5.756000000000000227e+01,4.948638992862144925e-02
5.760000000000000142e+01,4.668568416184364772e-02
5.764000000000000057e+01,4.619118999296367017e-02
5.767999999999999972e+01,4.137244845016913031e-02
5.771999999999999886e+01,3.568883184163398198e-02
5.775999999999999801e+01,4.672547626751363814e-02
5.779999999999999716e+01,5.776209147600918498e-02
5.784000000000000341e+01,5.351979168389095487e-02
5.788000000000000256e+01,4.034075813647219205e-02
5.792000000000000171e+01,4.417027285161144456e-02
5.796000000000000085e+01,4.194586591580366092e-02
5.800000000000000000e+01,4.318080840521505703e-02
5.803999999999999915e+01,5.623524782115603415e-02
5.807999999999999829e+01,3.238971470958459248e-02
5.811999999999999744e+01,3.967850157058868538e-02
5.815999999999999659e+01,4.985008240381332001e-02
5.820000000000000284e+01,5.137322304430980840e-02
5.824000000000000199e+01,5.203150920596065487e-02
5.828000000000000114e+01,4.577104370438125902e-02
5.832000000000000028e+01,5.133008621458268195e-02
5.835999999999999943e+01,5.544771720933253795e-02
5.839999999999999858e+01,4.918723056710730401e-02
5.843999999999999773e+01,4.696267255720928957e-02
5.847999999999999687e+01,5.771075246837687606e-02
5.852000000000000313e+01,5.173853983168535953e-02
5.856000000000000227e+01,4.403664270386497409e-02
5.860000000000000142e+01,4.959566914164603019e-02
5.864000000000000057e+01,5.573126140522397659e-02
5.867999999999999972e+01,4.802937639251102231e-02
5.871999999999999886e+01,5.589466684593265983e-02
5.875999999999999801e+01,4.790451693428066093e-02
5.879999999999999716e+01,4.222062454513828000e-02
5.884000000000000341e+01,6.132890097179705818e-02
5.888000000000000256e+01,5.535675318535945161e-02
5.892000000000000171e+01,5.428539571567832234e-02
5.896000000000000085e+01,5.552030210293604218e-02
5.900000000000000000e+01,6.598021537987359963e-02
5.903999999999999915e+01,5.078314899071593308e-02
5.907999999999999829e+01,5.576576661958092263e-02
5.911999999999999744e+01,6.305465443981397855e-02
5.915999999999999659e+01,6.890216241674153308e-02
5.920000000000000284e+01,6.638955068483731736e-02
5.924000000000000199e+01,6.877774193854820084e-02
5.928000000000000114e+01,5.329254715808304232e-02
5.932000000000000028e+01,5.798704589728433112e-02
5.935999999999999943e+01,6.729407147920868359e-02
5.939999999999999858e+01,6.795270437662391527e-02
5.943999999999999773e+01,5.938638438570944394e-02
5.947999999999999687e+01,6.119821386261790203e-02
5.952000000000000313e+01,6.012727328011725769e-02
5.956000000000000227e+01,6.049777762752314714e-02
5.960000000000000142e+01,7.297612155585737892e-02
5.964000000000000057e+01,5.950922867849215564e-02
5.967999999999999972e+01,6.103298748640877819e-02
5.971999999999999886e+01,7.408802883864783195e-02
5.975999999999999801e+01,6.177439992343709829e-02
5.979999999999999716e+01,6.272174208204688017e-02
5.984000000000000341e+01,7.635349511065650518e-02
5.988000000000000256e+01,7.931890820204735848e-02
5.992000000000000171e+01,7.450079187696566352e-02
5.996000000000000085e+01,5.988118146302134903e-02
