2.003999999999999915e+01,1.307848761065454578e-02
2.007999999999999829e+01,1.364696606264844889e-02
2.012000000000000099e+01,1.170976528518301828e-02
2.016000000000000014e+01,1.046151304907278964e-02
2.019999999999999929e+01,1.572770715666020266e-02
2.023999999999999844e+01,1.216160563274663181e-02
2.028000000000000114e+01,1.611218640578966632e-02
2.032000000000000028e+01,6.595128861600563913e-03
2.035999999999999943e+01,1.511823349125512687e-02
2.039999999999999858e+01,1.599919748140605363e-02
2.044000000000000128e+01,1.086665453648089433e-02
2.048000000000000043e+01,1.913893095505422165e-02
2.051999999999999957e+01,1.281605270552713810e-02
2.055999999999999872e+01,1.112842679850783480e-02
2.060000000000000142e+01,1.269797833096248871e-02
2.064000000000000057e+01,1.245088640318583670e-02
2.067999999999999972e+01,1.138938709305098093e-02
2.071999999999999886e+01,8.511244073456736628e-03
2.076000000000000156e+01,7.888041792393080121e-03
2.080000000000000071e+01,1.077257537835495625e-02
2.083999999999999986e+01,1.265478179553614427e-02
2.087999999999999901e+01,6.957485840500649346e-03
2.092000000000000171e+01,1.266053547323487370e-02
2.096000000000000085e+01,1.278855488949861598e-02
2.100000000000000000e+01,1.279120331570181117e-02
2.103999999999999915e+01,1.204208300067583469e-02
2.107999999999999829e+01,1.104231192105032365e-02
2.112000000000000099e+01,9.290771850967615569e-03
2.116000000000000014e+01,8.353456732199830703e-03
2.119999999999999929e+01,9.921640031830020190e-03
2.123999999999999844e+01,1.280516613479068186e-02
2.128000000000000114e+01,1.274453105589730406e-02
2.132000000000000028e+01,8.988057518670549903e-03
2.135999999999999943e+01,6.359007122965758957e-03
2.139999999999999858e+01,9.868560756604700945e-03
2.144000000000000128e+01,8.554759830270070031e-03
2.148000000000000043e+01,1.438179888653818954e-02
2.151999999999999957e+01,6.052158497943069780e-03
2.155999999999999872e+01,1.306916675058620095e-02
2.160000000000000142e+01,1.256931015061536414e-02
2.164000000000000057e+01,1.250783843065835128e-02
2.167999999999999972e+01,1.194515502626939535e-02
2.171999999999999886e+01,9.440545271759151480e-03
2.176000000000000156e+01,1.545484940597321478e-02
2.180000000000000071e+01,1.783595334914085673e-02
2.183999999999999986e+01,1.270019169201031840e-02
2.187999999999999901e+01,1.006992633483902617e-02
2.192000000000000171e+01,1.320242481109631764e-02
2.196000000000000085e+01,8.880697075868703577e-03
2.200000000000000000e+01,8.755738858455366577e-03
2.203999999999999915e+01,1.000876071474710895e-02
2.207999999999999829e+01,1.345407943465073801e-02
2.212000000000000099e+01,7.190139989017260355e-03
2.216000000000000014e+01,8.756075796757816290e-03
2.219999999999999929e+01,1.201318999302452076e-02
2.223999999999999844e+01,1.307781716856563740e-02
2.228000000000000114e+01,7.565173812885858141e-03
2.232000000000000028e+01,1.213743666771999012e-02
2.235999999999999943e+01,1.019506850476061335e-02
2.239999999999999858e+01,1.213626980019788006e-02
2.244000000000000128e+01,6.247404812849061302e-03
2.248000000000000043e+01,6.183941676987702099e-03
2.251999999999999957e+01,1.037988620161352064e-02
2.255999999999999872e+01,1.300974033515586020e-02
2.260000000000000142e+01,1.137999415881654243e-02
2.264000000000000057e+01,7.870958528888520600e-03
2.267999999999999972e+01,9.686206026134082034e-03
2.271999999999999886e+01,1.018592168446184713e-02
2.276000000000000156e+01,1.250209351203013068e-02
2.280000000000000071e+01,1.231257776099900676e-02
2.283999999999999986e+01,1.481647460715662321e-02
2.287999999999999901e+01,1.544108125204123744e-02
2.292000000000000171e+01,9.300496083913960960e-03
2.296000000000000085e+01,9.799628186426408497e-03
2.300000000000000000e+01,8.043631137891105523e-03
2.303999999999999915e+01,9.732723215339666653e-03
2.307999999999999829e+01,1.361410904104903494e-02
2.312000000000000099e+01,1.674371964559930731e-02
2.316000000000000014e+01,6.593602373286916625e-03
2.319999999999999929e+01,9.033979076197521524e-03
2.323999999999999844e+01,1.172481638659396246e-02
2.328000000000000114e+01,9.529653642115562887e-03
2.332000000000000028e+01,1.065429962601187851e-02
2.335999999999999943e+01,8.333659846880536390e-03
2.339999999999999858e+01,1.171313952780280408e-02
2.344000000000000128e+01,9.830780079461401769e-03
2.348000000000000043e+01,8.136240728266153424e-03
2.351999999999999957e+01,1.082638544751799922e-02
2.355999999999999872e+01,1.032180283129381475e-02
2.360000000000000142e+01,1.138311471679352878e-02
2.364000000000000057e+01,8.310102577757392042e-03
2.367999999999999972e+01,7.742581131048787389e-03
2.371999999999999886e+01,1.381477458731318261e-02
2.376000000000000156e+01,1.074146263276385196e-02
2.380000000000000071e+01,1.067475909794349427e-02
2.383999999999999986e+01,6.786929728794354431e-03
2.387999999999999901e+01,9.726734052128373567e-03
2.392000000000000171e+01,1.097516422219071974e-02
2.396000000000000085e+01,8.026629608149508585e-03
2.400000000000000000e+01,5.140633945961033818e-03
2.403999999999999915e+01,6.952519547514341910e-03
2.407999999999999829e+01,1.145781388322115318e-02
2.412000000000000099e+01,1.182878269902365963e-02
2.416000000000000014e+01,1.495579976240700264e-02
2.419999999999999929e+01,1.031538482264203818e-02
2.423999999999999844e+01,1.688738583971517021e-02
2.428000000000000114e+01,1.525347626582377811e-02
2.432000000000000028e+01,1.311834678297381027e-02
2.435999999999999943e+01,9.918239402652196876e-03
2.439999999999999858e+01,7.845545693185566882e-03
2.444000000000000128e+01,8.403619833690624541e-03
2.448000000000000043e+01,5.516404721974896459e-03
2.451999999999999957e+01,7.139150090666174578e-03
2.455999999999999872e+01,1.320921605249499378e-02
2.460000000000000142e+01,6.062189414011169043e-03
2.464000000000000057e+01,1.488819944803907412e-02
2.467999999999999972e+01,7.866246600997462216e-03
2.471999999999999886e+01,5.855371712536273747e-03
2.476000000000000156e+01,8.103897506176033910e-03
2.480000000000000071e+01,2.006148320832659704e-02
2.483999999999999986e+01,1.003240879071775823e-02
2.487999999999999901e+01,6.830964950241115961e-03
2.492000000000000171e+01,9.329635834484551957e-03
2.496000000000000085e+01,8.069817157861517223e-03
2.500000000000000000e+01,1.138259722893244542e-02
2.503999999999999915e+01,1.068632843928709122e-02
2.507999999999999829e+01,7.296445680075753018e-03
2.512000000000000099e+01,8.854999870648912891e-03
2.516000000000000014e+01,1.435975468390541729e-02
2.519999999999999929e+01,4.893501673286223402e-03
2.523999999999999844e+01,6.013263877599702573e-03
2.528000000000000114e+01,5.692206742385897550e-03
2.532000000000000028e+01,1.201085952558353723e-02
2.535999999999999943e+01,7.367448796397906355e-03
2.539999999999999858e+01,7.421915094076716318e-03
2.544000000000000128e+01,7.538915857502894412e-03
2.548000000000000043e+01,1.423298627822886138e-02
2.551999999999999957e+01,1.259586271964418733e-02
2.555999999999999872e+01,1.052015515172117187e-02
2.560000000000000142e+01,7.066267010014073112e-03
2.564000000000000057e+01,1.094112517901591093e-02
2.567999999999999972e+01,2.225285009680626983e-03
2.571999999999999886e+01,1.004623601217693139e-02
2.576000000000000156e+01,1.078878754078732571e-02
2.580000000000000071e+01,8.023405942258206303e-03
2.583999999999999986e+01,1.120869525294806816e-02
2.587999999999999901e+01,1.282788382958920288e-02
2.592000000000000171e+01,8.370908636375363684e-03
2.596000000000000085e+01,8.361249674807695251e-03
2.600000000000000000e+01,1.198458990575128336e-02
2.603999999999999915e+01,1.028344314486318370e-02
2.607999999999999829e+01,7.893151704032442748e-03
2.612000000000000099e+01,9.261138607181704577e-03
2.616000000000000014e+01,7.810228650875055030e-03
2.619999999999999929e+01,4.166819337052899037e-03
2.623999999999999844e+01,3.655290366814208190e-03
2.628000000000000114e+01,1.040986595080442383e-02
2.632000000000000028e+01,3.320945949523848063e-03
2.635999999999999943e+01,4.563006218386748448e-03
2.639999999999999858e+01,5.992877487570930431e-03
2.644000000000000128e+01,4.415931737034558061e-03
2.648000000000000043e+01,7.912698224716276096e-03
2.651999999999999957e+01,1.153463557622170371e-02
2.655999999999999872e+01,9.456245739980207593e-03
2.660000000000000142e+01,5.498554113360085323e-03
2.664000000000000057e+01,7.554170666333579268e-03
2.667999999999999972e+01,1.155151070168257930e-02
2.671999999999999886e+01,5.463739664947266962e-03
2.676000000000000156e+01,9.523500769222958615e-03
2.680000000000000071e+01,1.207979803598242287e-02
2.683999999999999986e+01,5.866418872579851236e-03
2.687999999999999901e+01,7.858738834027307815e-03
2.692000000000000171e+01,1.223125986875419485e-02
2.696000000000000085e+01,8.460501726031337960e-03
2.700000000000000000e+01,1.189320613182928005e-02
2.703999999999999915e+01,5.992475620495895695e-03
2.707999999999999829e+01,1.581421512959597930e-02
2.712000000000000099e+01,1.241885418769898136e-02
2.716000000000000014e+01,8.647544014557521919e-03
2.719999999999999929e+01,9.135626922060567645e-03
2.723999999999999844e+01,6.178411978974143910e-03
2.728000000000000114e+01,9.547702034933975776e-03
2.732000000000000028e+01,8.970575889832679492e-03
2.735999999999999943e+01,3.006318877980912376e-03
2.739999999999999858e+01,6.876393200038276483e-03
2.744000000000000128e+01,8.178125725612257410e-03
2.748000000000000043e+01,6.974156092744226813e-03
2.751999999999999957e+01,7.022869936146971734e-03
2.755999999999999872e+01,5.380198286400431247e-03
2.760000000000000142e+01,9.876111350821474219e-03
2.764000000000000057e+01,3.472593562514431249e-03
2.767999999999999972e+01,9.346356979380696442e-03
2.771999999999999886e+01,7.828516002995887166e-03
2.776000000000000156e+01,1.182286161576796141e-02
2.780000000000000071e+01,6.295850655775680690e-03
2.783999999999999986e+01,1.260764206391240885e-02
2.787999999999999901e+01,2.006584656713872577e-03
2.792000000000000171e+01,5.248801773390599813e-03
2.796000000000000085e+01,6.361153812189543517e-03
2.800000000000000000e+01,7.034914240193727505e-03
2.803999999999999915e+01,4.827132189226639170e-03
2.807999999999999829e+01,7.317218815983374952e-03
2.812000000000000099e+01,5.359768648154615046e-03
2.816000000000000014e+01,8.100186908821598378e-03
2.819999999999999929e+01,8.460180293304739307e-03
2.823999999999999844e+01,6.878227015578148792e-03
2.828000000000000114e+01,5.671998169279321607e-03
2.832000000000000028e+01,5.467891256348704314e-03
2.835999999999999943e+01,9.460534047600050248e-03
2.839999999999999858e+01,9.193558459933954749e-03
2.844000000000000128e+01,9.177027279928567233e-03
2.848000000000000043e+01,8.847182519070830031e-03
2.851999999999999957e+01,7.702905951503128366e-03
2.855999999999999872e+01,9.439943449282820268e-03
2.860000000000000142e+01,8.107517435528356284e-03
2.864000000000000057e+01,8.340970222128782016e-03
2.867999999999999972e+01,7.634711178252213959e-03
2.871999999999999886e+01,4.234826824932065061e-03
2.876000000000000156e+01,1.110774790723184115e-02
2.880000000000000071e+01,8.647228589382575589e-03
2.883999999999999986e+01,6.750351246330872287e-03
2.887999999999999901e+01,9.363420800755837409e-03
2.892000000000000171e+01,7.466311305659062078e-03
2.896000000000000085e+01,9.765949645533674589e-03
2.900000000000000000e+01,8.056526787902026226e-03
2.903999999999999915e+01,5.908509079510585772e-03
2.907999999999999829e+01,6.140685715240424940e-03
2.912000000000000099e+01,1.232352304183799603e-02
2.916000000000000014e+01,8.797080270827466880e-03
2.919999999999999929e+01,6.773874792919849612e-03
2.923999999999999844e+01,1.170356583452501244e-02
2.928000000000000114e+01,8.114131895133453592e-03
2.932000000000000028e+01,9.535761583707712610e-03
2.935999999999999943e+01,8.702242307601897736e-03
2.939999999999999858e+01,9.810438040116916183e-03
2.944000000000000128e+01,3.464384258321675288e-03
2.948000000000000043e+01,1.146271824169770373e-02
2.951999999999999957e+01,8.248416702208565335e-03
2.955999999999999872e+01,8.040705638026694399e-03
2.960000000000000142e+01,4.325049608371577155e-03
2.964000000000000057e+01,8.063406953332413404e-03
2.967999999999999972e+01,1.267860246947318144e-02
2.971999999999999886e+01,8.774671633862812445e-03
2.976000000000000156e+01,3.743106315230013918e-03
2.980000000000000071e+01,4.724839331681744345e-03
2.983999999999999986e+01,6.458130495546349908e-03
2.987999999999999901e+01,1.232552686560397723e-02
2.992000000000000171e+01,4.036217621850011518e-03
2.996000000000000085e+01,7.898902954958231595e-03
3.000000000000000000e+01,6.687648010066590820e-03
3.003999999999999915e+01,8.044503706525624187e-03
3.007999999999999829e+01,4.891176739655790293e-03
3.012000000000000099e+01,5.746674705983812435e-03
3.016000000000000014e+01,2.279909047721232884e-03
3.019999999999999929e+01,6.956192408687940192e-03
3.023999999999999844e+01,8.500367386289425786e-03
3.028000000000000114e+01,8.353148396986982693e-03
3.032000000000000028e+01,0.000000000000000000e+00
3.035999999999999943e+01,1.037602001255674006e-02
3.039999999999999858e+01,9.977880099327577149e-03
3.044000000000000128e+01,4.693717825310458024e-03
3.048000000000000043e+01,7.740522986190732924e-03
3.051999999999999957e+01,6.652982688920364325e-03
3.055999999999999872e+01,7.381874261152795644e-03
3.060000000000000142e+01,7.045768496123418385e-03
3.064000000000000057e+01,8.400814826057837956e-03
3.067999999999999972e+01,5.308316386108223942e-03
3.071999999999999886e+01,7.602715788565740825e-03
3.076000000000000156e+01,5.386930409255689944e-03
3.080000000000000071e+01,1.319338505962779073e-02
3.083999999999999986e+01,9.661920549560498728e-03
3.087999999999999901e+01,5.190737355244011246e-03
3.092000000000000171e+01,5.918532092298118587e-03
3.096000000000000085e+01,9.339714129890853977e-03
3.100000000000000000e+01,6.371517758368394277e-03
3.103999999999999915e+01,4.342795083803990645e-03
3.107999999999999829e+01,8.891124620573858175e-03
3.112000000000000099e+01,1.011942374450328259e-02
3.116000000000000014e+01,2.076914878710782106e-03
3.119999999999999929e+01,5.246800286913518366e-03
3.123999999999999844e+01,9.293519006348656061e-03
3.128000000000000114e+01,7.702535596235666679e-03
3.132000000000000028e+01,1.212484578587368945e-02
3.135999999999999943e+01,5.209235195089810186e-03
3.139999999999999858e+01,2.615644363131782325e-03
3.144000000000000128e+01,5.221029842561812281e-03
3.148000000000000043e+01,7.074614056498403948e-03
3.151999999999999957e+01,8.552235456260185928e-03
3.155999999999999872e+01,6.647185309771668285e-03
3.160000000000000142e+01,6.433284267510022865e-03
3.164000000000000057e+01,7.472053866273071707e-03
3.167999999999999972e+01,1.151740733579929322e-02
3.171999999999999886e+01,8.484342763947683511e-03
3.176000000000000156e+01,9.021619677530196696e-03
3.180000000000000071e+01,8.807094328706948499e-03
3.183999999999999986e+01,8.216605168796568825e-03
3.187999999999999901e+01,8.878785902226670260e-03
3.192000000000000171e+01,9.478201388618798934e-03
3.196000000000000085e+01,6.632304319964773751e-03
3.200000000000000000e+01,5.978673210640793323e-03
3.203999999999999915e+01,7.392028410721952249e-03
3.207999999999999829e+01,7.051344273611898951e-03
3.211999999999999744e+01,6.898453317015476940e-03
3.215999999999999659e+01,3.237609419647258149e-03
3.220000000000000284e+01,7.845087836117274963e-03
3.224000000000000199e+01,6.376382793714074383e-03
3.228000000000000114e+01,8.916495955350611097e-03
3.232000000000000028e+01,1.126856309849790655e-02
3.235999999999999943e+01,9.799477864525948240e-03
3.239999999999999858e+01,5.323557043341556501e-03
3.243999999999999773e+01,8.051081823168562690e-03
3.247999999999999687e+01,2.948509042085593022e-03
3.252000000000000313e+01,6.552735916516658210e-03
3.256000000000000227e+01,1.178546914178220037e-02
3.260000000000000142e+01,6.369315112800532329e-03
3.264000000000000057e+01,1.147651348249876559e-02
3.267999999999999972e+01,1.551870803500509516e-02
3.271999999999999886e+01,9.601052348632057795e-03
3.275999999999999801e+01,1.564746322817205104e-02
3.279999999999999716e+01,9.353712638697594950e-03
3.284000000000000341e+01,1.327011501155558187e-02
3.288000000000000256e+01,1.543247555494155210e-02
3.292000000000000171e+01,1.690567010938412787e-02
3.296000000000000085e+01,1.875457451541182388e-02
3.300000000000000000e+01,1.465257262021047238e-02
3.303999999999999915e+01,1.982112662443965070e-02
3.307999999999999829e+01,2.586650820765543091e-02
3.311999999999999744e+01,3.811309707095675292e-02
3.315999999999999659e+01,3.025219277444184118e-02
3.320000000000000284e+01,2.001084802498815512e-02
3.324000000000000199e+01,1.421679682742536290e-02
3.328000000000000114e+01,8.297336383291819065e-03
3.332000000000000028e+01,1.597057458951639183e-02
3.335999999999999943e+01,9.862935041054659430e-03
3.339999999999999858e+01,6.323395666364285683e-03
3.343999999999999773e+01,9.611460201401607686e-03
3.347999999999999687e+01,1.064436293651278669e-02
3.352000000000000313e+01,8.607786832562950088e-03
3.356000000000000227e+01,7.886515150819367603e-03
3.360000000000000142e+01,5.599118684517406450e-03
3.364000000000000057e+01,7.007337372100624386e-03
3.367999999999999972e+01,5.220797196855784389e-03
3.371999999999999886e+01,8.257387654066063176e-03
3.375999999999999801e+01,1.166968547058066727e-02
3.379999999999999716e+01,8.191478053753734404e-03
3.384000000000000341e+01,1.028807804740515183e-02
3.388000000000000256e+01,7.436005200805818026e-03
3.392000000000000171e+01,7.152030907995305005e-03
3.396000000000000085e+01,8.559198367183327646e-03
3.400000000000000000e+01,6.458407153353740507e-03
3.403999999999999915e+01,9.180745575066951228e-03
3.407999999999999829e+01,1.259198917244943455e-02
3.411999999999999744e+01,4.727943153696733368e-03
3.415999999999999659e+01,6.071809782526032748e-03
3.420000000000000284e+01,5.974829282897269923e-03
3.424000000000000199e+01,7.819548713590548580e-03
3.428000000000000114e+01,1.386099940558793882e-02
3.432000000000000028e+01,1.025579368742156675e-02
3.435999999999999943e+01,7.339492272626199805e-03
3.439999999999999858e+01,7.805604830771990972e-03
3.443999999999999773e+01,7.206708088708173657e-03
3.447999999999999687e+01,9.363827443802975187e-03
3.452000000000000313e+01,7.574508167309521901e-03
3.456000000000000227e+01,8.228005925469364379e-03
3.460000000000000142e+01,7.691214359652543894e-03
3.464000000000000057e+01,1.003571791784908969e-02
3.467999999999999972e+01,7.744744956791279472e-03
3.471999999999999886e+01,1.234401168046739793e-02
3.475999999999999801e+01,6.419663946049035917e-03
3.479999999999999716e+01,8.137232799001874531e-03
3.484000000000000341e+01,1.029314540933543368e-02
3.488000000000000256e+01,9.755413519663302946e-03
3.492000000000000171e+01,1.084618062859732737e-02
3.496000000000000085e+01,7.426749871289621031e-03
3.500000000000000000e+01,5.134699762116413761e-03
3.503999999999999915e+01,8.855931663588497565e-03
3.507999999999999829e+01,7.879046037010423165e-03
3.511999999999999744e+01,6.588826143649422103e-03
3.515999999999999659e+01,6.551265925277638055e-03
3.520000000000000284e+01,9.457638848978095272e-03
3.524000000000000199e+01,7.728533508827661533e-03
3.528000000000000114e+01,1.182479014367198399e-02
3.532000000000000028e+01,9.970133249672935918e-03
3.535999999999999943e+01,9.054936594315662196e-03
3.539999999999999858e+01,6.448330021457383994e-03
3.543999999999999773e+01,8.664848722650504709e-03
3.547999999999999687e+01,9.002037969148165425e-03
3.552000000000000313e+01,1.115564363300772591e-02
3.556000000000000227e+01,1.274535460870813985e-02
3.560000000000000142e+01,1.063918263886302722e-02
3.564000000000000057e+01,1.310557626937732326e-02
3.567999999999999972e+01,8.932017860312004356e-03
3.571999999999999886e+01,1.390372747622569023e-02
3.575999999999999801e+01,1.261132337926433242e-02
3.579999999999999716e+01,9.564868356006100275e-03
3.584000000000000341e+01,1.372184834156589886e-02
3.588000000000000256e+01,1.455878308521455465e-02
3.592000000000000171e+01,1.382958581669056254e-02
3.596000000000000085e+01,1.510472288274034708e-02
3.600000000000000000e+01,1.619180246580924007e-02
3.603999999999999915e+01,1.170380485291474919e-02
3.607999999999999829e+01,1.742595010861550803e-02
3.611999999999999744e+01,1.513006717556234122e-02
3.615999999999999659e+01,1.314724436231571279e-02
3.620000000000000284e+01,1.630074326873098833e-02
3.624000000000000199e+01,1.920354418182567552e-02
3.628000000000000114e+01,1.897421789483516932e-02
3.632000000000000028e+01,1.617652214704448643e-02
3.635999999999999943e+01,1.519524019972084104e-02
3.639999999999999858e+01,1.383798023530955108e-02
3.643999999999999773e+01,1.448505311010358371e-02
3.647999999999999687e+01,1.469350795592645233e-02
3.652000000000000313e+01,1.678101586641568208e-02
3.656000000000000227e+01,1.498471855265605217e-02
3.660000000000000142e+01,1.393995832653665418e-02
3.664000000000000057e+01,1.903375465181187179e-02
3.667999999999999972e+01,1.798871392340005773e-02
3.671999999999999886e+01,1.750729062081999091e-02
3.675999999999999801e+01,1.677516770493683862e-02
3.679999999999999716e+01,1.422635098475035116e-02
3.684000000000000341e+01,1.618745636384667785e-02
3.688000000000000256e+01,1.338779884460559663e-02
3.692000000000000171e+01,2.010924418785501808e-02
3.696000000000000085e+01,1.737194418438041052e-02
3.700000000000000000e+01,2.384254798089098168e-02
3.703999999999999915e+01,2.066648689348311863e-02
3.707999999999999829e+01,2.062227237925397944e-02
3.711999999999999744e+01,1.763384733601116444e-02
3.715999999999999659e+01,2.385332559429735252e-02
3.720000000000000284e+01,2.669011473575368804e-02
3.724000000000000199e+01,2.758492917684136209e-02
3.728000000000000114e+01,3.330286315973462336e-02
3.732000000000000028e+01,3.137860379138548983e-02
3.735999999999999943e+01,3.064435748159795997e-02
3.739999999999999858e+01,3.448267128915210450e-02
3.743999999999999773e+01,3.938571838072886522e-02
3.747999999999999687e+01,4.053023690724481126e-02
3.752000000000000313e+01,4.775066948099104119e-02
3.756000000000000227e+01,4.607611270270169090e-02
3.760000000000000142e+01,5.329625904190967572e-02
3.764000000000000057e+01,6.252073448190180460e-02
3.767999999999999972e+01,7.024171218935897076e-02
3.771999999999999886e+01,7.965381993509496050e-02
3.775999999999999801e+01,9.063177806918482071e-02
3.779999999999999716e+01,1.094395627325592257e-01
3.784000000000000341e+01,1.329451856678317834e-01
3.788000000000000256e+01,1.686654182690420778e-01
3.792000000000000171e+01,2.041975874057976315e-01
3.796000000000000085e+01,2.704230959426197067e-01
3.800000000000000000e+01,3.665276268403734883e-01
3.803999999999999915e+01,4.952673295312847168e-01
3.807999999999999829e+01,6.917831107404449620e-01
3.811999999999999744e+01,9.039586878139083126e-01
3.815999999999999659e+01,1.000000000000000000e+00
3.820000000000000284e+01,9.671911753550505031e-01
3.824000000000000199e+01,8.619706399070035108e-01
3.828000000000000114e+01,6.911661276606885229e-01
3.832000000000000028e+01,5.083972753245541432e-01
3.835999999999999943e+01,3.697893101132672111e-01
3.839999999999999858e+01,2.764071078673561721e-01
3.843999999999999773e+01,2.095840191908835970e-01
3.847999999999999687e+01,1.680046089434712453e-01
3.852000000000000313e+01,1.350693398968115522e-01
3.856000000000000227e+01,1.156641134134153009e-01
3.860000000000000142e+01,1.012699216475276831e-01
3.864000000000000057e+01,8.737670156334249871e-02
3.867999999999999972e+01,8.181442336817652816e-02
3.871999999999999886e+01,6.998802223869662886e-02
3.875999999999999801e+01,6.686840132494058231e-02
3.879999999999999716e+01,5.065692309819875422e-02
3.884000000000000341e+01,5.079427588191725434e-02
3.888000000000000256e+01,4.867645004281425519e-02
3.892000000000000171e+01,4.586943952266189783e-02
3.896000000000000085e+01,3.610926793130142531e-02
3.900000000000000000e+01,3.962857848182819998e-02
3.903999999999999915e+01,3.600680842395245079e-02
3.907999999999999829e+01,3.025513864549589371e-02
3.911999999999999744e+01,3.139369484422886020e-02
3.915999999999999659e+01,2.745828222834694951e-02
3.920000000000000284e+01,3.091421344167005411e-02
3.924000000000000199e+01,2.572570911978970878e-02
3.928000000000000114e+01,2.435808190652581987e-02
3.932000000000000028e+01,2.292766639262664580e-02
3.935999999999999943e+01,2.080806482692368689e-02
3.939999999999999858e+01,1.818719637276922096e-02
3.943999999999999773e+01,1.963776357939684553e-02
3.947999999999999687e+01,2.246625652800829723e-02
3.952000000000000313e+01,1.821630713550421304e-02
3.956000000000000227e+01,1.697291706479750126e-02
3.960000000000000142e+01,2.067791883359298977e-02
3.964000000000000057e+01,1.147897996047421432e-02
3.967999999999999972e+01,1.593535968673670186e-02
3.971999999999999886e+01,1.556832790440953324e-02
3.975999999999999801e+01,1.820785482080954781e-02
3.979999999999999716e+01,1.715148570718987367e-02
3.984000000000000341e+01,1.383993498001173487e-02
3.988000000000000256e+01,1.785708620094450180e-02
3.992000000000000171e+01,1.535955169852036041e-02
3.996000000000000085e+01,1.956432126842455946e-02
4.000000000000000000e+01,1.575105056201303935e-02
4.003999999999999915e+01,1.607185340982844254e-02
4.007999999999999829e+01,1.094284600097336808e-02
4.011999999999999744e+01,1.358101813113309596e-02
4.015999999999999659e+01,1.321233049895669844e-02
4.020000000000000284e+01,1.478532422961044944e-02
4.024000000000000199e+01,1.579440869226242036e-02
4.028000000000000114e+01,1.398455230670246630e-02
4.032000000000000028e+01,1.017007186283739109e-02
4.035999999999999943e+01,1.061494350159782572e-02
4.039999999999999858e+01,1.124758252576570083e-02
4.043999999999999773e+01,1.068991403230713962e-02
4.047999999999999687e+01,1.113432958954873112e-02
4.052000000000000313e+01,1.433474242722898064e-02
4.056000000000000227e+01,1.277438090208015374e-02
4.060000000000000142e+01,7.893959430563554300e-03
4.064000000000000057e+01,9.966398963558402782e-03
4.067999999999999972e+01,1.134964833248616398e-02
4.071999999999999886e+01,1.429873886832886548e-02
4.075999999999999801e+01,1.229913513030598225e-02
4.079999999999999716e+01,1.029937824358380383e-02
4.084000000000000341e+01,1.193257431756417769e-02
4.088000000000000256e+01,1.250074102847459519e-02
4.092000000000000171e+01,1.237971682763365673e-02
4.096000000000000085e+01,1.225853897963726132e-02
4.100000000000000000e+01,8.190902312578192401e-03
4.103999999999999915e+01,1.251683994496547055e-02
4.107999999999999829e+01,1.126768468002039766e-02
4.111999999999999744e+01,6.447908798103198572e-03
4.115999999999999659e+01,9.896427316479361122e-03
4.120000000000000284e+01,1.152823832300785105e-02
4.124000000000000199e+01,9.839987389343910970e-03
4.128000000000000114e+01,1.134620970703998505e-02
4.132000000000000028e+01,8.968611971416519738e-03
4.135999999999999943e+01,1.241635726945376772e-02
4.139999999999999858e+01,9.913170097313631773e-03
4.143999999999999773e+01,1.016597733948924193e-02
4.147999999999999687e+01,7.662479757687198391e-03
4.152000000000000313e+01,1.242503925216499779e-02
4.156000000000000227e+01,1.035970910083300681e-02
4.160000000000000142e+01,1.029869571349521958e-02
4.164000000000000057e+01,1.355743398130199520e-02
4.167999999999999972e+01,1.193011487177571273e-02
4.171999999999999886e+01,1.092903737398167631e-02
4.175999999999999801e+01,8.173890382398872612e-03
4.179999999999999716e+01,8.550575259538135270e-03
4.184000000000000341e+01,9.616141137222977697e-03
4.188000000000000256e+01,1.155850717880568118e-02
4.192000000000000171e+01,1.193472251610981812e-02
4.196000000000000085e+01,1.187230275231936603e-02
4.200000000000000000e+01,9.867893459089553676e-03
4.203999999999999915e+01,1.362618531842633290e-02
4.207999999999999829e+01,9.366430421517321289e-03
4.211999999999999744e+01,1.061881737732502974e-02
4.215999999999999659e+01,1.030505288116991512e-02
4.220000000000000284e+01,1.042960921341223000e-02
4.224000000000000199e+01,1.287167912910136200e-02
4.228000000000000114e+01,1.362231769367465428e-02
4.232000000000000028e+01,1.174192834268634154e-02
4.235999999999999943e+01,1.111417623616012956e-02
4.239999999999999858e+01,1.023570694575124881e-02
4.243999999999999773e+01,6.851488891249534439e-03
4.247999999999999687e+01,1.298835637788682031e-02
4.252000000000000313e+01,1.373804576905264009e-02
4.256000000000000227e+01,1.097974981979637707e-02
4.260000000000000142e+01,1.091480490839325315e-02
4.264000000000000057e+01,1.203985660649849534e-02
4.267999999999999972e+01,1.078443831813756873e-02
4.271999999999999886e+01,1.234765021909856736e-02
4.275999999999999801e+01,1.716797052335555795e-02
4.279999999999999716e+01,1.641319257187648026e-02
4.284000000000000341e+01,1.741216847073459584e-02
4.288000000000000256e+01,1.233492776338497056e-02
4.292000000000000171e+01,1.089063353680787445e-02
4.296000000000000085e+01,2.234997053939542441e-02
4.300000000000000000e+01,1.846240568892696873e-02
4.303999999999999915e+01,1.469996023668387886e-02
4.307999999999999829e+01,1.613645483314332663e-02
4.311999999999999744e+01,1.945198193295258338e-02
4.315999999999999659e+01,1.625281321566771076e-02
4.320000000000000284e+01,1.725034797075611012e-02
4.324000000000000199e+01,1.887411960224325697e-02
4.328000000000000114e+01,1.993397249506159014e-02
4.332000000000000028e+01,1.949031008476542759e-02
4.335999999999999943e+01,1.910912631312685489e-02
4.339999999999999858e+01,2.543023589700924361e-02
4.343999999999999773e+01,2.805543811099433377e-02
4.347999999999999687e+01,2.454178208690564744e-02
4.352000000000000313e+01,2.679082260466410584e-02
4.356000000000000227e+01,2.534395537868313827e-02
4.360000000000000142e+01,2.878282776814497165e-02
4.364000000000000057e+01,3.215889839865521821e-02
4.367999999999999972e+01,3.578536595887710225e-02
4.371999999999999886e+01,3.609176385283610622e-02
4.375999999999999801e+01,3.758815486711036824e-02
4.379999999999999716e+01,4.252957033268193326e-02
4.384000000000000341e+01,4.603010863781190065e-02
4.388000000000000256e+01,5.360206877156557109e-02
4.392000000000000171e+01,5.653852360022176837e-02
4.396000000000000085e+01,6.442335668544986460e-02
4.400000000000000000e+01,7.631697146280407018e-02
4.403999999999999915e+01,8.351244079856323665e-02
4.407999999999999829e+01,9.409029395066599577e-02
4.411999999999999744e+01,1.079878910318428642e-01
4.415999999999999659e+01,1.283998598129075797e-01
4.420000000000000284e+01,1.450532790937528183e-01
4.424000000000000199e+01,1.685342686385350730e-01
4.428000000000000114e+01,1.932678894463055186e-01
4.432000000000000028e+01,2.116747301111409907e-01
4.435999999999999943e+01,2.186809697333363112e-01
4.439999999999999858e+01,2.180449939476041821e-01
4.443999999999999773e+01,2.053820192434493153e-01
4.447999999999999687e+01,1.858285060340043315e-01
4.452000000000000313e+01,1.618900447008730370e-01
4.456000000000000227e+01,1.412713259260614529e-01
4.460000000000000142e+01,1.193996469111078401e-01
4.464000000000000057e+01,1.041676176259844905e-01
4.467999999999999972e+01,8.022849609549288774e-02
4.471999999999999886e+01,7.357778369702945576e-02
4.475999999999999801e+01,5.753094141475974255e-02
4.479999999999999716e+01,5.488884273065243458e-02
4.484000000000000341e+01,4.748595635001385401e-02
4.488000000000000256e+01,4.434240797061433231e-02
4.492000000000000171e+01,4.025909716743769629e-02
4.496000000000000085e+01,3.410850808807190659e-02
4.500000000000000000e+01,2.971166612988515934e-02
4.503999999999999915e+01,3.126543526617838603e-02
4.507999999999999829e+01,2.379891209768568786e-02
4.511999999999999744e+01,2.353579502755382205e-02
4.515999999999999659e+01,2.346043051375865801e-02
4.520000000000000284e+01,2.232002317857725501e-02
4.524000000000000199e+01,1.861121859366481057e-02
4.528000000000000114e+01,1.427584927672615606e-02
4.532000000000000028e+01,1.488885397948204806e-02
4.535999999999999943e+01,1.550169132753810575e-02
4.539999999999999858e+01,1.436044784192778978e-02
4.543999999999999773e+01,9.335371467751851435e-03
4.547999999999999687e+01,1.170161935837673792e-02
4.552000000000000313e+01,1.049723292448514859e-02
4.556000000000000227e+01,1.073339305389882717e-02
4.560000000000000142e+01,1.410137321370081263e-02
4.564000000000000057e+01,1.465039582700958069e-02
4.567999999999999972e+01,1.344533673435367900e-02
4.571999999999999886e+01,1.173899106422803852e-02
4.575999999999999801e+01,1.028303584388396211e-02
4.579999999999999716e+01,1.058082525243815401e-02
4.584000000000000341e+01,1.350931584245281328e-02
4.588000000000000256e+01,1.230341312252565197e-02
4.592000000000000171e+01,1.216221726844471211e-02
4.596000000000000085e+01,7.761348329882937318e-03
4.600000000000000000e+01,8.997888681786964452e-03
4.603999999999999915e+01,1.292776935473671264e-02
4.607999999999999829e+01,7.023037693028749175e-03
4.611999999999999744e+01,1.139105738444752026e-02
4.615999999999999659e+01,9.933409301929103929e-03
4.620000000000000284e+01,9.916305788891329256e-03
4.624000000000000199e+01,1.165294553399736852e-02
4.628000000000000114e+01,1.100910407737369645e-02
4.632000000000000028e+01,1.092885013921227229e-02
4.635999999999999943e+01,1.015938834179011714e-02
4.639999999999999858e+01,8.512799272526860167e-03
4.643999999999999773e+01,8.432033550370884520e-03
4.647999999999999687e+01,7.599419832456623218e-03
4.652000000000000313e+01,5.576479655581897434e-03
4.656000000000000227e+01,5.745760078526796974e-03
4.660000000000000142e+01,7.731422400744634472e-03
4.664000000000000057e+01,7.900360263605408703e-03
4.667999999999999972e+01,7.881207371536717507e-03
4.671999999999999886e+01,6.546447872126466908e-03
4.675999999999999801e+01,5.712634757768589484e-03
4.679999999999999716e+01,8.386476511310499496e-03
4.684000000000000341e+01,5.986325524341915179e-03
4.688000000000000256e+01,8.659823222431223266e-03
4.692000000000000171e+01,5.194451965639340293e-03
4.696000000000000085e+01,7.930244872475331053e-03
4.700000000000000000e+01,6.970119318764482139e-03
4.703999999999999915e+01,7.450535717639445582e-03
4.707999999999999829e+01,5.362549134537549812e-03
4.711999999999999744e+01,6.970135710389482181e-03
4.715999999999999659e+01,6.510437156280038384e-03
4.720000000000000284e+01,6.614323379123991827e-03
4.724000000000000199e+01,5.841079713231998524e-03
4.728000000000000114e+01,5.568780812409861343e-03
4.732000000000000028e+01,9.555812311370374262e-03
4.735999999999999943e+01,1.022276280419038078e-02
4.739999999999999858e+01,8.885067182020244328e-03
4.743999999999999773e+01,8.737353215673728662e-03
4.747999999999999687e+01,7.587229087596130024e-03
4.752000000000000313e+01,4.620377758652609648e-03
4.756000000000000227e+01,5.912856081807502800e-03
4.760000000000000142e+01,7.580998647809036699e-03
4.764000000000000057e+01,4.550984556951959484e-03
4.767999999999999972e+01,6.970455234804663960e-03
4.771999999999999886e+01,6.445682360923197900e-03
4.775999999999999801e+01,4.918498453012379659e-03
4.779999999999999716e+01,8.214401313414759070e-03
4.784000000000000341e+01,8.252861434963615697e-03
4.788000000000000256e+01,8.980183740338066115e-03
4.792000000000000171e+01,5.573106380454662979e-03
4.796000000000000085e+01,5.297841698731208492e-03
4.800000000000000000e+01,1.091053912739335836e-02
4.803999999999999915e+01,7.690854317796998359e-03
4.807999999999999829e+01,5.347950356922377690e-03
4.811999999999999744e+01,5.635740474507990386e-03
4.815999999999999659e+01,5.923354514410995170e-03
4.820000000000000284e+01,4.519518760320314667e-03
4.824000000000000199e+01,4.117742881806113996e-03
4.828000000000000114e+01,6.910418447194995213e-03
4.832000000000000028e+01,4.065338797454894591e-03
4.835999999999999943e+01,4.101511529112565786e-03
4.839999999999999858e+01,7.457414856142099806e-03
4.843999999999999773e+01,4.110686629057943436e-03
4.847999999999999687e+01,2.705613969697725271e-03
4.852000000000000313e+01,5.685147497009862723e-03
4.856000000000000227e+01,5.783074618348442789e-03
4.860000000000000142e+01,1.183160174351746349e-02
4.864000000000000057e+01,6.228955441722262495e-03
4.867999999999999972e+01,5.825231742664061484e-03
4.871999999999999886e+01,4.231174730873222059e-03
4.875999999999999801e+01,7.898679835246755904e-03
4.879999999999999716e+01,6.304266805055507711e-03
4.884000000000000341e+01,8.217502287448026979e-03
4.888000000000000256e+01,6.748012265711095768e-03
4.892000000000000171e+01,7.721294542187263910e-03
4.896000000000000085e+01,6.251447505137622089e-03
4.900000000000000000e+01,3.465986757746151743e-03
4.903999999999999915e+01,7.758640371228746335e-03
4.907999999999999829e+01,6.288256876604705371e-03
4.911999999999999744e+01,9.828875325996888276e-03
4.915999999999999659e+01,9.047170959129645709e-03
4.920000000000000284e+01,8.327927037270215285e-03
4.924000000000000199e+01,5.040273404275821649e-03
4.928000000000000114e+01,9.394491248370245851e-03
4.932000000000000028e+01,8.486789337917386572e-03
4.935999999999999943e+01,6.138193070285466804e-03
4.939999999999999858e+01,4.729013301767425077e-03
4.943999999999999773e+01,7.516517565832485370e-03
4.947999999999999687e+01,6.482816117969368401e-03
4.952000000000000313e+01,7.516046523176084238e-03
4.956000000000000227e+01,8.047978387965233626e-03
4.960000000000000142e+01,7.514853723823757166e-03
4.964000000000000057e+01,7.420026709868375592e-03
4.967999999999999972e+01,7.575577933518663418e-03
4.971999999999999886e+01,4.160481748178348864e-03
4.975999999999999801e+01,4.754149310542465923e-03
4.979999999999999716e+01,9.356580495996972419e-03
4.984000000000000341e+01,7.694854104434537510e-03
4.988000000000000256e+01,6.972542716617496222e-03
4.992000000000000171e+01,7.064366682620935346e-03
4.996000000000000085e+01,7.782406589864487509e-03
5.000000000000000000e+01,8.688183975145946994e-03
5.003999999999999915e+01,5.208996040003669240e-03
5.007999999999999829e+01,5.989129906275295415e-03
5.011999999999999744e+01,5.829485148944687882e-03
5.015999999999999659e+01,5.607018320574059557e-03
5.020000000000000284e+01,8.391077666666277995e-03
5.024000000000000199e+01,7.855047034407166770e-03
5.028000000000000114e+01,7.130914431955004233e-03
5.032000000000000028e+01,6.845077361250243887e-03
5.035999999999999943e+01,5.870019969880810838e-03
5.039999999999999858e+01,6.398133826173279387e-03
5.043999999999999773e+01,8.742617618790885989e-03
5.047999999999999687e+01,8.268128786616474671e-03
5.052000000000000313e+01,9.359450590917313406e-03
5.056000000000000227e+01,8.070277859786197799e-03
5.060000000000000142e+01,5.653405721718024121e-03
5.064000000000000057e+01,8.686009130920706311e-03
5.067999999999999972e+01,8.022682615084909818e-03
5.071999999999999886e+01,7.985569672822474471e-03
5.075999999999999801e+01,6.444918249234136802e-03
5.079999999999999716e+01,5.593119912646512745e-03
5.084000000000000341e+01,7.058808367487194070e-03
5.088000000000000256e+01,8.211113457613347308e-03
5.092000000000000171e+01,7.045562653436639004e-03
5.096000000000000085e+01,6.380945149838140873e-03
5.100000000000000000e+01,7.031577736724632481e-03
5.103999999999999915e+01,8.558981950893938470e-03
5.107999999999999829e+01,7.643250246993332775e-03
5.111999999999999744e+01,5.161339177585015300e-03
5.115999999999999659e+01,8.379461086086838553e-03
5.120000000000000284e+01,8.778608126743926363e-03
5.124000000000000199e+01,6.671978988219496101e-03
5.128000000000000114e+01,9.075226963309590555e-03
5.132000000000000028e+01,7.093505630326644128e-03
5.135999999999999943e+01,3.858802997429027978e-03
5.139999999999999858e+01,8.892362863630594999e-03
5.143999999999999773e+01,8.162878269497211153e-03
5.147999999999999687e+01,9.938797760933829051e-03
5.152000000000000313e+01,9.835337827445117184e-03
5.156000000000000227e+01,1.042072861329036010e-02
5.160000000000000142e+01,7.686025183906922652e-03
5.164000000000000057e+01,9.335918221300740227e-03
5.167999999999999972e+01,7.728356556893229042e-03
5.171999999999999886e+01,7.185483689296208107e-03
5.175999999999999801e+01,5.640187326265875059e-03
5.179999999999999716e+01,7.665170017035843886e-03
5.184000000000000341e+01,7.121734896758241673e-03
5.188000000000000256e+01,8.707864039977562115e-03
5.192000000000000171e+01,6.284860581845948778e-03
5.196000000000000085e+01,7.995893542957498851e-03
5.200000000000000000e+01,5.697793653490053345e-03
5.203999999999999915e+01,8.097487797936689380e-03
5.207999999999999829e+01,9.118918874105014227e-03
5.211999999999999744e+01,8.073049368171096585e-03
5.215999999999999659e+01,6.337953933940688143e-03
5.220000000000000284e+01,1.074136657624351517e-02
5.224000000000000199e+01,1.282691921198017213e-02
5.228000000000000114e+01,8.335107855966226303e-03
5.232000000000000028e+01,7.977331797669054772e-03
5.235999999999999943e+01,8.120484678458717021e-03
5.239999999999999858e+01,8.138168747166704686e-03
5.243999999999999773e+01,7.466626015279936683e-03
5.247999999999999687e+01,7.859769712536907038e-03
5.252000000000000313e+01,9.067040663701795081e-03
5.256000000000000227e+01,6.202537257035662006e-03
5.260000000000000142e+01,6.657751361267235692e-03
5.264000000000000057e+01,9.367806886639889336e-03
5.267999999999999972e+01,8.883044357515667774e-03
5.271999999999999886e+01,1.096632181358166667e-02
5.275999999999999801e+01,9.228383339368253710e-03
5.279999999999999716e+01,8.680409822697165642e-03
5.284000000000000341e+01,8.320164936467179528e-03
5.288000000000000256e+01,1.428634529629808567e-02
5.292000000000000171e+01,6.534226727832788580e-03
5.296000000000000085e+01,9.806515355358823988e-03
5.300000000000000000e+01,8.568549915711286269e-03
5.303999999999999915e+01,8.833747499199066933e-03
5.307999999999999829e+01,1.248130086087151890e-02
5.311999999999999744e+01,9.050369512654950557e-03
5.315999999999999659e+01,1.025458894650393624e-02
5.320000000000000284e+01,8.263988705873531390e-03
5.324000000000000199e+01,9.530464219660748568e-03
5.328000000000000114e+01,9.543952452059380892e-03
5.332000000000000028e+01,8.116533990489034969e-03
5.335999999999999943e+01,7.941718504519875918e-03
5.339999999999999858e+01,9.144785394848763821e-03
5.343999999999999773e+01,7.466230676291301521e-03
5.347999999999999687e+01,4.158849477342337585e-03
5.352000000000000313e+01,6.050375802831581794e-03
5.356000000000000227e+01,1.000882139537265063e-02
5.360000000000000142e+01,1.139884369384840980e-02
5.364000000000000057e+01,9.594044947090348344e-03
5.367999999999999972e+01,1.016936390681921938e-02
5.371999999999999886e+01,9.554333977060519220e-03
5.375999999999999801e+01,9.064390048964574009e-03
5.379999999999999716e+01,6.820339118253923062e-03
5.384000000000000341e+01,9.274076613825609286e-03
5.388000000000000256e+01,1.003634662020994918e-02
5.392000000000000171e+01,5.975160880020574834e-03
5.396000000000000085e+01,8.177757258657594383e-03
5.400000000000000000e+01,1.106919675517212959e-02
5.403999999999999915e+01,9.387739181892640686e-03
5.407999999999999829e+01,1.039959688223690906e-02
5.411999999999999744e+01,6.901197026214512739e-03
5.415999999999999659e+01,6.847789346453173401e-03
5.420000000000000284e+01,8.986578465229893078e-03
5.424000000000000199e+01,6.113991552554271479e-03
5.428000000000000114e+01,9.630465287103578270e-03
5.432000000000000028e+01,9.764196570014059551e-03
5.435999999999999943e+01,7.266862428537033784e-03
5.439999999999999858e+01,8.214519715636829297e-03
5.443999999999999773e+01,8.848782547372579035e-03
5.447999999999999687e+01,7.039898868845042082e-03
5.452000000000000313e+01,6.922092890699707048e-03
5.456000000000000227e+01,7.305208997869004975e-03
5.460000000000000142e+01,1.082011709726768758e-02
5.464000000000000057e+01,9.950045545628095900e-03
5.467999999999999972e+01,1.070841143325906505e-02
5.471999999999999886e+01,9.086269825597964242e-03
5.475999999999999801e+01,7.276012290971405061e-03
5.479999999999999716e+01,1.041409924251198750e-02
5.484000000000000341e+01,1.173543618881739935e-02
5.488000000000000256e+01,9.611389176232000911e-03
5.492000000000000171e+01,9.992735532409180096e-03
5.496000000000000085e+01,7.241896493744689502e-03
5.500000000000000000e+01,9.752600131454390933e-03
5.503999999999999915e+01,9.632236226337919510e-03
5.507999999999999829e+01,8.634718008133741504e-03
5.511999999999999744e+01,8.012840605336772268e-03
5.515999999999999659e+01,9.019399146441906337e-03
5.520000000000000284e+01,8.334486086096408106e-03
5.524000000000000199e+01,9.090089432458590621e-03
5.528000000000000114e+01,9.031177605318333260e-03
5.532000000000000028e+01,7.092874514918971925e-03
5.535999999999999943e+01,1.229530585903085976e-02
5.539999999999999858e+01,1.167204064336241701e-02
5.543999999999999773e+01,9.607862129180893412e-03
5.547999999999999687e+01,8.858919748711916939e-03
5.552000000000000313e+01,9.299933852030558765e-03
5.556000000000000227e+01,9.803388586724743128e-03
5.560000000000000142e+01,6.610898068853583893e-03
5.564000000000000057e+01,8.867867521498325190e-03
5.567999999999999972e+01,9.683922927945766423e-03
5.571999999999999886e+01,8.683225587649149105e-03
5.575999999999999801e+01,9.686800897976726582e-03
5.579999999999999716e+01,8.873623212332180238e-03
5.584000000000000341e+01,8.874562437630273068e-03
5.588000000000000256e+01,8.812661772080666173e-03
5.592000000000000171e+01,9.940716344178281844e-03
5.596000000000000085e+01,9.377296947158532403e-03
5.600000000000000000e+01,9.815913250591569092e-03
5.603999999999999915e+01,1.037960845268710679e-02
5.607999999999999829e+01,1.131894147945291390e-02
5.611999999999999744e+01,9.439284310847112849e-03
5.615999999999999659e+01,6.682469464574542807e-03
5.620000000000000284e+01,9.124553793599563326e-03
5.624000000000000199e+01,1.313243093929214629e-02
5.628000000000000114e+01,7.618862787024132180e-03
5.632000000000000028e+01,7.867951300110590657e-03
5.635999999999999943e+01,8.743235816190830442e-03
5.639999999999999858e+01,1.556909603636377065e-02
5.643999999999999773e+01,9.490963276725833050e-03
5.647999999999999687e+01,1.092940003833873554e-02
5.652000000000000313e+01,8.609248918607925738e-03
5.656000000000000227e+01,9.546163210329462051e-03
5.660000000000000142e+01,8.353123200520859090e-03
5.664000000000000057e+01,7.660998796096842554e-03
5.667999999999999972e+01,1.003802014131671520e-02
5.671999999999999886e+01,8.531173456811796257e-03
5.675999999999999801e+01,1.297490135487326147e-02
5.679999999999999716e+01,8.335660673579742275e-03
5.684000000000000341e+01,7.830441208616544663e-03
5.688000000000000256e+01,8.640453515874526452e-03
5.692000000000000171e+01,1.251961082509214958e-02
5.696000000000000085e+01,1.226434030627895563e-02
5.700000000000000000e+01,8.563679224030838408e-03
5.703999999999999915e+01,1.018719422549633699e-02
5.707999999999999829e+01,9.555473904752313091e-03
5.711999999999999744e+01,8.547711016848157789e-03
5.715999999999999659e+01,9.857415231354058754e-03
5.720000000000000284e+01,6.844771582178560063e-03
5.724000000000000199e+01,9.532141969579152260e-03
5.728000000000000114e+01,1.084123308887630782e-02
5.732000000000000028e+01,8.517013359859866226e-03
5.735999999999999943e+01,8.447620347527820192e-03
5.739999999999999858e+01,1.307600467082858410e-02
5.743999999999999773e+01,7.932381031739807464e-03
5.747999999999999687e+01,1.199659739024793934e-02
5.752000000000000313e+01,9.921911771154411433e-03
5.756000000000000227e+01,8.034940078045319303e-03
5.760000000000000142e+01,1.159742224936418167e-02
5.764000000000000057e+01,1.002323827172642463e-02
5.767999999999999972e+01,1.195667526696969456e-02
5.771999999999999886e+01,7.751209661541079952e-03
5.775999999999999801e+01,1.150078792830215059e-02
5.779999999999999716e+01,1.036425859827223503e-02
5.784000000000000341e+01,1.235951116673448744e-02
5.788000000000000256e+01,1.009505351573211814e-02
5.792000000000000171e+01,1.102501727664931784e-02
5.796000000000000085e+01,9.449183923226318199e-03
5.800000000000000000e+01,1.056665363125122541e-02
5.803999999999999915e+01,1.462798532673177318e-02
5.807999999999999829e+01,1.067122042035069558e-02
5.811999999999999744e+01,8.718720812365464076e-03
5.815999999999999659e+01,1.259151190014432681e-02
5.820000000000000284e+01,1.195403272092447622e-02
5.824000000000000199e+01,1.062730867207412402e-02
5.828000000000000114e+01,9.237737255533715053e-03
5.832000000000000028e+01,1.229538125788142387e-02
5.835999999999999943e+01,9.527319479009846784e-03
5.839999999999999858e+01,8.575602838269512709e-03
5.843999999999999773e+01,1.219638076788604093e-02
5.847999999999999687e+01,1.162008637148282363e-02
5.852000000000000313e+01,7.974235252243852198e-03
5.856000000000000227e+01,1.109327002246026511e-02
5.860000000000000142e+01,1.020315138078115892e-02
5.864000000000000057e+01,1.250745190796888513e-02
5.867999999999999972e+01,1.099051806199933048e-02
5.871999999999999886e+01,1.097672954397146267e-02
5.875999999999999801e+01,9.584657147120671447e-03
5.879999999999999716e+01,1.013420816757162196e-02
5.884000000000000341e+01,1.262538248071025902e-02
5.888000000000000256e+01,9.165569867336249843e-03
5.892000000000000171e+01,1.159368534471499380e-02
5.896000000000000085e+01,1.070168367788176811e-02
5.900000000000000000e+01,1.074906860279294801e-02
5.903999999999999915e+01,1.330183406122063296e-02
5.907999999999999829e+01,1.034209030865356968e-02
5.911999999999999744e+01,8.071173723367009584e-03
5.915999999999999659e+01,8.493556585721180954e-03
5.920000000000000284e+01,1.192243758437927861e-02
5.924000000000000199e+01,1.084104507607365486e-02
5.928000000000000114e+01,1.057375876190322882e-02
5.932000000000000028e+01,1.105793875459852409e-02
5.935999999999999943e+01,9.474795610050401953e-03
5.939999999999999858e+01,9.081596861728057773e-03
5.943999999999999773e+01,1.188281478999174065e-02
5.947999999999999687e+01,1.061223680219557618e-02
5.952000000000000313e+01,1.021840402350584869e-02
5.956000000000000227e+01,1.070131632930849605e-02
5.960000000000000142e+01,1.375224718668656247e-02
5.964000000000000057e+01,9.474113971465379647e-03
5.967999999999999972e+01,8.453036447801428460e-03
5.971999999999999886e+01,1.344516404792035248e-02
5.975999999999999801e+01,9.604872897867188994e-03
5.979999999999999716e+01,9.585394929428187744e-03
5.984000000000000341e+01,1.012946235990604300e-02
5.988000000000000256e+01,1.274042936841747464e-02
5.992000000000000171e+01,1.228183529260177057e-02
5.996000000000000085e+01,1.069551265016372397e-02
