2.003999999999999915e+01,1.304033643061932278e-02
2.007999999999999829e+01,3.361539069121947075e-03
2.012000000000000099e+01,4.633030630436173539e-03
2.016000000000000014e+01,1.370102738907673888e-02
2.019999999999999929e+01,7.875805774279574095e-03
2.023999999999999844e+01,5.904859914003972483e-03
2.028000000000000114e+01,6.211298088209866140e-03
2.032000000000000028e+01,1.081003814482262362e-02
2.035999999999999943e+01,1.497040435290583442e-02
2.039999999999999858e+01,1.326088009021284854e-02
2.044000000000000128e+01,1.374113589222046225e-02
2.048000000000000043e+01,1.360780847909561289e-02
2.051999999999999957e+01,8.480642565557123744e-03
2.055999999999999872e+01,9.923513143633414316e-03
2.060000000000000142e+01,2.065217895256012820e-02
2.064000000000000057e+01,9.566825725850226433e-03
2.067999999999999972e+01,9.782185863324474942e-03
2.071999999999999886e+01,1.236253828618445218e-02
2.076000000000000156e+01,9.423423252597361646e-03
2.080000000000000071e+01,2.234048823293596428e-02
2.083999999999999986e+01,1.388156116174809294e-02
2.087999999999999901e+01,1.269351375675108369e-02
2.092000000000000171e+01,2.166731498000822390e-02
2.096000000000000085e+01,1.434622146996330019e-02
2.100000000000000000e+01,1.692416182474758973e-02
2.103999999999999915e+01,9.865196484494265575e-03
2.107999999999999829e+01,8.149799786369539903e-03
2.112000000000000099e+01,9.850659564678267144e-03
2.116000000000000014e+01,2.177429838415439328e-03
2.119999999999999929e+01,1.307614143398812094e-02
2.123999999999999844e+01,1.845538899801239113e-02
2.128000000000000114e+01,3.860329432621187589e-03
2.132000000000000028e+01,1.309351873011754819e-02
2.135999999999999943e+01,1.566837840391088754e-02
2.139999999999999858e+01,1.675361031282310981e-02
2.144000000000000128e+01,1.091769783460733688e-02
2.148000000000000043e+01,5.694680836257878624e-03
2.151999999999999957e+01,2.254781189956120424e-02
2.155999999999999872e+01,1.522159248344476766e-02
2.160000000000000142e+01,1.376457608824658251e-02
2.164000000000000057e+01,1.029230297213381759e-02
2.167999999999999972e+01,1.242641811351440778e-02
2.171999999999999886e+01,1.061796465369350961e-02
2.176000000000000156e+01,1.327703357380307855e-02
2.180000000000000071e+01,1.444647758311374403e-02
2.183999999999999986e+01,1.430150718986119250e-02
2.187999999999999901e+01,1.652153735883292104e-02
2.192000000000000171e+01,1.672631280474759508e-02
2.196000000000000085e+01,1.220007535918601199e-02
2.200000000000000000e+01,1.047686488914232987e-02
2.203999999999999915e+01,9.804579451748920288e-03
2.207999999999999829e+01,1.473868512593104127e-02
2.212000000000000099e+01,1.923442950954546565e-02
2.216000000000000014e+01,1.023865128734580479e-02
2.219999999999999929e+01,1.823792951673901264e-02
2.223999999999999844e+01,8.015009694789966901e-03
2.228000000000000114e+01,4.624953971250607941e-03
2.232000000000000028e+01,1.130915175383942137e-02
2.235999999999999943e+01,4.414223246241496049e-03
2.239999999999999858e+01,2.169797175320824570e-02
2.244000000000000128e+01,1.900742140759807686e-02
2.248000000000000043e+01,1.850666568250784738e-02
2.251999999999999957e+01,1.248645505893244100e-02
2.255999999999999872e+01,1.846781210503791945e-02
2.260000000000000142e+01,1.428664391854367333e-02
2.264000000000000057e+01,1.571187083934020776e-02
2.267999999999999972e+01,8.989490660870628341e-03
2.271999999999999886e+01,8.924767497473708178e-03
2.276000000000000156e+01,1.122505117528193458e-02
2.280000000000000071e+01,1.641597264818626598e-02
2.283999999999999986e+01,1.599983639445732783e-02
2.287999999999999901e+01,1.899996917512369529e-02
2.292000000000000171e+01,1.595501924290430168e-02
2.296000000000000085e+01,1.658915425013803360e-02
2.300000000000000000e+01,2.151561026212958638e-02
2.303999999999999915e+01,1.741841062939127743e-02
2.307999999999999829e+01,1.848958368636510752e-02
2.312000000000000099e+01,1.596861857708044979e-02
2.316000000000000014e+01,1.546224271742802775e-02
2.319999999999999929e+01,2.003663529229865459e-02
2.323999999999999844e+01,1.804031676906660622e-02
2.328000000000000114e+01,1.402875322665714589e-02
2.332000000000000028e+01,1.509795897499541413e-02
2.335999999999999943e+01,1.169897715538656402e-02
2.339999999999999858e+01,1.478244697996255672e-02
2.344000000000000128e+01,1.996811316344217560e-02
2.348000000000000043e+01,1.709378306723395927e-02
2.351999999999999957e+01,1.973824924588361493e-02
2.355999999999999872e+01,1.817734461786861544e-02
2.360000000000000142e+01,1.302430524849382092e-02
2.364000000000000057e+01,2.188775881733907164e-02
2.367999999999999972e+01,2.260361242212383798e-02
2.371999999999999886e+01,2.437040304670431978e-02
2.376000000000000156e+01,2.096816806610962355e-02
2.380000000000000071e+01,1.677716333643744159e-02
2.383999999999999986e+01,1.258583514582014770e-02
2.387999999999999901e+01,2.328705272001014431e-02
2.392000000000000171e+01,1.664213534414109297e-02
2.396000000000000085e+01,1.823177583644784716e-02
2.400000000000000000e+01,1.657970488713217394e-02
2.403999999999999915e+01,2.535232016215336129e-02
2.407999999999999829e+01,1.537711984612783085e-02
2.412000000000000099e+01,1.687786766222111601e-02
2.416000000000000014e+01,1.364761828429044560e-02
2.419999999999999929e+01,1.173112468529549125e-02
2.423999999999999844e+01,1.945087273495450450e-02
2.428000000000000114e+01,1.367911330543521674e-02
2.432000000000000028e+01,2.201145677748957488e-02
2.435999999999999943e+01,1.799115978956140893e-02
2.439999999999999858e+01,2.141697780657533107e-02
2.444000000000000128e+01,1.354141727138860087e-02
2.448000000000000043e+01,1.600294098861552300e-02
2.451999999999999957e+01,1.609880808866471016e-02
2.455999999999999872e+01,1.838448465046161467e-02
2.460000000000000142e+01,2.759064697575889721e-02
2.464000000000000057e+01,1.472000347200065444e-02
2.467999999999999972e+01,1.420136321021423821e-02
2.471999999999999886e+01,4.746684402257030783e-03
2.476000000000000156e+01,2.043435567350145726e-02
2.480000000000000071e+01,1.763703182528852595e-02
2.483999999999999986e+01,1.159800252902583491e-02
2.487999999999999901e+01,5.821472526673124662e-03
2.492000000000000171e+01,1.117047591894869060e-02
2.496000000000000085e+01,2.160026030370903322e-02
2.500000000000000000e+01,1.004084653950164559e-02
2.503999999999999915e+01,1.232272547997458230e-02
2.507999999999999829e+01,2.178790894308796702e-02
2.512000000000000099e+01,1.863764203473367367e-02
2.516000000000000014e+01,1.960450132035374340e-02
2.519999999999999929e+01,1.873133950921873625e-02
2.523999999999999844e+01,1.295197798725416551e-02
2.528000000000000114e+01,1.207818951821266334e-02
2.532000000000000028e+01,1.102887792550281271e-02
2.535999999999999943e+01,1.532316551360136947e-02
2.539999999999999858e+01,6.388768948193354960e-03
2.544000000000000128e+01,1.357340083830638894e-02
2.548000000000000043e+01,1.611465006428056818e-02
2.551999999999999957e+01,1.278604535173113663e-02
2.555999999999999872e+01,2.110860926882420288e-02
2.560000000000000142e+01,2.347371470679624275e-02
2.564000000000000057e+01,1.436223993198671584e-02
2.567999999999999972e+01,1.409857107780317781e-02
2.571999999999999886e+01,1.322135639696437291e-02
2.576000000000000156e+01,1.549761596567161490e-02
2.580000000000000071e+01,1.251725937360931469e-02
2.583999999999999986e+01,1.680781783835754231e-02
2.587999999999999901e+01,1.627978627022164809e-02
2.592000000000000171e+01,9.093457614920181717e-03
2.596000000000000085e+01,1.452195666889515707e-02
2.600000000000000000e+01,1.302934387227966569e-02
2.603999999999999915e+01,6.542931961585335757e-03
2.607999999999999829e+01,1.004319527397834824e-02
2.612000000000000099e+01,6.622347592005575420e-03
2.616000000000000014e+01,1.537830348928135443e-02
2.619999999999999929e+01,1.213205250100809693e-02
2.623999999999999844e+01,1.457982741817939049e-02
2.628000000000000114e+01,1.518758894461755618e-02
2.632000000000000028e+01,2.227782295004084728e-02
2.635999999999999943e+01,1.465009275772050611e-02
2.639999999999999858e+01,1.201554872116728304e-02
2.644000000000000128e+01,1.060717133499649786e-02
2.648000000000000043e+01,1.410437556399549500e-02
2.651999999999999957e+01,1.733846012015900079e-02
2.655999999999999872e+01,1.654240549810226044e-02
2.660000000000000142e+01,1.145339664899205565e-02
2.664000000000000057e+01,1.153278589092597214e-02
2.667999999999999972e+01,1.021019015327795203e-02
2.671999999999999886e+01,1.537006974869730910e-02
2.676000000000000156e+01,1.702544226142030034e-02
2.680000000000000071e+01,1.543912331109643064e-02
2.683999999999999986e+01,1.069871829454775367e-02
2.687999999999999901e+01,9.812636410285674807e-03
2.692000000000000171e+01,9.627093932821934041e-03
2.696000000000000085e+01,1.303305982421985518e-02
2.700000000000000000e+01,1.127002322850880443e-02
2.703999999999999915e+01,1.616467447195838250e-02
2.707999999999999829e+01,1.527708801921886031e-02
2.712000000000000099e+01,1.763059063131868290e-02
2.716000000000000014e+01,2.234913147952822393e-02
2.719999999999999929e+01,1.305055501487710837e-02
2.723999999999999844e+01,1.154853426480711986e-02
2.728000000000000114e+01,1.013381971031300163e-02
2.732000000000000028e+01,1.782973811242326637e-02
2.735999999999999943e+01,9.756438115029910166e-03
2.739999999999999858e+01,1.219545342767805116e-02
2.744000000000000128e+01,8.501813167155940557e-03
2.748000000000000043e+01,1.058981277114709636e-02
2.751999999999999957e+01,1.618171962830121033e-02
2.755999999999999872e+01,1.967080689354409537e-02
2.760000000000000142e+01,1.431148127342202897e-02
2.764000000000000057e+01,1.184282798279114729e-02
2.767999999999999972e+01,1.156400641574925788e-02
2.771999999999999886e+01,9.620391955497960973e-03
2.776000000000000156e+01,1.713783403699665336e-02
2.780000000000000071e+01,1.028774264110283651e-02
2.783999999999999986e+01,1.149702657515485997e-02
2.787999999999999901e+01,9.464626752182091207e-03
2.792000000000000171e+01,1.417752615876479230e-02
2.796000000000000085e+01,1.223214303400132347e-02
2.800000000000000000e+01,1.046167635357556427e-02
2.803999999999999915e+01,8.866126402895658024e-03
2.807999999999999829e+01,4.379314567887300155e-03
2.812000000000000099e+01,1.180650496288901397e-02
2.816000000000000014e+01,1.502835737317186580e-02
2.819999999999999929e+01,7.124068282454658514e-03
2.823999999999999844e+01,1.288588450624801422e-02
2.828000000000000114e+01,8.835636471064643033e-03
2.832000000000000028e+01,7.500855394484619298e-03
2.835999999999999943e+01,1.194772046139880479e-02
2.839999999999999858e+01,5.881681234250554433e-03
2.844000000000000128e+01,1.365695897148162981e-02
2.848000000000000043e+01,1.030609720557017391e-02
2.851999999999999957e+01,1.194843672206175739e-02
2.855999999999999872e+01,5.005185537227196425e-03
2.860000000000000142e+01,1.672153358616322236e-02
2.864000000000000057e+01,1.792497905348615708e-02
2.867999999999999972e+01,1.702561292032805235e-02
2.871999999999999886e+01,1.402343547209711563e-02
2.876000000000000156e+01,1.075815433389117233e-02
2.880000000000000071e+01,5.740482897083994639e-03
2.883999999999999986e+01,8.431773479773070276e-03
2.887999999999999901e+01,1.156080212002208105e-02
2.892000000000000171e+01,1.144815442386012960e-02
2.896000000000000085e+01,8.269040899523015173e-03
2.900000000000000000e+01,1.446338765317702751e-02
2.903999999999999915e+01,8.743152896679590516e-03
2.907999999999999829e+01,6.964862081334813500e-03
2.912000000000000099e+01,8.252464378413005078e-03
2.916000000000000014e+01,9.364570951012183078e-03
2.919999999999999929e+01,1.196567920140257854e-02
2.923999999999999844e+01,1.027385206168232763e-02
2.928000000000000114e+01,1.804309230922455237e-02
2.932000000000000028e+01,1.521182971567974600e-02
2.935999999999999943e+01,1.036536548500746439e-02
2.939999999999999858e+01,9.110427033098472682e-03
2.944000000000000128e+01,1.022054308556792288e-02
2.948000000000000043e+01,1.264445259085856220e-02
2.951999999999999957e+01,0.000000000000000000e+00
2.955999999999999872e+01,1.092103973188162346e-02
2.960000000000000142e+01,1.106636839770616665e-02
2.964000000000000057e+01,1.629251144877773977e-02
2.967999999999999972e+01,1.012970822471217884e-02
2.971999999999999886e+01,8.872509733882512697e-03
2.976000000000000156e+01,1.777722294652435073e-02
2.980000000000000071e+01,4.692772259185198046e-03
2.983999999999999986e+01,7.376960976616483111e-03
2.987999999999999901e+01,8.045951767227244381e-03
2.992000000000000171e+01,1.686193784042520905e-02
2.996000000000000085e+01,7.543386057481803186e-03
3.000000000000000000e+01,1.469431571225209530e-02
3.003999999999999915e+01,1.404811122852460403e-02
3.007999999999999829e+01,9.897423350983243148e-03
3.012000000000000099e+01,1.547062418851844270e-02
3.016000000000000014e+01,1.377232241226327564e-02
3.019999999999999929e+01,1.522752656586690879e-02
3.023999999999999844e+01,6.082234442772618647e-03
3.028000000000000114e+01,6.660832176387791737e-03
3.032000000000000028e+01,6.625916905293487667e-03
3.035999999999999943e+01,1.797938917858709837e-02
3.039999999999999858e+01,1.330084940916070532e-02
3.044000000000000128e+01,1.028653038800804269e-02
3.048000000000000043e+01,9.549668180433852627e-03
3.051999999999999957e+01,6.271981944087941761e-03
3.055999999999999872e+01,1.061566488837809366e-02
3.060000000000000142e+01,9.352345475230365232e-03
3.064000000000000057e+01,1.133014024284564880e-02
3.067999999999999972e+01,1.225639901735652709e-02
3.071999999999999886e+01,1.169309652710226466e-02
3.076000000000000156e+01,1.051628417162899821e-02
3.080000000000000071e+01,1.135411557875863273e-02
3.083999999999999986e+01,1.052717635452019192e-02
3.087999999999999901e+01,1.285374791208037000e-02
3.092000000000000171e+01,6.331930273158213433e-03
3.096000000000000085e+01,1.251258113095412433e-02
3.100000000000000000e+01,1.159694559135997401e-02
3.103999999999999915e+01,1.409763730943866533e-02
3.107999999999999829e+01,9.940068758012655936e-03
3.112000000000000099e+01,1.068811492911036186e-02
3.116000000000000014e+01,8.194500746657609400e-03
3.119999999999999929e+01,1.253381430864840274e-02
3.123999999999999844e+01,1.354386297649136373e-02
3.128000000000000114e+01,6.231155685008775771e-03
3.132000000000000028e+01,7.065453665401231695e-03
3.135999999999999943e+01,1.061524029542198350e-02
3.139999999999999858e+01,1.171181428706573845e-02
3.144000000000000128e+01,1.280811904532680456e-02
3.148000000000000043e+01,1.153881684744107947e-02
3.151999999999999957e+01,1.552555267181647720e-02
3.155999999999999872e+01,9.787852752103205767e-03
3.160000000000000142e+01,1.465010322170865256e-02
3.164000000000000057e+01,1.916166543931737895e-02
3.167999999999999972e+01,1.009416786685538026e-02
3.171999999999999886e+01,1.075057042579890577e-02
3.176000000000000156e+01,1.018023447483242146e-02
3.180000000000000071e+01,1.066089319612277368e-02
3.183999999999999986e+01,8.688342418526522407e-03
3.187999999999999901e+01,1.118338622914131185e-02
3.192000000000000171e+01,7.458201320893041546e-03
3.196000000000000085e+01,1.529662559618917388e-02
3.200000000000000000e+01,7.015444133680504187e-03
3.203999999999999915e+01,1.257560532229118691e-02
3.207999999999999829e+01,1.051385715105108455e-02
3.211999999999999744e+01,1.064197238371283882e-02
3.215999999999999659e+01,1.567570975951208118e-02
3.220000000000000284e+01,1.238669774037490408e-02
3.224000000000000199e+01,1.391570332377793477e-02
3.228000000000000114e+01,1.281629232495725551e-02
3.232000000000000028e+01,1.451998193697607957e-02
3.235999999999999943e+01,1.368286064900141666e-02
3.239999999999999858e+01,5.486647618683134983e-03
3.243999999999999773e+01,1.375993343598016193e-02
3.247999999999999687e+01,1.187076451650870799e-02
3.252000000000000313e+01,8.316836952814606054e-03
3.256000000000000227e+01,1.588849729671928945e-02
3.260000000000000142e+01,8.742237966563178378e-03
3.264000000000000057e+01,7.465260429994922085e-03
3.267999999999999972e+01,8.202940070216081792e-03
3.271999999999999886e+01,1.253216917808303368e-02
3.275999999999999801e+01,1.283130334600437496e-02
3.279999999999999716e+01,1.400622909856050549e-02
3.284000000000000341e+01,1.228992693036670344e-02
3.288000000000000256e+01,6.368320455624359652e-03
3.292000000000000171e+01,8.856546003327364289e-03
3.296000000000000085e+01,1.187014383164288270e-02
3.300000000000000000e+01,1.400743244335856189e-02
3.303999999999999915e+01,9.486474770572477302e-03
3.307999999999999829e+01,2.502683007989860153e-02
3.311999999999999744e+01,2.821460743364311366e-02
3.315999999999999659e+01,2.010106845417971438e-02
3.320000000000000284e+01,1.408979547322640295e-02
3.324000000000000199e+01,6.063348539743269698e-03
3.328000000000000114e+01,1.065178154524141010e-02
3.332000000000000028e+01,1.068449293802630450e-02
3.335999999999999943e+01,1.229384080247141603e-02
3.339999999999999858e+01,8.909442067950806496e-03
3.343999999999999773e+01,1.454811484607895604e-02
3.347999999999999687e+01,1.317812403354069392e-02
3.352000000000000313e+01,9.705356154916359307e-03
3.356000000000000227e+01,1.078779996306223135e-02
3.360000000000000142e+01,7.402129267766204522e-03
3.364000000000000057e+01,1.409079284912557670e-02
3.367999999999999972e+01,1.333276870979064818e-02
3.371999999999999886e+01,1.572827561623816109e-02
3.375999999999999801e+01,1.654663783753174133e-02
3.379999999999999716e+01,8.078605854666113043e-03
3.384000000000000341e+01,9.947724909738369509e-03
3.388000000000000256e+01,9.013228576088265498e-03
3.392000000000000171e+01,9.392557375572178555e-03
3.396000000000000085e+01,6.617850911495034606e-03
3.400000000000000000e+01,5.507390597023507917e-03
3.403999999999999915e+01,1.709942075570325751e-02
3.407999999999999829e+01,1.073215267811623679e-02
3.411999999999999744e+01,1.487724785915222649e-02
3.415999999999999659e+01,1.411620697539247606e-02
3.420000000000000284e+01,1.449378299979671089e-02
3.424000000000000199e+01,1.189253598132505689e-02
3.428000000000000114e+01,7.100912208109828004e-03
3.432000000000000028e+01,1.063152533521398956e-02
3.435999999999999943e+01,8.730373156080818015e-03
3.439999999999999858e+01,8.318259757807876936e-03
3.443999999999999773e+01,1.395065121932048159e-02
3.447999999999999687e+01,9.683417548717182521e-03
3.452000000000000313e+01,6.642408180957437222e-03
3.456000000000000227e+01,6.930146075380377163e-03
3.460000000000000142e+01,7.130032172256501287e-03
3.464000000000000057e+01,1.407526544726959289e-02
3.467999999999999972e+01,1.015721879165621018e-02
3.471999999999999886e+01,2.209091181100118675e-03
3.475999999999999801e+01,1.090568919466384373e-02
3.479999999999999716e+01,4.095937228894924731e-03
3.484000000000000341e+01,1.252922967544167071e-02
3.488000000000000256e+01,1.513942699851658288e-03
3.492000000000000171e+01,6.530146710117888664e-03
3.496000000000000085e+01,7.078245920821779440e-03
3.500000000000000000e+01,1.226917220440571984e-02
3.503999999999999915e+01,1.062665625107145524e-02
3.507999999999999829e+01,7.582215253882236203e-03
3.511999999999999744e+01,5.413582395004752114e-03
3.515999999999999659e+01,7.537357304985023952e-03
3.520000000000000284e+01,9.660889809955617094e-03
3.524000000000000199e+01,5.914637730600805915e-03
3.528000000000000114e+01,9.789788510052455789e-03
3.532000000000000028e+01,9.459652392857174560e-03
3.535999999999999943e+01,3.872968327457709022e-03
3.539999999999999858e+01,5.382057308606649770e-03
3.543999999999999773e+01,8.380192491229631474e-03
3.547999999999999687e+01,1.916735234011196411e-03
3.552000000000000313e+01,5.878046113289813780e-03
3.556000000000000227e+01,8.174620039370751948e-03
3.560000000000000142e+01,8.368431740593275034e-03
3.564000000000000057e+01,8.562004176296551805e-03
3.567999999999999972e+01,1.383643409388859644e-02
3.571999999999999886e+01,1.359150329770912775e-02
3.575999999999999801e+01,1.238267786668340205e-02
3.579999999999999716e+01,9.158696749254149200e-03
3.584000000000000341e+01,6.898134018898468937e-03
3.588000000000000256e+01,8.842379083334786158e-03
3.592000000000000171e+01,1.183764821707490068e-02
3.596000000000000085e+01,1.308057814028576807e-02
3.600000000000000000e+01,1.108188224434121863e-02
3.603999999999999915e+01,8.469714157063119170e-03
3.607999999999999829e+01,9.361514400307805600e-03
3.611999999999999744e+01,1.489614970786277623e-02
3.615999999999999659e+01,8.253438973688664512e-03
3.620000000000000284e+01,6.341168986055095540e-03
3.624000000000000199e+01,7.670053136335840648e-03
3.628000000000000114e+01,7.334205470766927068e-03
3.632000000000000028e+01,9.013040954135718291e-03
3.635999999999999943e+01,1.191811386912633615e-02
3.639999999999999858e+01,8.252569585319748796e-03
3.643999999999999773e+01,1.238364665998565456e-02
3.647999999999999687e+01,1.117057866646384810e-02
3.652000000000000313e+01,1.013248790923130215e-02
3.656000000000000227e+01,1.268597401883401685e-02
3.660000000000000142e+01,1.506401748988727383e-02
3.664000000000000057e+01,1.008299947186857594e-02
3.667999999999999972e+01,1.097129207366832893e-02
3.671999999999999886e+01,6.077415762660761007e-03
3.675999999999999801e+01,1.143310621297756284e-02
3.679999999999999716e+01,1.302154588382067359e-02
3.684000000000000341e+01,1.574862129977050787e-02
3.688000000000000256e+01,9.714955156477078635e-03
3.692000000000000171e+01,1.042665245958934554e-02
3.696000000000000085e+01,1.218938125261921981e-02
3.700000000000000000e+01,1.710566449490586935e-02
3.703999999999999915e+01,1.790427822451299764e-02
3.707999999999999829e+01,1.055538760181448654e-02
3.711999999999999744e+01,9.513836295493858022e-03
3.715999999999999659e+01,1.530525525944204969e-02
3.720000000000000284e+01,1.032101738489560154e-02
3.724000000000000199e+01,1.462269347102054286e-02
3.728000000000000114e+01,1.366783530853601589e-02
3.732000000000000028e+01,2.173607634329795951e-02
3.735999999999999943e+01,1.824021567847405531e-02
3.739999999999999858e+01,1.789791231698917642e-02
3.743999999999999773e+01,2.079677165566530539e-02
3.747999999999999687e+01,2.255653840922119263e-02
3.752000000000000313e+01,2.063666463206520474e-02
3.756000000000000227e+01,2.476131797653615546e-02
3.760000000000000142e+01,1.889876333931883243e-02
3.764000000000000057e+01,2.057002328857930259e-02
3.767999999999999972e+01,2.197824319389856534e-02
3.771999999999999886e+01,2.583918179451233019e-02
3.775999999999999801e+01,2.426837934858772083e-02
3.779999999999999716e+01,2.821647506825667936e-02
3.784000000000000341e+01,2.874774787472089352e-02
3.788000000000000256e+01,3.786409831707773788e-02
3.792000000000000171e+01,4.321320597139112485e-02
3.796000000000000085e+01,4.356859956327624461e-02
3.800000000000000000e+01,5.312230742717519161e-02
3.803999999999999915e+01,5.417809734291071516e-02
3.807999999999999829e+01,6.031476186502841147e-02
3.811999999999999744e+01,7.967957664041892818e-02
3.815999999999999659e+01,1.010590876935254234e-01
3.820000000000000284e+01,1.234896390842044611e-01
3.824000000000000199e+01,1.565201882419673118e-01
3.828000000000000114e+01,2.042681756886702560e-01
3.832000000000000028e+01,2.811008399815830283e-01
3.835999999999999943e+01,4.096203001508715302e-01
3.839999999999999858e+01,6.042813998652192264e-01
3.843999999999999773e+01,7.960513116159682045e-01
3.847999999999999687e+01,9.703875871938377751e-01
3.852000000000000313e+01,1.000000000000000000e+00
3.856000000000000227e+01,8.825232123116908411e-01
3.860000000000000142e+01,7.183526820945212998e-01
3.864000000000000057e+01,5.316674203841053048e-01
3.867999999999999972e+01,3.735412074200904486e-01
3.871999999999999886e+01,2.588669124282290679e-01
3.875999999999999801e+01,1.767815018786194903e-01
3.879999999999999716e+01,1.328040980757387857e-01
3.884000000000000341e+01,1.094136790222372257e-01
3.888000000000000256e+01,9.092893006045474347e-02
3.892000000000000171e+01,7.577295947035128654e-02
3.896000000000000085e+01,6.009114263512843612e-02
3.900000000000000000e+01,5.176793986743537940e-02
3.903999999999999915e+01,5.465797635488715139e-02
3.907999999999999829e+01,4.905010231478930394e-02
3.911999999999999744e+01,4.090146560868775094e-02
3.915999999999999659e+01,4.387846390254188794e-02
3.920000000000000284e+01,3.651784518538150198e-02
3.924000000000000199e+01,3.555218602264861860e-02
3.928000000000000114e+01,2.985563755020018487e-02
3.932000000000000028e+01,2.994081342309915655e-02
3.935999999999999943e+01,2.836127945658166449e-02
3.939999999999999858e+01,3.378994196602109340e-02
3.943999999999999773e+01,2.844296361982640714e-02
3.947999999999999687e+01,2.370900918719842654e-02
3.952000000000000313e+01,2.020131473344194406e-02
3.956000000000000227e+01,2.168690033475810172e-02
3.960000000000000142e+01,2.466156182000356356e-02
3.964000000000000057e+01,2.132844455875926651e-02
3.967999999999999972e+01,1.939679864084695865e-02
3.971999999999999886e+01,2.342209014519182689e-02
3.975999999999999801e+01,2.113960375927164542e-02
3.979999999999999716e+01,2.752981382025262991e-02
3.984000000000000341e+01,2.121707342857832509e-02
3.988000000000000256e+01,2.235055849482857349e-02
3.992000000000000171e+01,2.909056196472201150e-02
3.996000000000000085e+01,2.715745096321917768e-02
4.000000000000000000e+01,3.109367427041734994e-02
4.003999999999999915e+01,2.697001945693221214e-02
4.007999999999999829e+01,2.197010594410274062e-02
4.011999999999999744e+01,2.538007582719882874e-02
4.015999999999999659e+01,3.080475625842209186e-02
4.020000000000000284e+01,2.895800571331904119e-02
4.024000000000000199e+01,3.333101163502148745e-02
4.028000000000000114e+01,3.568889383604145066e-02
4.032000000000000028e+01,3.909783150126977525e-02
4.035999999999999943e+01,4.268177380197679671e-02
4.039999999999999858e+01,3.916949677622622722e-02
4.043999999999999773e+01,5.309043190528731776e-02
4.047999999999999687e+01,6.149204028415546780e-02
4.052000000000000313e+01,7.155794133416960856e-02
4.056000000000000227e+01,9.537764071584095560e-02
4.060000000000000142e+01,1.194599515568541132e-01
4.064000000000000057e+01,1.686847257841334879e-01
4.067999999999999972e+01,2.333277963161567159e-01
4.071999999999999886e+01,3.002483967262636888e-01
4.075999999999999801e+01,3.426393632072429196e-01
4.079999999999999716e+01,3.672462896233644192e-01
4.084000000000000341e+01,3.516422677381064732e-01
4.088000000000000256e+01,3.207947545898070518e-01
4.092000000000000171e+01,2.767186680263917786e-01
4.096000000000000085e+01,2.336060363823025954e-01
4.100000000000000000e+01,1.841856356956032004e-01
4.103999999999999915e+01,1.439635709719427337e-01
4.107999999999999829e+01,1.125894220510741256e-01
4.111999999999999744e+01,9.794764924564662578e-02
4.115999999999999659e+01,7.384432452834543970e-02
4.120000000000000284e+01,6.025341358692283544e-02
4.124000000000000199e+01,5.682449626113181967e-02
4.128000000000000114e+01,4.551091988514001374e-02
4.132000000000000028e+01,4.768833192932026704e-02
4.135999999999999943e+01,2.980397500759941753e-02
4.139999999999999858e+01,2.558581729969467214e-02
4.143999999999999773e+01,3.100402396597989538e-02
4.147999999999999687e+01,2.967643945748472262e-02
4.152000000000000313e+01,2.519487362758271107e-02
4.156000000000000227e+01,1.922382387854409611e-02
4.160000000000000142e+01,1.780804318332858058e-02
4.164000000000000057e+01,1.770614270503418838e-02
4.167999999999999972e+01,2.005698917744837273e-02
4.171999999999999886e+01,1.539923085329010684e-02
4.175999999999999801e+01,1.783729095558775346e-02
4.179999999999999716e+01,1.431800816909484762e-02
4.184000000000000341e+01,1.885820060542597182e-02
4.188000000000000256e+01,1.787907628085196043e-02
4.192000000000000171e+01,1.286992237481545190e-02
4.196000000000000085e+01,9.174650968965853207e-03
4.200000000000000000e+01,1.467772237595242092e-02
4.203999999999999915e+01,1.308458615821854985e-02
4.207999999999999829e+01,1.639714286486161285e-02
4.211999999999999744e+01,1.042336473225591309e-02
4.215999999999999659e+01,1.364793055411928427e-02
4.220000000000000284e+01,9.601079670067539859e-03
4.224000000000000199e+01,1.151118418899108910e-02
4.228000000000000114e+01,6.325082795643526858e-03
4.232000000000000028e+01,1.103816738970825675e-02
4.235999999999999943e+01,1.084517442766304469e-02
4.239999999999999858e+01,9.775939319950448930e-03
4.243999999999999773e+01,6.954411237840794555e-03
4.247999999999999687e+01,1.201715272225916883e-02
4.252000000000000313e+01,4.552173099200828611e-03
4.256000000000000227e+01,1.399479008910723028e-02
4.260000000000000142e+01,8.018717865698353139e-03
4.264000000000000057e+01,1.001452146186413046e-02
4.267999999999999972e+01,7.191854896599573360e-03
4.271999999999999886e+01,8.136019373864275886e-03
4.275999999999999801e+01,6.451842045859794428e-03
4.279999999999999716e+01,1.308996212471806933e-02
4.284000000000000341e+01,8.514440050572251104e-03
4.288000000000000256e+01,7.355329714933418750e-03
4.292000000000000171e+01,1.451851764238198603e-02
4.296000000000000085e+01,8.891172267602951221e-03
4.300000000000000000e+01,1.141091550390018090e-02
4.303999999999999915e+01,1.410568249802707751e-02
4.307999999999999829e+01,1.005466973370250372e-02
4.311999999999999744e+01,1.161019820567898986e-02
4.315999999999999659e+01,1.106301839495126178e-02
4.320000000000000284e+01,1.244296571196189770e-02
4.324000000000000199e+01,1.031852353446416695e-02
4.328000000000000114e+01,1.064683972400394009e-02
4.332000000000000028e+01,8.346818103989666476e-03
4.335999999999999943e+01,9.638421870208651113e-03
4.339999999999999858e+01,1.268194396837952695e-02
4.343999999999999773e+01,1.344754955887617585e-02
4.347999999999999687e+01,1.465099738093432469e-02
4.352000000000000313e+01,9.459089029686612929e-03
4.356000000000000227e+01,1.162582728250620423e-02
4.360000000000000142e+01,1.545688018290501328e-02
4.364000000000000057e+01,1.227934198632606860e-02
4.367999999999999972e+01,1.435792857610818270e-02
4.371999999999999886e+01,9.865950196797963409e-03
4.375999999999999801e+01,1.658724475080288960e-02
4.379999999999999716e+01,1.936612824894561394e-02
4.384000000000000341e+01,1.014293072656575513e-02
4.388000000000000256e+01,1.686368301007034123e-02
4.392000000000000171e+01,1.745189730859263849e-02
4.396000000000000085e+01,1.637543458964419926e-02
4.400000000000000000e+01,1.854018137780542169e-02
4.403999999999999915e+01,2.604866063241543378e-02
4.407999999999999829e+01,2.076661457622809570e-02
4.411999999999999744e+01,2.328124467689211483e-02
4.415999999999999659e+01,2.491964518985062202e-02
4.420000000000000284e+01,3.321585598209765566e-02
4.424000000000000199e+01,3.572995151828334270e-02
4.428000000000000114e+01,3.728021321157440338e-02
4.432000000000000028e+01,4.347336847786152647e-02
4.435999999999999943e+01,5.089281825741515108e-02
4.439999999999999858e+01,5.708561971605741192e-02
4.443999999999999773e+01,6.108811691364483126e-02
4.447999999999999687e+01,7.665431262755058317e-02
4.452000000000000313e+01,9.160709665666616486e-02
4.456000000000000227e+01,1.096258839657789502e-01
4.460000000000000142e+01,1.350033252995727906e-01
4.464000000000000057e+01,1.615194580330769625e-01
4.467999999999999972e+01,1.930289073539064038e-01
4.471999999999999886e+01,2.400442869171240112e-01
4.475999999999999801e+01,2.726046489046219934e-01
4.479999999999999716e+01,2.798469597864988723e-01
4.484000000000000341e+01,2.744739610031620702e-01
4.488000000000000256e+01,2.606030930764681175e-01
4.492000000000000171e+01,2.155446324356537491e-01
4.496000000000000085e+01,1.921244615486421004e-01
4.500000000000000000e+01,1.548625105782567846e-01
4.503999999999999915e+01,1.180384129703537233e-01
4.507999999999999829e+01,9.742108906482312147e-02
4.511999999999999744e+01,7.189770729635001911e-02
4.515999999999999659e+01,6.117941801844525851e-02
4.520000000000000284e+01,5.256348036151758940e-02
4.524000000000000199e+01,3.982993170059619115e-02
4.528000000000000114e+01,3.778403615001969806e-02
4.532000000000000028e+01,3.538754995705886003e-02
4.535999999999999943e+01,2.659572071957043427e-02
4.539999999999999858e+01,3.094448856823769217e-02
4.543999999999999773e+01,2.206471525291820585e-02
4.547999999999999687e+01,2.334696580650203954e-02
4.552000000000000313e+01,1.727021823163948228e-02
4.556000000000000227e+01,2.126788998508286760e-02
4.560000000000000142e+01,1.983387663199968898e-02
4.564000000000000057e+01,1.875011581110827205e-02
4.567999999999999972e+01,1.617690046812724977e-02
4.571999999999999886e+01,1.710772223905085779e-02
4.575999999999999801e+01,1.707472072718405759e-02
4.579999999999999716e+01,1.896886489459014002e-02
4.584000000000000341e+01,1.674540233912583456e-02
4.588000000000000256e+01,1.487219402830261723e-02
4.592000000000000171e+01,1.221037379914946021e-02
4.596000000000000085e+01,1.760805818986733301e-02
4.600000000000000000e+01,8.725944075348150697e-03
4.603999999999999915e+01,1.578779517875745705e-02
4.607999999999999829e+01,1.557825726084933159e-02
4.611999999999999744e+01,1.563137018861784217e-02
4.615999999999999659e+01,1.349419112788512870e-02
4.620000000000000284e+01,1.705118039130045296e-02
4.624000000000000199e+01,1.684098623158278296e-02
4.628000000000000114e+01,1.654302361351952730e-02
4.632000000000000028e+01,1.361674459151896929e-02
4.635999999999999943e+01,1.498295325267871500e-02
4.639999999999999858e+01,1.880194254271742513e-02
4.643999999999999773e+01,1.578757093718161086e-02
4.647999999999999687e+01,2.293523033575469924e-02
4.652000000000000313e+01,1.816843294756991661e-02
4.656000000000000227e+01,1.962143712068992879e-02
4.660000000000000142e+01,2.668100736062644501e-02
4.664000000000000057e+01,2.121288589013323525e-02
4.667999999999999972e+01,2.459272017958319054e-02
4.671999999999999886e+01,2.227806201969546526e-02
4.675999999999999801e+01,2.311702794867100119e-02
4.679999999999999716e+01,2.439385979809058358e-02
4.684000000000000341e+01,3.232852076374145150e-02
4.688000000000000256e+01,2.720986106292923659e-02
4.692000000000000171e+01,2.585806237250972903e-02
4.696000000000000085e+01,3.116409365454616762e-02
4.700000000000000000e+01,2.823508625410261347e-02
4.703999999999999915e+01,2.784646916048338569e-02
4.707999999999999829e+01,3.008584777051046683e-02
4.711999999999999744e+01,3.486561725817831359e-02
4.715999999999999659e+01,3.062190320227494225e-02
4.720000000000000284e+01,3.899316840741456902e-02
4.724000000000000199e+01,2.966804460983426747e-02
4.728000000000000114e+01,4.136799133983719290e-02
4.732000000000000028e+01,4.421966589072937742e-02
4.735999999999999943e+01,4.426782123547049613e-02
4.739999999999999858e+01,3.967275031977921668e-02
4.743999999999999773e+01,4.348761502971838083e-02
4.747999999999999687e+01,4.371051538700703593e-02
4.752000000000000313e+01,4.524733791622564949e-02
4.756000000000000227e+01,4.056404332119654954e-02
4.760000000000000142e+01,5.024783306956845386e-02
4.764000000000000057e+01,4.915604047099204899e-02
4.767999999999999972e+01,4.377144405549593387e-02
4.771999999999999886e+01,4.206610924714319910e-02
4.775999999999999801e+01,4.325159032861795178e-02
4.779999999999999716e+01,4.198397578908728139e-02
4.784000000000000341e+01,3.896410680526973119e-02
4.788000000000000256e+01,4.023673635012493810e-02
4.792000000000000171e+01,3.196025710568244083e-02
4.796000000000000085e+01,3.568552676514268052e-02
4.800000000000000000e+01,3.117576487732846152e-02
4.803999999999999915e+01,2.631543175488911673e-02
4.807999999999999829e+01,2.215578902019832430e-02
4.811999999999999744e+01,2.509201009187090811e-02
4.815999999999999659e+01,2.601316366828100579e-02
4.820000000000000284e+01,2.369277847504381099e-02
4.824000000000000199e+01,2.654094549329132427e-02
4.828000000000000114e+01,1.957719095667374842e-02
4.832000000000000028e+01,1.979690676487449313e-02
4.835999999999999943e+01,1.782634628202627719e-02
4.839999999999999858e+01,2.163757493219219119e-02
4.843999999999999773e+01,1.844024673436719594e-02
4.847999999999999687e+01,1.839655489795905680e-02
4.852000000000000313e+01,1.773947991758311263e-02
4.856000000000000227e+01,1.997322653519912131e-02
4.860000000000000142e+01,1.835220145735351471e-02
4.864000000000000057e+01,1.524174297762686744e-02
4.867999999999999972e+01,2.054122897118554683e-02
4.871999999999999886e+01,1.497753521240418294e-02
4.875999999999999801e+01,1.642210471510398631e-02
4.879999999999999716e+01,1.164656594121099044e-02
4.884000000000000341e+01,1.431731655668457177e-02
4.888000000000000256e+01,1.567384570555399939e-02
4.892000000000000171e+01,1.089787254546909466e-02
4.896000000000000085e+01,1.400621518804437589e-02
4.900000000000000000e+01,1.361020943489545977e-02
4.903999999999999915e+01,1.303884980515455060e-02
4.907999999999999829e+01,1.290537236412640267e-02
4.911999999999999744e+01,1.250893650590892241e-02
4.915999999999999659e+01,1.631740319801359973e-02
4.920000000000000284e+01,1.451900024750423304e-02
4.924000000000000199e+01,1.561142374692663266e-02
4.928000000000000114e+01,1.048374239465490673e-02
4.932000000000000028e+01,1.227672318816570678e-02
4.935999999999999943e+01,1.345632683128134346e-02
4.939999999999999858e+01,8.503431590341328436e-03
4.943999999999999773e+01,1.073401468564988762e-02
4.947999999999999687e+01,8.408991473167412578e-03
4.952000000000000313e+01,1.317984205633618462e-02
4.956000000000000227e+01,1.102974889435808306e-02
4.960000000000000142e+01,1.071922341402026420e-02
4.964000000000000057e+01,1.049616367245519502e-02
4.967999999999999972e+01,9.396913729519375258e-03
4.971999999999999886e+01,6.195002310828020241e-03
4.975999999999999801e+01,1.078980729154751725e-02
4.979999999999999716e+01,9.690141799362532102e-03
4.984000000000000341e+01,9.641599698543088653e-03
4.988000000000000256e+01,1.467401639953171653e-02
4.992000000000000171e+01,1.059536413870274495e-02
4.996000000000000085e+01,4.501657225981344802e-03
5.000000000000000000e+01,9.270847324602786085e-03
5.003999999999999915e+01,8.520778885596672070e-03
5.007999999999999829e+01,9.259861107474365652e-03
5.011999999999999744e+01,1.210133005554063154e-02
5.015999999999999659e+01,7.846649316755813230e-03
5.020000000000000284e+01,1.024982166849302753e-02
5.024000000000000199e+01,9.586680029229957198e-03
5.028000000000000114e+01,7.083696244167778447e-03
5.032000000000000028e+01,1.097575107161098511e-02
5.035999999999999943e+01,1.110065187296821465e-02
5.039999999999999858e+01,7.633609156475248958e-03
5.043999999999999773e+01,1.801094767333381776e-03
5.047999999999999687e+01,5.079378586157249319e-03
5.052000000000000313e+01,2.225171512355718795e-03
5.056000000000000227e+01,5.853609874922689922e-03
5.060000000000000142e+01,6.065316369508141382e-03
5.064000000000000057e+01,7.678572409278784303e-03
5.067999999999999972e+01,7.101568711677422666e-03
5.071999999999999886e+01,5.735987344732947600e-03
5.075999999999999801e+01,8.049689275956816922e-03
5.079999999999999716e+01,7.384686323309247978e-03
5.084000000000000341e+01,8.646865011370715240e-03
5.088000000000000256e+01,7.017944497790975893e-03
5.092000000000000171e+01,1.108322598652965348e-02
5.096000000000000085e+01,1.173177817596086220e-02
5.100000000000000000e+01,3.532084443837850592e-03
5.103999999999999915e+01,3.654746912671604907e-03
5.107999999999999829e+01,7.631905185767091405e-03
5.111999999999999744e+01,7.579099521291464588e-03
5.115999999999999659e+01,3.934355761721894384e-03
5.120000000000000284e+01,1.325504024967280939e-02
5.124000000000000199e+01,4.090918273002035720e-03
5.128000000000000114e+01,1.271050624242664115e-02
5.132000000000000028e+01,7.488359222976795869e-03
5.135999999999999943e+01,9.975334907852998270e-03
5.139999999999999858e+01,8.870374210084595867e-03
5.143999999999999773e+01,5.662764309114227089e-03
5.147999999999999687e+01,6.484863289315421879e-03
5.152000000000000313e+01,1.308877366437212995e-02
5.156000000000000227e+01,6.464186542900301341e-03
5.160000000000000142e+01,8.775195397996900584e-03
5.164000000000000057e+01,1.082326381662222087e-02
5.167999999999999972e+01,7.790110956426091367e-03
5.171999999999999886e+01,5.194859121885481330e-03
5.175999999999999801e+01,9.520286843029005311e-03
5.179999999999999716e+01,7.099997024713743457e-03
5.184000000000000341e+01,7.745762430692358300e-03
5.188000000000000256e+01,4.186359099028505622e-03
5.192000000000000171e+01,1.525688626909517745e-02
5.196000000000000085e+01,6.791350774922689203e-03
5.200000000000000000e+01,8.838306116849070984e-03
5.203999999999999915e+01,8.782616536696846721e-03
5.207999999999999829e+01,1.039130211066717664e-02
5.211999999999999744e+01,8.320451327927160662e-03
5.215999999999999659e+01,9.052842718505404659e-03
5.220000000000000284e+01,8.120615885706894410e-03
5.224000000000000199e+01,8.765160237250060882e-03
5.228000000000000114e+01,7.569876713405327556e-03
5.232000000000000028e+01,1.154317451268407554e-02
5.235999999999999943e+01,9.208784325288099648e-03
5.239999999999999858e+01,9.327217578004620355e-03
5.243999999999999773e+01,9.182716102414317100e-03
5.247999999999999687e+01,1.219187952906325076e-02
5.252000000000000313e+01,8.367725442187647078e-03
5.256000000000000227e+01,9.361733945229685008e-03
5.260000000000000142e+01,9.567178193115094195e-03
5.264000000000000057e+01,9.159268694079686010e-03
5.267999999999999972e+01,9.276872181910924067e-03
5.271999999999999886e+01,1.316137806432724454e-02
5.275999999999999801e+01,1.415479815928888212e-02
5.279999999999999716e+01,7.088431178790498104e-03
5.284000000000000341e+01,1.360073992744626446e-02
5.288000000000000256e+01,8.198637269251702470e-03
5.292000000000000171e+01,8.841171329441885329e-03
5.296000000000000085e+01,1.106048171132175545e-02
5.300000000000000000e+01,1.003828757254110471e-02
5.303999999999999915e+01,1.129371121757694225e-02
5.307999999999999829e+01,7.292713350251540591e-03
5.311999999999999744e+01,1.135127119086913605e-02
5.315999999999999659e+01,1.050382853559714454e-02
5.320000000000000284e+01,8.166985014981536714e-03
5.324000000000000199e+01,7.932550482395923572e-03
5.328000000000000114e+01,7.522792326490017681e-03
5.332000000000000028e+01,7.988972169637495457e-03
5.335999999999999943e+01,1.020714141138444504e-02
5.339999999999999858e+01,1.224998788603577811e-02
5.343999999999999773e+01,9.474440974068857463e-03
5.347999999999999687e+01,8.363279205512321943e-03
5.352000000000000313e+01,8.478477308705436102e-03
5.356000000000000227e+01,1.306142469136665867e-02
5.360000000000000142e+01,1.037303670945640029e-02
5.364000000000000057e+01,1.259042413489963250e-02
5.367999999999999972e+01,9.463789217691203834e-03
5.371999999999999886e+01,9.490828050376957578e-03
5.375999999999999801e+01,7.327629122123904305e-03
5.379999999999999716e+01,1.068344252275373572e-02
5.384000000000000341e+01,1.158620339901989156e-02
5.388000000000000256e+01,8.546625142296126673e-03
5.392000000000000171e+01,8.397906728266251244e-03
5.396000000000000085e+01,1.262933533637292972e-02
5.400000000000000000e+01,1.046548254812824236e-02
5.403999999999999915e+01,1.057925467890561202e-02
5.407999999999999829e+01,1.025489356028577367e-02
5.411999999999999744e+01,1.106929148312515293e-02
5.415999999999999659e+01,9.080218719211460496e-03
5.420000000000000284e+01,1.287297647250425052e-02
5.424000000000000199e+01,1.088369032179162775e-02
5.428000000000000114e+01,1.344976369930885561e-02
5.432000000000000028e+01,1.251152664039559270e-02
5.435999999999999943e+01,8.419399876115226528e-03
5.439999999999999858e+01,7.918977270737740173e-03
5.443999999999999773e+01,1.136067955532652288e-02
5.447999999999999687e+01,5.778950526048948905e-03
5.452000000000000313e+01,1.184859676196758221e-02
5.456000000000000227e+01,1.108494004018105092e-02
5.460000000000000142e+01,9.883153779304206660e-03
5.464000000000000057e+01,5.527479810917827752e-03
5.467999999999999972e+01,8.793347124326205549e-03
5.471999999999999886e+01,8.292091521144953278e-03
5.475999999999999801e+01,7.703127966161450908e-03
5.479999999999999716e+01,1.184473787254232587e-02
5.484000000000000341e+01,8.627416150592854757e-03
5.488000000000000256e+01,9.177012235272554927e-03
5.492000000000000171e+01,8.587640172817410239e-03
5.496000000000000085e+01,1.167758137639406980e-02
5.500000000000000000e+01,8.547458541652541361e-03
5.503999999999999915e+01,1.321408978020739873e-02
5.507999999999999829e+01,1.166065755126051082e-02
5.511999999999999744e+01,1.010712505059916527e-02
5.515999999999999659e+01,7.239415892424757269e-03
5.520000000000000284e+01,1.357014373180023305e-02
5.524000000000000199e+01,1.289236324258275293e-02
5.528000000000000114e+01,9.586330280870041312e-03
5.532000000000000028e+01,8.557931371242506746e-03
5.535999999999999943e+01,1.182208436162554381e-02
5.539999999999999858e+01,8.252940387876090897e-03
5.543999999999999773e+01,1.291857889857421157e-02
5.547999999999999687e+01,1.171457724150796673e-02
5.552000000000000313e+01,1.655523085436097150e-02
5.556000000000000227e+01,1.044514840826633005e-02
5.560000000000000142e+01,9.591275800183256262e-03
5.564000000000000057e+01,1.232911619865799738e-02
5.567999999999999972e+01,1.445362454123690944e-02
5.571999999999999886e+01,1.088370465132837243e-02
5.575999999999999801e+01,1.221957529540916750e-02
5.579999999999999716e+01,1.302971985123255703e-02
5.584000000000000341e+01,1.200006193299995964e-02
5.588000000000000256e+01,1.245959605984355706e-02
5.592000000000000171e+01,1.055369761496485065e-02
5.596000000000000085e+01,1.197669912566838232e-02
5.600000000000000000e+01,1.716662643443131117e-02
5.603999999999999915e+01,1.123061088631766881e-02
5.607999999999999829e+01,1.055080860111430596e-02
5.611999999999999744e+01,1.039654384788479130e-02
5.615999999999999659e+01,9.453740240830531272e-03
5.620000000000000284e+01,6.233111171325337978e-03
5.624000000000000199e+01,1.597794631077677566e-02
5.628000000000000114e+01,1.389599941449064409e-02
5.632000000000000028e+01,9.448622800564432725e-03
5.635999999999999943e+01,1.139632789578536205e-02
5.639999999999999858e+01,1.605970030618242630e-02
5.643999999999999773e+01,1.362696783881945858e-02
5.647999999999999687e+01,7.514730124242491142e-03
5.652000000000000313e+01,1.138938482841086140e-02
5.656000000000000227e+01,1.307382175021608653e-02
5.660000000000000142e+01,1.064072872396303916e-02
5.664000000000000057e+01,1.653003185581800039e-02
5.667999999999999972e+01,1.584886249084502610e-02
5.671999999999999886e+01,1.008650780848671658e-02
5.675999999999999801e+01,1.142007858066808670e-02
5.679999999999999716e+01,1.292877129110793673e-02
5.684000000000000341e+01,1.557624245076620097e-02
5.688000000000000256e+01,8.674668752568802377e-03
5.692000000000000171e+01,1.053351876740592739e-02
5.696000000000000085e+01,1.247988675072066699e-02
5.700000000000000000e+01,9.345071414507671176e-03
5.703999999999999915e+01,1.400702442200220735e-02
5.707999999999999829e+01,1.569031735471638003e-02
5.711999999999999744e+01,1.238003293554125993e-02
5.715999999999999659e+01,1.266147236843647925e-02
5.720000000000000284e+01,1.294282637084482115e-02
5.724000000000000199e+01,1.410014634231245012e-02
5.728000000000000114e+01,1.420612011714422057e-02
5.732000000000000028e+01,1.483763998619654252e-02
5.735999999999999943e+01,1.091360977287786707e-02
5.739999999999999858e+01,1.557479647466486136e-02
5.743999999999999773e+01,1.489198766217317282e-02
5.747999999999999687e+01,1.096770629474200405e-02
5.752000000000000313e+01,1.396414558177916550e-02
5.756000000000000227e+01,1.696050200700347996e-02
5.760000000000000142e+01,1.312357716554760773e-02
5.764000000000000057e+01,1.121388248419872766e-02
5.767999999999999972e+01,1.648772493319243526e-02
5.771999999999999886e+01,1.413984096900649905e-02
5.775999999999999801e+01,1.152906023580749575e-02
5.779999999999999716e+01,1.259761303262415914e-02
5.784000000000000341e+01,1.419171563396828990e-02
5.788000000000000256e+01,1.342039964859305552e-02
5.792000000000000171e+01,1.177295225594113953e-02
5.796000000000000085e+01,1.301639353221364058e-02
5.800000000000000000e+01,1.382172952909484047e-02
5.803999999999999915e+01,1.506501164613082214e-02
5.807999999999999829e+01,1.727187083721258565e-02
5.811999999999999744e+01,1.325868825181759567e-02
5.815999999999999659e+01,1.450173377056047409e-02
5.820000000000000284e+01,1.425541409998770138e-02
5.824000000000000199e+01,1.392141130812809061e-02
5.828000000000000114e+01,1.752956080542419220e-02
5.832000000000000028e+01,1.553090573318119914e-02
5.835999999999999943e+01,1.379498884153118957e-02
5.839999999999999858e+01,1.652685576374430393e-02
5.843999999999999773e+01,1.260065763567751011e-02
5.847999999999999687e+01,1.541997678904882992e-02
5.852000000000000313e+01,1.464741036243929866e-02
5.856000000000000227e+01,1.352434776356735251e-02
5.860000000000000142e+01,1.170036883218611955e-02
5.864000000000000057e+01,1.635909298963445641e-02
5.867999999999999972e+01,1.479777936632117354e-02
5.871999999999999886e+01,1.490088827489556567e-02
5.875999999999999801e+01,1.614278933228305984e-02
5.879999999999999716e+01,1.729701126409887227e-02
5.884000000000000341e+01,1.459653456495825681e-02
5.888000000000000256e+01,1.496216332195884381e-02
5.892000000000000171e+01,1.769305692919848072e-02
5.896000000000000085e+01,1.376588919646510624e-02
5.900000000000000000e+01,1.097751532499424872e-02
5.903999999999999915e+01,1.309495539098699118e-02
5.907999999999999829e+01,1.442387743795530385e-02
5.911999999999999744e+01,1.627835842251424900e-02
5.915999999999999659e+01,1.646827084472728478e-02
5.920000000000000284e+01,1.779697855524390443e-02
5.924000000000000199e+01,2.096532273078268241e-02
5.928000000000000114e+01,1.730039762678661427e-02
5.932000000000000028e+01,1.731481689831871826e-02
5.935999999999999943e+01,1.925647860251142665e-02
5.939999999999999858e+01,1.480289744046295319e-02
5.943999999999999773e+01,1.832131196944297366e-02
5.947999999999999687e+01,1.868587332530846287e-02
5.952000000000000313e+01,1.607179201629525475e-02
5.956000000000000227e+01,1.047906832781152382e-02
5.960000000000000142e+01,1.688817659702350829e-02
5.964000000000000057e+01,1.681443860102988311e-02
5.967999999999999972e+01,1.630260731279029041e-02
5.971999999999999886e+01,1.727999546881634971e-02
5.975999999999999801e+01,1.808210623765430305e-02
5.979999999999999716e+01,1.686923256502277646e-02
5.984000000000000341e+01,1.539347696460577862e-02
5.988000000000000256e+01,1.978719752077681693e-02
5.992000000000000171e+01,1.726004825253083658e-02
5.996000000000000085e+01,1.648493547524118932e-02
