2.003999999999999915e+01,8.604623364651391160e-03
2.007999999999999829e+01,1.168915807651777633e-02
2.012000000000000099e+01,1.553263414128235910e-02
2.016000000000000014e+01,9.167503236675197259e-03
2.019999999999999929e+01,1.419139987305332445e-02
2.023999999999999844e+01,1.457483021011853064e-02
2.028000000000000114e+01,1.082398909978902861e-02
2.032000000000000028e+01,1.399079122320302099e-02
2.035999999999999943e+01,1.260149370628503573e-02
2.039999999999999858e+01,1.112748205674004252e-02
2.044000000000000128e+01,7.037783815671107626e-03
2.048000000000000043e+01,8.094049077499668871e-03
2.051999999999999957e+01,1.674288514272050110e-02
2.055999999999999872e+01,1.889521061961172560e-02
2.060000000000000142e+01,1.261061335971268640e-02
2.064000000000000057e+01,7.338058630120027938e-03
2.067999999999999972e+01,1.387636383607067023e-02
2.071999999999999886e+01,1.543674330956228483e-02
2.076000000000000156e+01,1.193483159207699151e-02
2.080000000000000071e+01,1.281959395071147201e-02
2.083999999999999986e+01,1.353527971935851448e-02
2.087999999999999901e+01,1.340696312906381436e-02
2.092000000000000171e+01,1.133788961770427692e-02
2.096000000000000085e+01,5.725110071354245697e-03
2.100000000000000000e+01,1.150136406830463455e-02
2.103999999999999915e+01,1.972388149349284941e-02
2.107999999999999829e+01,1.630358095519712086e-02
2.112000000000000099e+01,6.133676754291092492e-03
2.116000000000000014e+01,1.081180340113262715e-02
2.119999999999999929e+01,1.456156433132468203e-02
2.123999999999999844e+01,1.729859408634934134e-02
2.128000000000000114e+01,1.202053499972030419e-02
2.132000000000000028e+01,2.133741068540064706e-02
2.135999999999999943e+01,1.723978957709831894e-02
2.139999999999999858e+01,1.406985094266799234e-02
2.144000000000000128e+01,1.174322932359164046e-02
2.148000000000000043e+01,1.582806508981307939e-02
2.151999999999999957e+01,9.535572573330281659e-03
2.155999999999999872e+01,1.378846021543085783e-02
2.160000000000000142e+01,1.998142093558735385e-02
2.164000000000000057e+01,8.372867513616086277e-03
2.167999999999999972e+01,1.591500253121885464e-02
2.171999999999999886e+01,1.611697807751139022e-02
2.176000000000000156e+01,1.032864659074954512e-02
2.180000000000000071e+01,1.677301223594085053e-02
2.183999999999999986e+01,1.638341386197176078e-02
2.187999999999999901e+01,1.962120583954401337e-02
2.192000000000000171e+01,1.796544684676372461e-02
2.196000000000000085e+01,1.487513328773086910e-02
2.200000000000000000e+01,1.321870125610893378e-02
2.203999999999999915e+01,1.628641563873010553e-02
2.207999999999999829e+01,1.876323394178354420e-02
2.212000000000000099e+01,1.406862729195185353e-02
2.216000000000000014e+01,6.167786645137355618e-03
2.219999999999999929e+01,9.571622786462187157e-03
2.223999999999999844e+01,1.204710101414724517e-02
2.228000000000000114e+01,1.840306987043249798e-02
2.232000000000000028e+01,1.404425341179349647e-02
2.235999999999999943e+01,6.057375663581690724e-03
2.239999999999999858e+01,1.620880265342247717e-02
2.244000000000000128e+01,4.846628123565267787e-03
2.248000000000000043e+01,8.163762828008047298e-03
2.251999999999999957e+01,2.286994248014999342e-02
2.255999999999999872e+01,8.638334753170526931e-03
2.260000000000000142e+01,7.061258953628084430e-03
2.264000000000000057e+01,1.864490993344102704e-02
2.267999999999999972e+01,1.377690671227596933e-02
2.271999999999999886e+01,1.650149080086974959e-02
2.276000000000000156e+01,8.426927117178925272e-03
2.280000000000000071e+01,8.451145895280945050e-03
2.283999999999999986e+01,1.252459102087124555e-02
2.287999999999999901e+01,1.685080365554647228e-02
2.292000000000000171e+01,1.560854675369307588e-02
2.296000000000000085e+01,1.402849765071976368e-02
2.300000000000000000e+01,1.801625975110538944e-02
2.303999999999999915e+01,1.508570107716956411e-02
2.307999999999999829e+01,1.713239389638783472e-02
2.312000000000000099e+01,1.015162257567218257e-02
2.316000000000000014e+01,1.481299828040908741e-02
2.319999999999999929e+01,1.635251354980656394e-02
2.323999999999999844e+01,1.097370954546137735e-02
2.328000000000000114e+01,1.133145036255291810e-02
2.332000000000000028e+01,4.939604023400765050e-03
2.335999999999999943e+01,1.288961048656021326e-02
2.339999999999999858e+01,1.484932222141129368e-02
2.344000000000000128e+01,1.689307414970035726e-02
2.348000000000000043e+01,7.378391880084542338e-03
2.351999999999999957e+01,1.389287878591851863e-02
2.355999999999999872e+01,1.500763247434339608e-02
2.360000000000000142e+01,1.198813962498142781e-02
2.364000000000000057e+01,1.529575460853431317e-02
2.367999999999999972e+01,1.050393299874518085e-02
2.371999999999999886e+01,6.217982476373146161e-03
2.376000000000000156e+01,9.187164032234511335e-03
2.380000000000000071e+01,1.578375034519352918e-02
2.383999999999999986e+01,1.773989736925767405e-02
2.387999999999999901e+01,1.142787778329097149e-02
2.392000000000000171e+01,1.313028330372462138e-02
2.396000000000000085e+01,1.154210257375079714e-02
2.400000000000000000e+01,8.519382583427841452e-03
2.403999999999999915e+01,1.393291739302128865e-02
2.407999999999999829e+01,1.192194467950038680e-02
2.412000000000000099e+01,1.598498612438205985e-02
2.416000000000000014e+01,1.346717823271845714e-02
2.419999999999999929e+01,5.718373442765434245e-03
2.423999999999999844e+01,1.146777047133305284e-02
2.428000000000000114e+01,1.569826458172816214e-02
2.432000000000000028e+01,1.241988721106963671e-02
2.435999999999999943e+01,1.057540907465154972e-02
2.439999999999999858e+01,2.028872150864075713e-02
2.444000000000000128e+01,1.684065753346178709e-02
2.448000000000000043e+01,1.077693727845020592e-02
2.451999999999999957e+01,6.231483216775876230e-03
2.455999999999999872e+01,7.169486304341272757e-03
2.460000000000000142e+01,1.097560832361556445e-02
2.464000000000000057e+01,9.128907952705012444e-03
2.467999999999999972e+01,1.327186018318387423e-02
2.471999999999999886e+01,9.568480899231634335e-03
2.476000000000000156e+01,9.576879333788991186e-03
2.480000000000000071e+01,6.463429337637180937e-03
2.483999999999999986e+01,1.220806893688564966e-02
2.487999999999999901e+01,1.398720311931893681e-02
2.492000000000000171e+01,1.070407732281395546e-02
2.496000000000000085e+01,1.239821712490362347e-02
2.500000000000000000e+01,1.417640882494577634e-02
2.503999999999999915e+01,1.131417023956567125e-02
2.507999999999999829e+01,1.368229542902884600e-02
2.512000000000000099e+01,9.300846967457254699e-03
2.516000000000000014e+01,1.715212084756239513e-02
2.519999999999999929e+01,9.732880054854790158e-03
2.523999999999999844e+01,7.122175444284594044e-03
2.528000000000000114e+01,1.590053648940075934e-02
2.532000000000000028e+01,1.025204134838908834e-02
2.535999999999999943e+01,1.869231673957551590e-02
2.539999999999999858e+01,8.909277406346434100e-03
2.544000000000000128e+01,1.734893137860118312e-02
2.548000000000000043e+01,1.659240740048403481e-02
2.551999999999999957e+01,1.254530887647380306e-02
2.555999999999999872e+01,9.088461003839289065e-03
2.560000000000000142e+01,9.512128669412606846e-03
2.564000000000000057e+01,1.153843669019814083e-02
2.567999999999999972e+01,1.533611688357918584e-02
2.571999999999999886e+01,1.432464037623829879e-02
2.576000000000000156e+01,1.111934598593778897e-02
2.580000000000000071e+01,1.331315228983163262e-02
2.583999999999999986e+01,7.998098517070589830e-03
2.587999999999999901e+01,1.660308766074494735e-02
2.592000000000000171e+01,1.078122512002777436e-02
2.596000000000000085e+01,2.090620127859695986e-03
2.600000000000000000e+01,1.600973209175139342e-02
2.603999999999999915e+01,2.256569166098799581e-03
2.607999999999999829e+01,1.153495258990631413e-02
2.612000000000000099e+01,1.456996441737554507e-02
2.616000000000000014e+01,1.507369832850764639e-02
2.619999999999999929e+01,1.338361765795348379e-02
2.623999999999999844e+01,1.321181608571413667e-02
2.628000000000000114e+01,1.109929780792121012e-02
2.632000000000000028e+01,1.522954171216499807e-02
2.635999999999999943e+01,8.223201820007193519e-03
2.639999999999999858e+01,1.184664415907304633e-02
2.644000000000000128e+01,8.973620026825418483e-03
2.648000000000000043e+01,1.850205965734198765e-02
2.651999999999999957e+01,1.275999451886573183e-02
2.655999999999999872e+01,1.359815639765583721e-02
2.660000000000000142e+01,1.603896583443620641e-02
2.664000000000000057e+01,7.174462058357760838e-03
2.667999999999999972e+01,1.130198385605853464e-02
2.671999999999999886e+01,8.933041283256107010e-03
2.676000000000000156e+01,1.601276302184658287e-02
2.680000000000000071e+01,9.846760299464728597e-03
2.683999999999999986e+01,6.801990591175493053e-03
2.687999999999999901e+01,1.194039971511997276e-02
2.692000000000000171e+01,1.083544324504133634e-02
2.696000000000000085e+01,1.588888800021780526e-02
2.700000000000000000e+01,9.130827691774721921e-03
2.703999999999999915e+01,8.446803450184397696e-03
2.707999999999999829e+01,1.425864436873148199e-02
2.712000000000000099e+01,1.112741691755396792e-02
2.716000000000000014e+01,1.617937039942061658e-02
2.719999999999999929e+01,1.380683976720173400e-02
2.723999999999999844e+01,1.210893814985397783e-02
2.728000000000000114e+01,1.074820281295811239e-02
2.732000000000000028e+01,1.225560681564252449e-02
2.735999999999999943e+01,1.342525162994023455e-02
2.739999999999999858e+01,6.242390485759976952e-03
2.744000000000000128e+01,1.365451003159965163e-02
2.748000000000000043e+01,5.036840183520903229e-03
2.751999999999999957e+01,2.071621386857584041e-02
2.755999999999999872e+01,1.083246803432914331e-02
2.760000000000000142e+01,1.039739281390619600e-02
2.764000000000000057e+01,3.803323160177498816e-03
2.767999999999999972e+01,1.644435272202002252e-02
2.771999999999999886e+01,1.474290986331378527e-02
2.776000000000000156e+01,1.169132171377331407e-02
2.780000000000000071e+01,5.855370676740426217e-03
2.783999999999999986e+01,1.107104146826722729e-02
2.787999999999999901e+01,9.115330523577736335e-03
2.792000000000000171e+01,1.559590349003296857e-02
2.796000000000000085e+01,9.927515561111696640e-03
2.800000000000000000e+01,1.235794910903161188e-02
2.803999999999999915e+01,8.038830914367021616e-03
2.807999999999999829e+01,1.257782662447896362e-02
2.812000000000000099e+01,9.186150571365301123e-03
2.816000000000000014e+01,7.734596815291527698e-03
2.819999999999999929e+01,8.813725966809680609e-03
2.823999999999999844e+01,4.240059738560978883e-03
2.828000000000000114e+01,8.187045881132559710e-03
2.832000000000000028e+01,8.759112727280259775e-03
2.835999999999999943e+01,1.388664188869314850e-02
2.839999999999999858e+01,1.091476987042318963e-02
2.844000000000000128e+01,8.195707077328213269e-03
2.848000000000000043e+01,1.163505691388709226e-02
2.851999999999999957e+01,7.987395574715529939e-03
2.855999999999999872e+01,1.007631867226051539e-02
2.860000000000000142e+01,7.693569711953049395e-03
2.864000000000000057e+01,1.003501668498852674e-02
2.867999999999999972e+01,5.542550958657891172e-03
2.871999999999999886e+01,1.648873311238901671e-02
2.876000000000000156e+01,1.241752457951092806e-02
2.880000000000000071e+01,7.671104627878337634e-03
2.883999999999999986e+01,9.673660317377688958e-03
2.887999999999999901e+01,1.091663942972020962e-02
2.892000000000000171e+01,1.528086716217464704e-02
2.896000000000000085e+01,7.243044226245149049e-03
2.900000000000000000e+01,1.143797244310487508e-02
2.903999999999999915e+01,3.821410902248552691e-03
2.907999999999999829e+01,4.472410458626376907e-03
2.912000000000000099e+01,1.372843444688906338e-02
2.916000000000000014e+01,9.654385922375302576e-03
2.919999999999999929e+01,1.384789939544294086e-02
2.923999999999999844e+01,6.398656128640810639e-03
2.928000000000000114e+01,1.354440735718339187e-02
2.932000000000000028e+01,1.022852306696039014e-02
2.935999999999999943e+01,6.827991870039699408e-03
2.939999999999999858e+01,3.342814066537134685e-03
2.944000000000000128e+01,6.859713681804123497e-03
2.948000000000000043e+01,1.712559374005514015e-02
2.951999999999999957e+01,6.805948744068308735e-03
2.955999999999999872e+01,7.959767274787478766e-03
2.960000000000000142e+01,9.197672216771073800e-03
2.964000000000000057e+01,5.204621076208032493e-03
2.967999999999999972e+01,1.040715887958681800e-02
2.971999999999999886e+01,8.860157545242851318e-03
2.976000000000000156e+01,1.347157844425692780e-02
2.980000000000000071e+01,1.183965535758231373e-02
2.983999999999999986e+01,1.273842748324562416e-02
2.987999999999999901e+01,8.996805637493212812e-03
2.992000000000000171e+01,1.225726481189939529e-02
2.996000000000000085e+01,8.261992097474834748e-03
3.000000000000000000e+01,9.075291278962704586e-03
3.003999999999999915e+01,6.851147103539237219e-03
3.007999999999999829e+01,7.326431458415767588e-03
3.012000000000000099e+01,9.404389781469166265e-03
3.016000000000000014e+01,5.492104095776987292e-03
3.019999999999999929e+01,1.453256676778945215e-04
3.023999999999999844e+01,7.031307695956476138e-03
3.028000000000000114e+01,1.214533454752466171e-02
3.032000000000000028e+01,6.460270348686047645e-03
3.035999999999999943e+01,3.559002539591456064e-03
3.039999999999999858e+01,1.154064424919745355e-02
3.044000000000000128e+01,9.060658843278952823e-03
3.048000000000000043e+01,9.280104968818016220e-03
3.051999999999999957e+01,1.025857047735391145e-02
3.055999999999999872e+01,1.182732415173493555e-02
3.060000000000000142e+01,7.912031670446215831e-03
3.064000000000000057e+01,6.443074645176798294e-03
3.067999999999999972e+01,5.648772444733492042e-03
3.071999999999999886e+01,1.016924209408878212e-02
3.076000000000000156e+01,2.203308821635430008e-03
3.080000000000000071e+01,6.470140207180362368e-03
3.083999999999999986e+01,9.386849410804231839e-03
3.087999999999999901e+01,6.060222731864839223e-03
3.092000000000000171e+01,1.015751336914677040e-02
3.096000000000000085e+01,4.974301413281655843e-03
3.100000000000000000e+01,5.501124418024890775e-04
3.103999999999999915e+01,1.401119575747789871e-02
3.107999999999999829e+01,3.933964171248401608e-03
3.112000000000000099e+01,1.056088485153241531e-02
3.116000000000000014e+01,3.604650748926505489e-03
3.119999999999999929e+01,1.419622709940316502e-02
3.123999999999999844e+01,1.137338078448891197e-02
3.128000000000000114e+01,8.634633485700872815e-03
3.132000000000000028e+01,4.630133365014560930e-03
3.135999999999999943e+01,5.940409895978949681e-03
3.139999999999999858e+01,8.431541205655632143e-03
3.144000000000000128e+01,1.066930969738646810e-02
3.148000000000000043e+01,2.782921911137488640e-03
3.151999999999999957e+01,1.278181001343221997e-02
3.155999999999999872e+01,1.037866695486713321e-02
3.160000000000000142e+01,9.578208968761960790e-03
3.164000000000000057e+01,1.535801611462409184e-02
3.167999999999999972e+01,4.433139309652106043e-03
3.171999999999999886e+01,1.594929086002548277e-02
3.176000000000000156e+01,5.276984748601943644e-03
3.180000000000000071e+01,1.164629904019479079e-02
3.183999999999999986e+01,7.722728237582135273e-03
3.187999999999999901e+01,1.130744771260267130e-02
3.192000000000000171e+01,4.008722383212938965e-03
3.196000000000000085e+01,0.000000000000000000e+00
3.200000000000000000e+01,1.168304738224211665e-02
3.203999999999999915e+01,5.564658652453004055e-03
3.207999999999999829e+01,1.159467842573259563e-02
3.211999999999999744e+01,1.171883465457242667e-02
3.215999999999999659e+01,5.599664604553162596e-03
3.220000000000000284e+01,5.976398129488062587e-03
3.224000000000000199e+01,4.243728148849545100e-03
3.228000000000000114e+01,1.128483782650820458e-02
3.232000000000000028e+01,1.031094149446190079e-02
3.235999999999999943e+01,1.034917562663849322e-02
3.239999999999999858e+01,6.675058039663316241e-03
3.243999999999999773e+01,8.062627931562942399e-03
3.247999999999999687e+01,4.725457600937192117e-03
3.252000000000000313e+01,3.159710762701198241e-03
3.256000000000000227e+01,5.052702889645898678e-03
3.260000000000000142e+01,1.394779614450487870e-02
3.264000000000000057e+01,1.314057061790978136e-02
3.267999999999999972e+01,5.330730886256611172e-03
3.271999999999999886e+01,5.788479562371370846e-03
3.275999999999999801e+01,8.945676876541757208e-03
3.279999999999999716e+01,5.184626644635123398e-03
3.284000000000000341e+01,8.172582065436003254e-03
3.288000000000000256e+01,1.149774578289454972e-02
3.292000000000000171e+01,7.482834061454582582e-03
3.296000000000000085e+01,7.601590375422885570e-03
3.300000000000000000e+01,1.261330685261908419e-02
3.303999999999999915e+01,8.681999377222587508e-03
3.307999999999999829e+01,9.728018423919250132e-03
3.311999999999999744e+01,6.724228119012688222e-03
3.315999999999999659e+01,1.232549255768239198e-02
3.320000000000000284e+01,1.615482372809188411e-02
3.324000000000000199e+01,2.688922341745407854e-03
3.328000000000000114e+01,9.470551290781083903e-03
3.332000000000000028e+01,7.899718698470637249e-03
3.335999999999999943e+01,2.447810072519060551e-03
3.339999999999999858e+01,1.184402412973639684e-02
3.343999999999999773e+01,3.438812578973960647e-03
3.347999999999999687e+01,1.106284493248458484e-02
3.352000000000000313e+01,9.828222693425339024e-03
3.356000000000000227e+01,4.965623197204990791e-03
3.360000000000000142e+01,5.924011710920180224e-03
3.364000000000000057e+01,4.688641464479698096e-03
3.367999999999999972e+01,1.172086682858526456e-02
3.371999999999999886e+01,6.013614203546864719e-03
3.375999999999999801e+01,3.343280753993054747e-03
3.379999999999999716e+01,3.794232538673301524e-03
3.384000000000000341e+01,8.041395926773482403e-03
3.388000000000000256e+01,9.251144769074893387e-03
3.392000000000000171e+01,6.917284813890776929e-03
3.396000000000000085e+01,1.048878132831777485e-02
3.400000000000000000e+01,9.082451748716857676e-03
3.403999999999999915e+01,1.189416406628342367e-02
3.407999999999999829e+01,8.293832993279688648e-03
3.411999999999999744e+01,5.705645589592135171e-03
3.415999999999999659e+01,7.926061293855628936e-03
3.420000000000000284e+01,9.724403370892920062e-03
3.424000000000000199e+01,4.941971740555438017e-03
3.428000000000000114e+01,1.129557601604813145e-02
3.432000000000000028e+01,1.224952780527016442e-02
3.435999999999999943e+01,1.219084685729270034e-02
3.439999999999999858e+01,9.600949816823885555e-03
3.443999999999999773e+01,1.106036615741258153e-02
3.447999999999999687e+01,9.229275178037605817e-03
3.452000000000000313e+01,6.976112972362477453e-03
3.456000000000000227e+01,1.054394597940104192e-02
3.460000000000000142e+01,5.421864014262697991e-03
3.464000000000000057e+01,9.242310931518586334e-03
3.467999999999999972e+01,7.325645029010625052e-03
3.471999999999999886e+01,1.021758643607426596e-02
3.475999999999999801e+01,7.203684106338034861e-03
3.479999999999999716e+01,5.286296306519575570e-03
3.484000000000000341e+01,5.562178198973548662e-03
3.488000000000000256e+01,8.874987670153235836e-03
3.492000000000000171e+01,7.547440984502422172e-03
3.496000000000000085e+01,9.763017029611423259e-03
3.500000000000000000e+01,1.644973945056730710e-02
3.503999999999999915e+01,1.368725837291574939e-02
3.507999999999999829e+01,6.537519614798002754e-03
3.511999999999999744e+01,7.992850305928552584e-03
3.515999999999999659e+01,8.013725469005972268e-03
3.520000000000000284e+01,7.696900266384846916e-03
3.524000000000000199e+01,1.261051506800895880e-02
3.528000000000000114e+01,1.237758186204182889e-02
3.532000000000000028e+01,9.950902500780763396e-03
3.535999999999999943e+01,9.886228250564460182e-03
3.539999999999999858e+01,1.479889792915513487e-02
3.543999999999999773e+01,8.153223144451970592e-03
3.547999999999999687e+01,8.594036854631299099e-03
3.552000000000000313e+01,1.274670901445851268e-02
3.556000000000000227e+01,9.390594025759530297e-03
3.560000000000000142e+01,1.185548205278394614e-02
3.564000000000000057e+01,9.511287807793944796e-03
3.567999999999999972e+01,1.003529562657728968e-02
3.571999999999999886e+01,1.275257974017966929e-02
3.575999999999999801e+01,1.260119493069133088e-02
3.579999999999999716e+01,1.219648001587456468e-02
3.584000000000000341e+01,1.373194502032281869e-02
3.588000000000000256e+01,1.062706107071872789e-02
3.592000000000000171e+01,7.100116398865942945e-03
3.596000000000000085e+01,1.462485447907133779e-02
3.600000000000000000e+01,9.410131676730866188e-03
3.603999999999999915e+01,9.847683674119563427e-03
3.607999999999999829e+01,9.778810391088821677e-03
3.611999999999999744e+01,1.325306854217483260e-02
3.615999999999999659e+01,1.132768801231492407e-02
3.620000000000000284e+01,1.404219437904214579e-02
3.624000000000000199e+01,1.937180973526198349e-02
3.628000000000000114e+01,1.474603634466028351e-02
3.632000000000000028e+01,1.720675775137194344e-02
3.635999999999999943e+01,1.629262018492668232e-02
3.639999999999999858e+01,2.111512587788614420e-02
3.643999999999999773e+01,1.640407281765587574e-02
3.647999999999999687e+01,1.962317334153953693e-02
3.652000000000000313e+01,1.693644333371661578e-02
3.656000000000000227e+01,1.374329164686329506e-02
3.660000000000000142e+01,1.569622440955720233e-02
3.664000000000000057e+01,1.478049485170703121e-02
3.667999999999999972e+01,1.808282699866423093e-02
3.671999999999999886e+01,2.054127563251906610e-02
3.675999999999999801e+01,1.650333522492553745e-02
3.679999999999999716e+01,2.208286597504713691e-02
3.684000000000000341e+01,2.454063862930219719e-02
3.688000000000000256e+01,1.991146283201980852e-02
3.692000000000000171e+01,2.245315209242085622e-02
3.696000000000000085e+01,2.313857053680899722e-02
3.700000000000000000e+01,2.449869122431271376e-02
3.703999999999999915e+01,2.796773235182166417e-02
3.707999999999999829e+01,3.042416115000252247e-02
3.711999999999999744e+01,1.921311412390734955e-02
3.715999999999999659e+01,2.529682499224115630e-02
3.720000000000000284e+01,2.859624350028520945e-02
3.724000000000000199e+01,2.970193025859163560e-02
3.728000000000000114e+01,3.342273380940032762e-02
3.732000000000000028e+01,3.165954162398632032e-02
3.735999999999999943e+01,2.761825283054817823e-02
3.739999999999999858e+01,3.218205059295643072e-02
3.743999999999999773e+01,3.986716090013255748e-02
3.747999999999999687e+01,3.295677473910311323e-02
3.752000000000000313e+01,3.456711027563359739e-02
3.756000000000000227e+01,3.938312501591297032e-02
3.760000000000000142e+01,4.462074922514299574e-02
3.764000000000000057e+01,4.884576530666555338e-02
3.767999999999999972e+01,6.057911518260594014e-02
3.771999999999999886e+01,5.299248790754482880e-02
3.775999999999999801e+01,5.730121447608849117e-02
3.779999999999999716e+01,6.498435356634313376e-02
3.784000000000000341e+01,7.224544633990535869e-02
3.788000000000000256e+01,7.840956702782088394e-02
3.792000000000000171e+01,8.010208558485511221e-02
3.796000000000000085e+01,9.672712679688824644e-02
3.800000000000000000e+01,1.030593291325422461e-01
3.803999999999999915e+01,1.197683037572036535e-01
3.807999999999999829e+01,1.384174751076124865e-01
3.811999999999999744e+01,1.509920964136773625e-01
3.815999999999999659e+01,1.791741679443899504e-01
3.820000000000000284e+01,2.079465849630570684e-01
3.824000000000000199e+01,2.371406162525268868e-01
3.828000000000000114e+01,2.796642231838802339e-01
3.832000000000000028e+01,3.140885033642581980e-01
3.835999999999999943e+01,3.665668422702417217e-01
3.839999999999999858e+01,4.185387733025195955e-01
3.843999999999999773e+01,4.751506080378670172e-01
3.847999999999999687e+01,5.504914284682370651e-01
3.852000000000000313e+01,6.426208224451694928e-01
3.856000000000000227e+01,7.177924868152764093e-01
3.860000000000000142e+01,8.198766163682276176e-01
3.864000000000000057e+01,9.111617172948497378e-01
3.867999999999999972e+01,1.000000000000000000e+00
3.871999999999999886e+01,9.838870680437779015e-01
3.875999999999999801e+01,9.443202445665102029e-01
3.879999999999999716e+01,8.247744715836938800e-01
3.884000000000000341e+01,7.120621150295826096e-01
3.888000000000000256e+01,6.095578055496420067e-01
3.892000000000000171e+01,4.850338236458923147e-01
3.896000000000000085e+01,4.193969321482234336e-01
3.900000000000000000e+01,3.591592403829483304e-01
3.903999999999999915e+01,3.125042272376573615e-01
3.907999999999999829e+01,2.741168502185395428e-01
3.911999999999999744e+01,2.377540434868125330e-01
3.915999999999999659e+01,2.149739162754168709e-01
3.920000000000000284e+01,1.947245545034460845e-01
3.924000000000000199e+01,1.679788222972037615e-01
3.928000000000000114e+01,1.617337627196082650e-01
3.932000000000000028e+01,1.544761076191670246e-01
3.935999999999999943e+01,1.467120518477983970e-01
3.939999999999999858e+01,1.384415957056180646e-01
3.943999999999999773e+01,1.183597278358182597e-01
3.947999999999999687e+01,1.132103940254159807e-01
3.952000000000000313e+01,1.102543650208295811e-01
3.956000000000000227e+01,1.084792520185696996e-01
3.960000000000000142e+01,1.018107206971215067e-01
3.964000000000000057e+01,9.294847563288102799e-02
3.967999999999999972e+01,8.104885953962638612e-02
3.971999999999999886e+01,8.070714896111357006e-02
3.975999999999999801e+01,8.120889285097100674e-02
3.979999999999999716e+01,8.322901757838449543e-02
3.984000000000000341e+01,7.664363240741885186e-02
3.988000000000000256e+01,7.225155474331090844e-02
3.992000000000000171e+01,6.701561757536105002e-02
3.996000000000000085e+01,6.903493403252587701e-02
4.000000000000000000e+01,7.198207251738925061e-02
4.003999999999999915e+01,6.573314229401594488e-02
4.007999999999999829e+01,6.176188683671286067e-02
4.011999999999999744e+01,5.180046209948741681e-02
4.015999999999999659e+01,5.795269714450001358e-02
4.020000000000000284e+01,5.288408647452879502e-02
4.024000000000000199e+01,4.967132297792198337e-02
4.028000000000000114e+01,4.713328633392276784e-02
4.032000000000000028e+01,4.695729201532203301e-02
4.035999999999999943e+01,4.484068663191389387e-02
4.039999999999999858e+01,4.221768838058798101e-02
4.043999999999999773e+01,4.220983063090909260e-02
4.047999999999999687e+01,3.654926933688468216e-02
4.052000000000000313e+01,3.417877521380891653e-02
4.056000000000000227e+01,3.450778825136119332e-02
4.060000000000000142e+01,3.238999747299804721e-02
4.064000000000000057e+01,3.111566776555179520e-02
4.067999999999999972e+01,2.840692394602671589e-02
4.071999999999999886e+01,3.261597641928063590e-02
4.075999999999999801e+01,2.501362706873499347e-02
4.079999999999999716e+01,2.719751040474763931e-02
4.084000000000000341e+01,2.609093413920178517e-02
4.088000000000000256e+01,2.009094915817184052e-02
4.092000000000000171e+01,2.024947014279581195e-02
4.096000000000000085e+01,2.378242735827551177e-02
4.100000000000000000e+01,2.343436586222341980e-02
4.103999999999999915e+01,2.072386961016297810e-02
4.107999999999999829e+01,1.843500893712396796e-02
4.111999999999999744e+01,2.584801759293553491e-02
4.115999999999999659e+01,2.119653015020379894e-02
4.120000000000000284e+01,1.873836011814971475e-02
4.124000000000000199e+01,1.493014593427112457e-02
4.128000000000000114e+01,2.630757659090041459e-02
4.132000000000000028e+01,2.055856683142396474e-02
4.135999999999999943e+01,2.333030758062000151e-02
4.139999999999999858e+01,2.213666686080809423e-02
4.143999999999999773e+01,2.026790955882054601e-02
4.147999999999999687e+01,1.266209045674765790e-02
4.152000000000000313e+01,1.914516313363830158e-02
4.156000000000000227e+01,1.845695671390120210e-02
4.160000000000000142e+01,2.156502012004067950e-02
4.164000000000000057e+01,1.277732254629348162e-02
4.167999999999999972e+01,2.271863467682955565e-02
4.171999999999999886e+01,1.899250549640151692e-02
4.175999999999999801e+01,2.058123099772074874e-02
4.179999999999999716e+01,2.233850020424373375e-02
4.184000000000000341e+01,1.658702938041423103e-02
4.188000000000000256e+01,1.421000169010280638e-02
4.192000000000000171e+01,1.352010226075004741e-02
4.196000000000000085e+01,1.527662322017550589e-02
4.200000000000000000e+01,1.821407848898865325e-02
4.203999999999999915e+01,2.123571350506628028e-02
4.207999999999999829e+01,1.944831456776624848e-02
4.211999999999999744e+01,1.799819325386355084e-02
4.215999999999999659e+01,1.637915531167134092e-02
4.220000000000000284e+01,2.167792476654111997e-02
4.224000000000000199e+01,1.744317898500578543e-02
4.228000000000000114e+01,1.978877816622889863e-02
4.232000000000000028e+01,1.800027126383890036e-02
4.235999999999999943e+01,1.697087257870956087e-02
4.239999999999999858e+01,1.585692482461906888e-02
4.243999999999999773e+01,1.845488744020221811e-02
4.247999999999999687e+01,1.725620820717036971e-02
4.252000000000000313e+01,1.479186018465200765e-02
4.256000000000000227e+01,1.941405377750490477e-02
4.260000000000000142e+01,1.998650914618880364e-02
4.264000000000000057e+01,1.726851841852322655e-02
4.267999999999999972e+01,1.784061106805706273e-02
4.271999999999999886e+01,1.520662398010675861e-02
4.275999999999999801e+01,1.366921114510965228e-02
4.279999999999999716e+01,1.550624834629303790e-02
4.284000000000000341e+01,1.936788374563252341e-02
4.288000000000000256e+01,1.504586084855908876e-02
4.292000000000000171e+01,2.143810988915035437e-02
4.296000000000000085e+01,2.023726154399655211e-02
4.300000000000000000e+01,2.156720714926442170e-02
4.303999999999999915e+01,1.521969021038496565e-02
4.307999999999999829e+01,2.017700672006951523e-02
4.311999999999999744e+01,1.973473676894975382e-02
4.315999999999999659e+01,2.410113745182613718e-02
4.320000000000000284e+01,2.213992892915837146e-02
4.324000000000000199e+01,1.815376519138385894e-02
4.328000000000000114e+01,1.728895781527758913e-02
4.332000000000000028e+01,2.148591954953179770e-02
4.335999999999999943e+01,2.213934331361887276e-02
4.339999999999999858e+01,2.355188309797625473e-02
4.343999999999999773e+01,2.462678434048083675e-02
4.347999999999999687e+01,2.367673216857322377e-02
4.352000000000000313e+01,3.023505760798382569e-02
4.356000000000000227e+01,2.903155864611817183e-02
4.360000000000000142e+01,2.352523168707612924e-02
4.364000000000000057e+01,2.662403810193840481e-02
4.367999999999999972e+01,2.871028170657236381e-02
4.371999999999999886e+01,3.003706007699503619e-02
4.375999999999999801e+01,3.026691047878714291e-02
4.379999999999999716e+01,3.699275148910262379e-02
4.384000000000000341e+01,3.831901144069742304e-02
4.388000000000000256e+01,3.643920035816494707e-02
4.392000000000000171e+01,3.683709285281524387e-02
4.396000000000000085e+01,3.748791101755388072e-02
4.400000000000000000e+01,4.395979522232465464e-02
4.403999999999999915e+01,4.393534500671460868e-02
4.407999999999999829e+01,4.458565015470897924e-02
4.411999999999999744e+01,4.827295220816874011e-02
4.415999999999999659e+01,5.390049660497075318e-02
4.420000000000000284e+01,5.708126419627539139e-02
4.424000000000000199e+01,6.380522414519523844e-02
4.428000000000000114e+01,6.445468026759758329e-02
4.432000000000000028e+01,7.033464452052180793e-02
4.435999999999999943e+01,7.343037013387665457e-02
4.439999999999999858e+01,8.605925816830652109e-02
4.443999999999999773e+01,8.679240623095264839e-02
4.447999999999999687e+01,1.006864449361569575e-01
4.452000000000000313e+01,1.044564252011178779e-01
4.456000000000000227e+01,1.179283006048844479e-01
4.460000000000000142e+01,1.246507485139894678e-01
4.464000000000000057e+01,1.378691933340487896e-01
4.467999999999999972e+01,1.382638766380475948e-01
4.471999999999999886e+01,1.613527831109137500e-01
4.475999999999999801e+01,1.621689637009699203e-01
4.479999999999999716e+01,1.801112279902969404e-01
4.484000000000000341e+01,1.985595218281601959e-01
4.488000000000000256e+01,2.070524914440894371e-01
4.492000000000000171e+01,2.362992732808884000e-01
4.496000000000000085e+01,2.480821789775803921e-01
4.500000000000000000e+01,2.526938313875996545e-01
4.503999999999999915e+01,2.530026666046097383e-01
4.507999999999999829e+01,2.494305137218952306e-01
4.511999999999999744e+01,2.267915364854952431e-01
4.515999999999999659e+01,2.075270269921054289e-01
4.520000000000000284e+01,1.908776937141375141e-01
4.524000000000000199e+01,1.755780505722011053e-01
4.528000000000000114e+01,1.625561212113831033e-01
4.532000000000000028e+01,1.393257736540031710e-01
4.535999999999999943e+01,1.254598642032088984e-01
4.539999999999999858e+01,1.091471869503899128e-01
4.543999999999999773e+01,1.024520456802894136e-01
4.547999999999999687e+01,9.136972475981926245e-02
4.552000000000000313e+01,8.602411552514623028e-02
4.556000000000000227e+01,7.637569299896880548e-02
4.560000000000000142e+01,7.128286213794741977e-02
4.564000000000000057e+01,6.408072831013086890e-02
4.567999999999999972e+01,6.194038129950437538e-02
4.571999999999999886e+01,5.127893426614865691e-02
4.575999999999999801e+01,5.386275323768903445e-02
4.579999999999999716e+01,5.214376071841960586e-02
4.584000000000000341e+01,4.721871187069492937e-02
4.588000000000000256e+01,4.111238520184103823e-02
4.592000000000000171e+01,3.517463315011375158e-02
4.596000000000000085e+01,4.045737039665113499e-02
4.600000000000000000e+01,4.422136768787152811e-02
4.603999999999999915e+01,4.258580042673774935e-02
4.607999999999999829e+01,3.723798408604077348e-02
4.611999999999999744e+01,3.256493841485174484e-02
4.615999999999999659e+01,2.991651585142653114e-02
4.620000000000000284e+01,2.979891124768348568e-02
4.624000000000000199e+01,2.807820273068417291e-02
4.628000000000000114e+01,2.897267853223227385e-02
4.632000000000000028e+01,2.750475919305184203e-02
4.635999999999999943e+01,2.882075628991782879e-02
4.639999999999999858e+01,3.047406312256703900e-02
4.643999999999999773e+01,2.267825198959925667e-02
4.647999999999999687e+01,2.779024922907617420e-02
4.652000000000000313e+01,2.286256879273134562e-02
4.656000000000000227e+01,1.995951446530789056e-02
4.660000000000000142e+01,1.941854958145662613e-02
4.664000000000000057e+01,2.022728533768820836e-02
4.667999999999999972e+01,1.825179986106423638e-02
4.671999999999999886e+01,1.703545531431832627e-02
4.675999999999999801e+01,1.607205744576368361e-02
4.679999999999999716e+01,1.806131083179631294e-02
4.684000000000000341e+01,1.811000177177397863e-02
4.688000000000000256e+01,2.144880760110549553e-02
4.692000000000000171e+01,1.862876365292566450e-02
4.696000000000000085e+01,1.192774571046171725e-02
4.700000000000000000e+01,1.433808090342817733e-02
4.703999999999999915e+01,1.582024425452357996e-02
4.707999999999999829e+01,1.299960571851332958e-02
4.711999999999999744e+01,1.777173756287312584e-02
4.715999999999999659e+01,1.301039108506577696e-02
4.720000000000000284e+01,1.162352765617205748e-02
4.724000000000000199e+01,8.549202058282251090e-03
4.728000000000000114e+01,1.138033286855030628e-02
4.732000000000000028e+01,1.210217331688498606e-02
4.735999999999999943e+01,1.240203887607719234e-02
4.739999999999999858e+01,1.118317498400384254e-02
4.743999999999999773e+01,1.333879594153864444e-02
4.747999999999999687e+01,1.422878532394067884e-02
4.752000000000000313e+01,1.216582825865052814e-02
4.756000000000000227e+01,8.752874459825345232e-03
4.760000000000000142e+01,1.149847674598537123e-02
4.764000000000000057e+01,1.078493893299792977e-02
4.767999999999999972e+01,8.805771045456477555e-03
4.771999999999999886e+01,1.231023407417744346e-02
4.775999999999999801e+01,8.896561800114128477e-03
4.779999999999999716e+01,9.363571628503330330e-03
4.784000000000000341e+01,9.492975927772904360e-03
4.788000000000000256e+01,1.147828472251629164e-02
4.792000000000000171e+01,1.152303917433015849e-02
4.796000000000000085e+01,1.097709172147038302e-02
4.800000000000000000e+01,1.574604576841578604e-02
4.803999999999999915e+01,5.582119543180190900e-03
4.807999999999999829e+01,7.060527315513136920e-03
4.811999999999999744e+01,9.804281073578165889e-03
4.815999999999999659e+01,1.043875077214065708e-02
4.820000000000000284e+01,3.311430882854634206e-03
4.824000000000000199e+01,6.223496777558753731e-03
4.828000000000000114e+01,7.279376789008926499e-03
4.832000000000000028e+01,7.828923355461014574e-03
4.835999999999999943e+01,5.088066742116761736e-03
4.839999999999999858e+01,8.421406457439079007e-03
4.843999999999999773e+01,6.270833868718861566e-03
4.847999999999999687e+01,1.213487065747314783e-02
4.852000000000000313e+01,9.899657224769918898e-03
4.856000000000000227e+01,7.579940940931924678e-03
4.860000000000000142e+01,6.103745451046262670e-03
4.864000000000000057e+01,5.386705296594958975e-03
4.867999999999999972e+01,5.006991984524961255e-03
4.871999999999999886e+01,8.845430712104893761e-03
4.875999999999999801e+01,8.802908950609741878e-03
4.879999999999999716e+01,6.313644896929133596e-03
4.884000000000000341e+01,3.739880092924084774e-03
4.888000000000000256e+01,5.384268529031982498e-03
4.892000000000000171e+01,8.209643194553306600e-03
4.896000000000000085e+01,3.863794284861758570e-03
4.900000000000000000e+01,3.061173446560370645e-03
4.903999999999999915e+01,1.069499498052287577e-02
4.907999999999999829e+01,4.408333148919111807e-03
4.911999999999999744e+01,5.545725186205673757e-03
4.915999999999999659e+01,6.682984632727585923e-03
4.920000000000000284e+01,9.760524237177006790e-03
4.924000000000000199e+01,7.101060263997758734e-03
4.928000000000000114e+01,6.634974324878815770e-03
4.932000000000000028e+01,2.709760891474170819e-03
4.935999999999999943e+01,6.546066162189415234e-03
4.939999999999999858e+01,1.012914336693323571e-02
4.943999999999999773e+01,8.903241839598492399e-03
4.947999999999999687e+01,3.712019466638514717e-03
4.952000000000000313e+01,4.848099101487552548e-03
4.956000000000000227e+01,9.189947974812307657e-03
4.960000000000000142e+01,9.735208420126595374e-03
4.964000000000000057e+01,9.521048048361497804e-03
4.967999999999999972e+01,8.125638366463948728e-03
4.971999999999999886e+01,1.145458277891279152e-02
4.975999999999999801e+01,9.637087825674071559e-03
4.979999999999999716e+01,1.035043784253552278e-02
4.984000000000000341e+01,7.942127301151138963e-03
4.988000000000000256e+01,7.052273226493342706e-03
4.992000000000000171e+01,5.993560746002751967e-03
4.996000000000000085e+01,5.103453194330148310e-03
5.000000000000000000e+01,6.491094837435224668e-03
5.003999999999999915e+01,1.007212021679999847e-02
5.007999999999999829e+01,6.228833148291778622e-03
5.011999999999999744e+01,5.928782554414899902e-03
5.015999999999999659e+01,1.026872359752397691e-02
5.020000000000000284e+01,8.365473713979934209e-03
5.024000000000000199e+01,5.534075997825326984e-03
5.028000000000000114e+01,6.330281715398816678e-03
5.032000000000000028e+01,3.583001682946749221e-03
5.035999999999999943e+01,2.691644753145378509e-03
5.039999999999999858e+01,1.057420343407864533e-02
5.043999999999999773e+01,5.464312298352703469e-03
5.047999999999999687e+01,7.441022200917728029e-03
5.052000000000000313e+01,4.355664198628320799e-03
5.056000000000000227e+01,9.284931179832742187e-03
5.060000000000000142e+01,9.827056925484292313e-03
5.064000000000000057e+01,9.356672081049084017e-03
5.067999999999999972e+01,5.680267222165111089e-03
5.071999999999999886e+01,1.750644201129725490e-03
5.075999999999999801e+01,9.463375285418547736e-03
5.079999999999999716e+01,1.000489659981925773e-02
5.084000000000000341e+01,5.146889375756543913e-03
5.088000000000000256e+01,4.000855845792043383e-03
5.092000000000000171e+01,5.216944171901397899e-03
5.096000000000000085e+01,4.070672170709886337e-03
5.100000000000000000e+01,4.274133522218616713e-03
5.103999999999999915e+01,6.333523078345905041e-03
5.107999999999999829e+01,6.874210793857205189e-03
5.111999999999999744e+01,8.933364279683523798e-03
5.115999999999999659e+01,1.124549745643428286e-02
5.120000000000000284e+01,9.001762382100981022e-03
5.124000000000000199e+01,7.095373357557371169e-03
5.128000000000000114e+01,7.129280096960633958e-03
5.132000000000000028e+01,3.872805865133478308e-03
5.135999999999999943e+01,6.268721377370071492e-03
5.139999999999999858e+01,7.652132001719232253e-03
5.143999999999999773e+01,8.276135314197999651e-03
5.147999999999999687e+01,9.912412546231092261e-03
5.152000000000000313e+01,6.402263617669858888e-03
5.156000000000000227e+01,3.060731622556862527e-03
5.160000000000000142e+01,4.359202068597035559e-03
5.164000000000000057e+01,9.369651910934764794e-03
5.167999999999999972e+01,6.955801310029760716e-03
5.171999999999999886e+01,1.036307467149782946e-02
5.175999999999999801e+01,7.442803052193477410e-03
5.179999999999999716e+01,5.366076236101985190e-03
5.184000000000000341e+01,6.495135765084301439e-03
5.188000000000000256e+01,8.299009180243418701e-03
5.192000000000000171e+01,7.318700677711042699e-03
5.196000000000000085e+01,5.578988764813089599e-03
5.200000000000000000e+01,7.382527431987041464e-03
5.203999999999999915e+01,8.426663289026912682e-03
5.207999999999999829e+01,8.458299360147237406e-03
5.211999999999999744e+01,7.814898979998798068e-03
5.215999999999999659e+01,6.243365172796048156e-03
5.220000000000000284e+01,5.093550376794903946e-03
5.224000000000000199e+01,1.330822530728948370e-02
5.228000000000000114e+01,7.096246329675716044e-03
5.232000000000000028e+01,5.439909436664976464e-03
5.235999999999999943e+01,8.761043721541773854e-03
5.239999999999999858e+01,1.191333820776267066e-02
5.243999999999999773e+01,7.050777642503851597e-03
5.247999999999999687e+01,8.093712500451209421e-03
5.252000000000000313e+01,9.474003011892466117e-03
5.256000000000000227e+01,9.588700062901942683e-03
5.260000000000000142e+01,8.100340919060373956e-03
5.264000000000000057e+01,5.683851949553619075e-03
5.267999999999999972e+01,9.257225662465534688e-03
5.271999999999999886e+01,8.865302839128451004e-03
5.275999999999999801e+01,5.604838641896985225e-03
5.279999999999999716e+01,1.035901623464171098e-02
5.284000000000000341e+01,7.773267846134353058e-03
5.288000000000000256e+01,9.405702709315552634e-03
5.292000000000000171e+01,1.086930167534567483e-02
5.296000000000000085e+01,9.464360768060167337e-03
5.300000000000000000e+01,6.456366667081179199e-03
5.303999999999999915e+01,9.522603708196474698e-03
5.307999999999999829e+01,6.092574155091814297e-03
5.311999999999999744e+01,6.037072068032669006e-03
5.315999999999999659e+01,5.137809815446911510e-03
5.320000000000000284e+01,6.600686525533072495e-03
5.324000000000000199e+01,7.135437911690347898e-03
5.328000000000000114e+01,8.851208239878468817e-03
5.332000000000000028e+01,7.614075637159027458e-03
5.335999999999999943e+01,1.051076412888344615e-02
5.339999999999999858e+01,5.308239013272572464e-03
5.343999999999999773e+01,7.867263213588712029e-03
5.347999999999999687e+01,8.738872062966654419e-03
5.352000000000000313e+01,4.548435516171869981e-03
5.356000000000000227e+01,9.216304047890215914e-03
5.360000000000000142e+01,8.484664749132288589e-03
5.364000000000000057e+01,9.187144369348270237e-03
5.367999999999999972e+01,9.467696518711227888e-03
5.371999999999999886e+01,7.301543290126766110e-03
5.375999999999999801e+01,9.437945674411245267e-03
5.379999999999999716e+01,1.317719969540015641e-02
5.384000000000000341e+01,8.395414617158326528e-03
5.388000000000000256e+01,1.002533001797664171e-02
5.392000000000000171e+01,9.124175782792525238e-03
5.396000000000000085e+01,1.058516621247973868e-02
5.400000000000000000e+01,1.052747671000109526e-02
5.403999999999999915e+01,1.181954336902016692e-02
5.407999999999999829e+01,1.083363886840112492e-02
5.411999999999999744e+01,7.401031990992183902e-03
5.415999999999999659e+01,9.030275555313570235e-03
5.420000000000000284e+01,8.297183101710346384e-03
5.424000000000000199e+01,6.889070102973432475e-03
5.428000000000000114e+01,1.214575786035549353e-02
5.432000000000000028e+01,1.259350349978122577e-02
5.435999999999999943e+01,1.076328008037914091e-02
5.439999999999999858e+01,9.186060661277695161e-03
5.443999999999999773e+01,8.705503128930246540e-03
5.447999999999999687e+01,9.068510507551265018e-03
5.452000000000000313e+01,1.162493523539667901e-02
5.456000000000000227e+01,1.173466088772548606e-02
5.460000000000000142e+01,1.049444262689233631e-02
5.464000000000000057e+01,1.026652199475822612e-02
5.467999999999999972e+01,1.079780201553758902e-02
5.471999999999999886e+01,8.123092333559595035e-03
5.475999999999999801e+01,1.051023759504828535e-02
5.479999999999999716e+01,1.045068558171491531e-02
5.484000000000000341e+01,1.039104359405424241e-02
5.488000000000000256e+01,1.075314072535084840e-02
5.492000000000000171e+01,8.246712689003864172e-03
5.496000000000000085e+01,6.752584682281942592e-03
5.500000000000000000e+01,9.223558557482388134e-03
5.503999999999999915e+01,9.247836958555350276e-03
5.507999999999999829e+01,7.584712013320355634e-03
5.511999999999999744e+01,1.157400502303016117e-02
5.515999999999999659e+01,1.185111707945337919e-02
5.520000000000000284e+01,9.681534862212102382e-03
5.524000000000000199e+01,1.291127422436159390e-02
5.528000000000000114e+01,1.057278684362909608e-02
5.532000000000000028e+01,9.330967952197200335e-03
5.535999999999999943e+01,1.028257271242054641e-02
5.539999999999999858e+01,9.968605320430807062e-03
5.543999999999999773e+01,8.726529110878785550e-03
5.547999999999999687e+01,9.002951384259194265e-03
5.552000000000000313e+01,8.604362716210100723e-03
5.556000000000000227e+01,8.964981303621144190e-03
5.560000000000000142e+01,1.312197475742336514e-02
5.564000000000000057e+01,1.137328113485032606e-02
5.567999999999999972e+01,6.502970770931832539e-03
5.571999999999999886e+01,1.234702838171995373e-02
5.575999999999999801e+01,9.332598264298552770e-03
5.579999999999999716e+01,1.332044334192991793e-02
5.584000000000000341e+01,1.384920984414382203e-02
5.588000000000000256e+01,9.484680174282094506e-03
5.592000000000000171e+01,1.077257446168027738e-02
5.596000000000000085e+01,1.678486966148279649e-02
5.600000000000000000e+01,1.123897465749006466e-02
5.603999999999999915e+01,1.353901423558222586e-02
5.607999999999999829e+01,1.001773579720623489e-02
5.611999999999999744e+01,1.223324857530266874e-02
5.615999999999999659e+01,1.124278245480893855e-02
5.620000000000000284e+01,1.160208870206377516e-02
5.624000000000000199e+01,9.514708478663756394e-03
5.628000000000000114e+01,1.080187943045399571e-02
5.632000000000000028e+01,9.389267235919629070e-03
5.635999999999999943e+01,1.160430409270833511e-02
5.639999999999999858e+01,1.432545723148675142e-02
5.643999999999999773e+01,1.257514719297891589e-02
5.647999999999999687e+01,1.192151434712865853e-02
5.652000000000000313e+01,1.160526716634787195e-02
5.656000000000000227e+01,1.272316081299119071e-02
5.660000000000000142e+01,1.308168586269665631e-02
5.664000000000000057e+01,9.221846511595927637e-03
5.667999999999999972e+01,1.008641347498314376e-02
5.671999999999999886e+01,7.154445430964479109e-03
5.675999999999999801e+01,1.282770919881813347e-02
5.679999999999999716e+01,1.335458642135727708e-02
5.684000000000000341e+01,1.270026805448431703e-02
5.688000000000000256e+01,1.440811626093285377e-02
5.692000000000000171e+01,1.215069944328675718e-02
5.696000000000000085e+01,1.082123190241976105e-02
5.700000000000000000e+01,1.143210304205275959e-02
5.703999999999999915e+01,1.094614585148616544e-02
5.707999999999999829e+01,1.113504156214467460e-02
5.711999999999999744e+01,1.022710954283512393e-02
5.715999999999999659e+01,1.387485592213509589e-02
5.720000000000000284e+01,1.406353392995325288e-02
5.724000000000000199e+01,1.332411662541814479e-02
5.728000000000000114e+01,1.292209068815189897e-02
5.732000000000000028e+01,1.327928521143903820e-02
5.735999999999999943e+01,1.203345925365009381e-02
5.739999999999999858e+01,1.002827070123843770e-02
5.743999999999999773e+01,1.426607782092171803e-02
5.747999999999999687e+01,1.242948015228699174e-02
5.752000000000000313e+01,1.371434568652970740e-02
5.756000000000000227e+01,1.145577979169866596e-02
5.760000000000000142e+01,1.274050649314533573e-02
5.764000000000000057e+01,1.638740547011286602e-02
5.767999999999999972e+01,1.041653929672335319e-02
5.771999999999999886e+01,1.541315337972952448e-02
5.775999999999999801e+01,1.298551263708786103e-02
5.779999999999999716e+01,1.241385081862754480e-02
5.784000000000000341e+01,1.352943670719678609e-02
5.788000000000000256e+01,1.135469084351960721e-02
5.792000000000000171e+01,1.044536449393474592e-02
5.796000000000000085e+01,1.965986261510250729e-02
5.800000000000000000e+01,1.419465246881377284e-02
5.803999999999999915e+01,1.210400670280855490e-02
5.807999999999999829e+01,1.355665713447013268e-02
5.811999999999999744e+01,1.509360795993015814e-02
5.815999999999999659e+01,1.359332640985533303e-02
5.820000000000000284e+01,1.285227192288057076e-02
5.824000000000000199e+01,1.253298176458652116e-02
5.828000000000000114e+01,1.347911382142657870e-02
5.832000000000000028e+01,1.704052053165663189e-02
5.835999999999999943e+01,1.435879753884778190e-02
5.839999999999999858e+01,1.403925252375916831e-02
5.843999999999999773e+01,1.405710757929631849e-02
5.847999999999999687e+01,1.474982604011004089e-02
5.852000000000000313e+01,1.670796851675239794e-02
5.856000000000000227e+01,1.284481158410343167e-02
5.860000000000000142e+01,1.564648782007517849e-02
5.864000000000000057e+01,1.448291193692977270e-02
5.867999999999999972e+01,1.534405309777984484e-02
5.871999999999999886e+01,1.510837853329210535e-02
5.875999999999999801e+01,1.639122706122879761e-02
5.879999999999999716e+01,1.607106591225663378e-02
5.884000000000000341e+01,1.634140511096909137e-02
5.888000000000000256e+01,1.559929554344051048e-02
5.892000000000000171e+01,1.241051961301276041e-02
5.896000000000000085e+01,1.613967682814872531e-02
5.900000000000000000e+01,1.379444065936546310e-02
5.903999999999999915e+01,1.701728609823731364e-02
5.907999999999999829e+01,1.551559089156153044e-02
5.911999999999999744e+01,1.308581447797304426e-02
5.915999999999999659e+01,1.580229177921812014e-02
5.920000000000000284e+01,1.311930326619280447e-02
5.924000000000000199e+01,1.634186089593641505e-02
5.928000000000000114e+01,1.829887548469526920e-02
5.932000000000000028e+01,1.392840181455963847e-02
5.935999999999999943e+01,1.369179425623129158e-02
5.939999999999999858e+01,1.699849279938967991e-02
5.943999999999999773e+01,1.633994522574606229e-02
5.947999999999999687e+01,1.483768490486528195e-02
5.952000000000000313e+01,1.552887944767837244e-02
5.956000000000000227e+01,1.934155249927240958e-02
5.960000000000000142e+01,1.750166546185233721e-02
5.964000000000000057e+01,1.734903963667086199e-02
5.967999999999999972e+01,1.517158194395835241e-02
5.971999999999999886e+01,1.611560396048980839e-02
5.975999999999999801e+01,1.503479470972180106e-02
5.979999999999999716e+01,1.589434514755665509e-02
5.984000000000000341e+01,1.456033340105601301e-02
5.988000000000000256e+01,1.651653408152991415e-02
5.992000000000000171e+01,1.695409924696988230e-02
5.996000000000000085e+01,1.629485799066044890e-02
