2.003999999999999915e+01,6.412567809799069041e-02
2.007999999999999829e+01,3.387150144951596442e-02
2.012000000000000099e+01,5.639817410513719986e-02
2.016000000000000014e+01,3.215943421791730289e-02
2.019999999999999929e+01,3.827628576187202397e-02
2.023999999999999844e+01,2.688994868597521445e-02
2.028000000000000114e+01,1.741741289578771154e-02
2.032000000000000028e+01,4.677830763517033114e-02
2.035999999999999943e+01,3.867206392836004120e-02
2.039999999999999858e+01,4.177789682463762394e-02
2.044000000000000128e+01,2.792749552856299208e-02
2.048000000000000043e+01,5.455139475856607412e-02
2.051999999999999957e+01,3.194856729549922641e-02
2.055999999999999872e+01,4.380350686524088488e-02
2.060000000000000142e+01,3.870220980117291404e-02
2.064000000000000057e+01,3.250644239326401508e-02
2.067999999999999972e+01,3.205317252267370770e-02
2.071999999999999886e+01,2.202759015802509615e-02
2.076000000000000156e+01,4.071671824148347107e-02
2.080000000000000071e+01,2.686131847863723263e-02
2.083999999999999986e+01,3.625105314995045319e-02
2.087999999999999901e+01,5.275067600506463950e-02
2.092000000000000171e+01,3.424446052583232647e-02
2.096000000000000085e+01,6.086167682254056688e-02
2.100000000000000000e+01,5.876306457637486130e-02
2.103999999999999915e+01,5.064735856882753018e-02
2.107999999999999829e+01,4.718022903631050036e-02
2.112000000000000099e+01,4.507993049252822376e-02
2.116000000000000014e+01,3.860340879423646704e-02
2.119999999999999929e+01,5.345766485919836719e-02
2.123999999999999844e+01,3.439999266554190360e-02
2.128000000000000114e+01,2.819525608492135307e-02
2.132000000000000028e+01,7.641222293543312172e-02
2.135999999999999943e+01,3.902977790031822436e-02
2.139999999999999858e+01,3.528465086137650558e-02
2.144000000000000128e+01,3.290634992825385019e-02
2.148000000000000043e+01,3.189487449058591578e-02
2.151999999999999957e+01,5.194069319359517767e-02
2.155999999999999872e+01,7.936986844387058926e-02
2.160000000000000142e+01,5.811925800055828262e-02
2.164000000000000057e+01,6.120768474276069848e-02
2.167999999999999972e+01,6.183423157334271003e-02
2.171999999999999886e+01,5.890498292329640617e-02
2.176000000000000156e+01,7.211040743784390139e-02
2.180000000000000071e+01,6.097565103680369081e-02
2.183999999999999986e+01,5.038727841895563470e-02
2.187999999999999901e+01,5.374574721732061633e-02
2.192000000000000171e+01,4.042143797951073397e-02
2.196000000000000085e+01,2.326785085922484717e-02
2.200000000000000000e+01,3.236764660880041972e-02
2.203999999999999915e+01,4.256078056906793805e-02
2.207999999999999829e+01,4.919811355542712955e-02
2.212000000000000099e+01,2.493177099142107611e-02
2.216000000000000014e+01,3.457621356632450266e-02
2.219999999999999929e+01,5.324487536062903065e-02
2.223999999999999844e+01,6.398207390499287273e-02
2.228000000000000114e+01,5.010560546973501922e-02
2.232000000000000028e+01,3.021202374143385286e-02
2.235999999999999943e+01,4.067400048462804091e-02
2.239999999999999858e+01,3.199188321032607474e-02
2.244000000000000128e+01,3.342789645188212061e-02
2.248000000000000043e+01,4.060637976435703400e-02
2.251999999999999957e+01,5.516820497535198514e-02
2.255999999999999872e+01,5.523507230162858633e-02
2.260000000000000142e+01,3.397001264129902165e-02
2.264000000000000057e+01,4.634225205584528717e-02
2.267999999999999972e+01,5.023606402712003927e-02
2.271999999999999886e+01,1.748313775968356881e-02
2.276000000000000156e+01,1.125706150484532923e-02
2.280000000000000071e+01,2.854956851597078432e-02
2.283999999999999986e+01,3.845756060101113843e-02
2.287999999999999901e+01,4.125451588926222490e-02
2.292000000000000171e+01,4.076913612561323952e-02
2.296000000000000085e+01,5.341014507935491762e-02
2.300000000000000000e+01,2.885745404251268895e-02
2.303999999999999915e+01,2.919073630775195771e-02
2.307999999999999829e+01,8.285178018944505673e-02
2.312000000000000099e+01,4.052119322236156368e-02
2.316000000000000014e+01,3.483616353168655921e-02
2.319999999999999929e+01,4.720013621011226457e-02
2.323999999999999844e+01,3.549738473949196060e-02
2.328000000000000114e+01,7.055890208164078414e-02
2.332000000000000028e+01,6.076930983978432593e-02
2.335999999999999943e+01,3.894605616286912764e-02
2.339999999999999858e+01,2.942874827035324437e-02
2.344000000000000128e+01,9.245171420354449110e-03
2.348000000000000043e+01,4.703848865740072743e-02
2.351999999999999957e+01,5.338115150200495318e-02
2.355999999999999872e+01,6.109060810311354311e-02
2.360000000000000142e+01,4.582725002053993080e-02
2.364000000000000057e+01,8.361816626965699883e-02
2.367999999999999972e+01,1.014445327506330458e-01
2.371999999999999886e+01,1.887338967222264574e-01
2.376000000000000156e+01,3.307184056323828059e-01
2.380000000000000071e+01,4.869232054009206556e-01
2.383999999999999986e+01,3.797673746616359591e-01
2.387999999999999901e+01,2.381526179003592147e-01
2.392000000000000171e+01,1.515064823758484058e-01
2.396000000000000085e+01,7.771324156995695898e-02
2.400000000000000000e+01,4.986382237129203393e-02
2.403999999999999915e+01,4.061035020339696933e-02
2.407999999999999829e+01,2.998887646065950818e-02
2.412000000000000099e+01,5.245772172999217664e-02
2.416000000000000014e+01,3.171631703563181082e-02
2.419999999999999929e+01,4.734697500854391505e-02
2.423999999999999844e+01,2.222869045398263507e-02
2.428000000000000114e+01,2.418419019749314808e-02
2.432000000000000028e+01,4.610302639752698883e-02
2.435999999999999943e+01,3.328945051153478496e-02
2.439999999999999858e+01,5.165183818743494804e-02
2.444000000000000128e+01,1.559134330099338703e-02
2.448000000000000043e+01,3.750772724248609830e-02
2.451999999999999957e+01,2.277734547886846664e-02
2.455999999999999872e+01,4.906815946347899138e-02
2.460000000000000142e+01,3.543046164631905026e-02
2.464000000000000057e+01,5.980569222038827765e-02
2.467999999999999972e+01,5.273025070144687215e-02
2.471999999999999886e+01,5.440551120928665413e-02
2.476000000000000156e+01,4.076534404338156420e-02
2.480000000000000071e+01,3.833718634047719037e-02
2.483999999999999986e+01,4.383929261427784579e-02
2.487999999999999901e+01,3.511988434188412223e-02
2.492000000000000171e+01,2.639985537529983620e-02
2.496000000000000085e+01,4.721490898754042431e-02
2.500000000000000000e+01,3.630580688419415836e-02
2.503999999999999915e+01,2.512260351590309485e-02
2.507999999999999829e+01,2.870662895365374417e-02
2.512000000000000099e+01,2.326523223658083853e-02
2.516000000000000014e+01,3.067671192719448672e-02
2.519999999999999929e+01,5.777803590665299416e-02
2.523999999999999844e+01,2.006427300936608482e-02
2.528000000000000114e+01,1.899603503917272895e-02
2.532000000000000028e+01,2.558457498165039520e-02
2.535999999999999943e+01,1.959246549152630912e-02
2.539999999999999858e+01,4.696413422147120015e-02
2.544000000000000128e+01,2.128029882826841523e-02
2.548000000000000043e+01,3.060111287237145261e-02
2.551999999999999957e+01,1.585516797665600247e-02
2.555999999999999872e+01,2.955038154565526459e-02
2.560000000000000142e+01,4.160409160630324649e-02
2.564000000000000057e+01,3.943627552383260904e-02
2.567999999999999972e+01,3.890869958821279589e-02
2.571999999999999886e+01,2.798829864399860964e-02
2.576000000000000156e+01,4.550905311267714609e-02
2.580000000000000071e+01,3.294651209644564038e-02
2.583999999999999986e+01,1.491376155442339889e-02
2.587999999999999901e+01,1.766475988369449468e-02
2.592000000000000171e+01,5.049778362236601731e-02
2.596000000000000085e+01,5.406794565365277000e-02
2.600000000000000000e+01,3.630612881735710562e-02
2.603999999999999915e+01,4.425067572479409600e-02
2.607999999999999829e+01,3.988804095273017908e-02
2.612000000000000099e+01,2.349170263046206422e-02
2.616000000000000014e+01,2.213605537405687051e-02
2.619999999999999929e+01,3.691501353179421629e-02
2.623999999999999844e+01,4.075418126687772175e-02
2.628000000000000114e+01,2.572267451877600225e-02
2.632000000000000028e+01,2.217663277948777462e-02
2.635999999999999943e+01,9.605149964078881289e-03
2.639999999999999858e+01,2.492785531640989705e-02
2.644000000000000128e+01,3.505382072714449682e-02
2.648000000000000043e+01,4.435870542049293042e-02
2.651999999999999957e+01,4.327075289795855040e-02
2.655999999999999872e+01,3.206344128883769490e-02
2.660000000000000142e+01,3.288854789530099021e-02
2.664000000000000057e+01,2.250037923580533450e-02
2.667999999999999972e+01,5.012510783895281208e-02
2.671999999999999886e+01,3.727433481169346169e-02
2.676000000000000156e+01,2.633726419110626188e-02
2.680000000000000071e+01,4.302089689495373209e-02
2.683999999999999986e+01,2.114337731492766867e-02
2.687999999999999901e+01,2.770699605759019413e-02
2.692000000000000171e+01,3.591083602580630307e-02
2.696000000000000085e+01,3.399531080379171455e-02
2.700000000000000000e+01,4.028349533846403707e-02
2.703999999999999915e+01,3.508491976387216604e-02
2.707999999999999829e+01,4.219223382015199753e-02
2.712000000000000099e+01,3.617191410847348659e-02
2.716000000000000014e+01,4.683314264151283712e-02
2.719999999999999929e+01,1.948017087672030551e-02
2.723999999999999844e+01,3.560966262268766558e-02
2.728000000000000114e+01,1.591278276738201589e-02
2.732000000000000028e+01,4.680881243329113733e-02
2.735999999999999943e+01,6.074850231380209825e-02
2.739999999999999858e+01,3.393920144805010614e-02
2.744000000000000128e+01,2.846058312870056520e-02
2.748000000000000043e+01,5.005570027826879848e-02
2.751999999999999957e+01,3.473052720573364949e-02
2.755999999999999872e+01,5.030779073664028850e-02
2.760000000000000142e+01,3.634868879555943483e-02
2.764000000000000057e+01,3.715677659719694020e-02
2.767999999999999972e+01,2.100851973052095603e-02
2.771999999999999886e+01,2.455006869973110420e-02
2.776000000000000156e+01,2.590312372158868129e-02
2.780000000000000071e+01,4.803989831724732318e-02
2.783999999999999986e+01,3.544420772517441892e-02
2.787999999999999901e+01,3.050525598244917952e-02
2.792000000000000171e+01,4.279479836683960231e-02
2.796000000000000085e+01,3.019710836019864550e-02
2.800000000000000000e+01,3.017877268570856239e-02
2.803999999999999915e+01,3.617630098114293230e-02
2.807999999999999829e+01,4.436099028088439505e-02
2.812000000000000099e+01,6.293720216439592507e-02
2.816000000000000014e+01,2.025350623015098606e-02
2.819999999999999929e+01,9.292673352499739026e-03
2.823999999999999844e+01,4.072037376785375695e-02
2.828000000000000114e+01,3.632168732282391871e-02
2.832000000000000028e+01,1.633404014195435211e-02
2.835999999999999943e+01,3.080404097283001227e-02
2.839999999999999858e+01,2.941160110747615547e-02
2.844000000000000128e+01,3.458197658772419608e-02
2.848000000000000043e+01,2.580426132864033217e-02
2.851999999999999957e+01,1.784630666155012299e-02
2.855999999999999872e+01,3.696207098353794518e-02
2.860000000000000142e+01,3.720712542120398203e-02
2.864000000000000057e+01,2.323060793841937727e-02
2.867999999999999972e+01,2.839692416345276568e-02
2.871999999999999886e+01,3.164821053204843609e-02
2.876000000000000156e+01,3.271098769418092495e-02
2.880000000000000071e+01,1.927871175474420856e-02
2.883999999999999986e+01,2.963840565590359494e-02
2.887999999999999901e+01,4.710786566797793562e-02
2.892000000000000171e+01,4.844139830942437164e-02
2.896000000000000085e+01,2.570811951971137613e-02
2.900000000000000000e+01,3.360377662065987259e-02
2.903999999999999915e+01,4.013135646157705433e-02
2.907999999999999829e+01,3.079648523006943070e-02
2.912000000000000099e+01,4.716793074423323434e-02
2.916000000000000014e+01,3.154167832524874121e-02
2.919999999999999929e+01,2.876824066714329248e-02
2.923999999999999844e+01,3.119021244904664203e-02
2.928000000000000114e+01,2.376626237924356344e-02
2.932000000000000028e+01,4.888559449481273689e-02
2.935999999999999943e+01,3.489677839422749422e-02
2.939999999999999858e+01,2.637684803185421506e-02
2.944000000000000128e+01,3.864061221834030196e-02
2.948000000000000043e+01,1.617188619215351175e-02
2.951999999999999957e+01,3.800602510493670400e-02
2.955999999999999872e+01,6.995818588871002830e-02
2.960000000000000142e+01,6.663089714939508801e-02
2.964000000000000057e+01,3.650199920611643667e-02
2.967999999999999972e+01,2.031982365798741530e-02
2.971999999999999886e+01,5.691835092649511624e-02
2.976000000000000156e+01,4.675131916469807414e-02
2.980000000000000071e+01,4.806969931000915075e-02
2.983999999999999986e+01,5.649783091748901420e-02
2.987999999999999901e+01,5.562698899711773087e-02
2.992000000000000171e+01,7.608679178055455239e-02
2.996000000000000085e+01,7.111237417541674266e-02
3.000000000000000000e+01,9.020338744996735103e-02
3.003999999999999915e+01,8.249278541691000555e-02
3.007999999999999829e+01,9.337803824959366172e-02
3.012000000000000099e+01,1.245000177756195453e-01
3.016000000000000014e+01,8.451682433787416349e-02
3.019999999999999929e+01,1.148169657306915697e-01
3.023999999999999844e+01,1.205033186813661561e-01
3.028000000000000114e+01,1.196254793971544550e-01
3.032000000000000028e+01,1.589483117497105524e-01
3.035999999999999943e+01,1.586160231476795301e-01
3.039999999999999858e+01,1.837165530199973973e-01
3.044000000000000128e+01,2.263190173061328248e-01
3.048000000000000043e+01,2.125841556872714866e-01
3.051999999999999957e+01,2.502625909794537473e-01
3.055999999999999872e+01,2.884872769953827909e-01
3.060000000000000142e+01,3.149516698399526526e-01
3.064000000000000057e+01,3.362192586546610129e-01
3.067999999999999972e+01,3.853809703281156351e-01
3.071999999999999886e+01,3.839484059672663707e-01
3.076000000000000156e+01,3.570816090105539131e-01
3.080000000000000071e+01,3.233771331445569608e-01
3.083999999999999986e+01,2.910393399487384847e-01
3.087999999999999901e+01,2.671786760439184283e-01
3.092000000000000171e+01,2.944578242068365825e-01
3.096000000000000085e+01,2.372313289553094340e-01
3.100000000000000000e+01,2.147359201711363241e-01
3.103999999999999915e+01,1.881376162121010942e-01
3.107999999999999829e+01,1.609916400834316974e-01
3.112000000000000099e+01,1.406819171456083761e-01
3.116000000000000014e+01,1.326780215814853114e-01
3.119999999999999929e+01,1.118199087318929447e-01
3.123999999999999844e+01,9.725108976273168226e-02
3.128000000000000114e+01,1.045598522243098016e-01
3.132000000000000028e+01,1.028430979245783250e-01
3.135999999999999943e+01,8.307602784436222965e-02
3.139999999999999858e+01,8.764784602074054964e-02
3.144000000000000128e+01,6.432411256811214340e-02
3.148000000000000043e+01,6.862101102728035418e-02
3.151999999999999957e+01,6.772109202856983756e-02
3.155999999999999872e+01,6.709392975483459420e-02
3.160000000000000142e+01,5.744124644723867801e-02
3.164000000000000057e+01,5.353089343710767251e-02
3.167999999999999972e+01,7.423290315068108158e-02
3.171999999999999886e+01,5.008367510371929815e-02
3.176000000000000156e+01,3.112981804380740569e-02
3.180000000000000071e+01,3.815571557481113596e-02
3.183999999999999986e+01,3.041303487688829660e-02
3.187999999999999901e+01,5.083793746643965744e-02
3.192000000000000171e+01,2.832595042126022367e-02
3.196000000000000085e+01,4.874939738451621735e-02
3.200000000000000000e+01,5.522469989637060483e-02
3.203999999999999915e+01,4.036793137561403566e-02
3.207999999999999829e+01,4.410698720237724024e-02
3.211999999999999744e+01,4.565748255206535100e-02
3.215999999999999659e+01,4.228462941770470829e-02
3.220000000000000284e+01,4.137235315977596389e-02
3.224000000000000199e+01,2.979367366419011579e-02
3.228000000000000114e+01,5.677476345954954318e-02
3.232000000000000028e+01,3.753721264060273094e-02
3.235999999999999943e+01,2.076023625662996516e-02
3.239999999999999858e+01,4.937999582403232446e-02
3.243999999999999773e+01,4.025895387552376470e-02
3.247999999999999687e+01,3.715370814648816938e-02
3.252000000000000313e+01,4.115817298520467460e-02
3.256000000000000227e+01,4.598233676910762346e-02
3.260000000000000142e+01,4.587855666153445831e-03
3.264000000000000057e+01,4.004016191339409420e-02
3.267999999999999972e+01,2.134293860288184394e-02
3.271999999999999886e+01,3.327459441913920013e-02
3.275999999999999801e+01,4.575246738909988231e-02
3.279999999999999716e+01,3.717173646918644353e-02
3.284000000000000341e+01,4.554594586190304634e-02
3.288000000000000256e+01,4.817635956502848427e-02
3.292000000000000171e+01,2.974816754718640280e-02
3.296000000000000085e+01,2.991578644884664018e-02
3.300000000000000000e+01,0.000000000000000000e+00
3.303999999999999915e+01,3.134270663703128679e-02
3.307999999999999829e+01,4.436159250824652650e-02
3.311999999999999744e+01,2.510924128057432161e-02
3.315999999999999659e+01,2.445269792058226907e-02
3.320000000000000284e+01,3.774282324367020380e-02
3.324000000000000199e+01,4.939132847880099708e-02
3.328000000000000114e+01,2.849511543392561214e-02
3.332000000000000028e+01,5.217518808306063904e-02
3.335999999999999943e+01,3.291834912434534605e-02
3.339999999999999858e+01,3.581253798671577004e-02
3.343999999999999773e+01,3.460379505235851305e-02
3.347999999999999687e+01,2.518993861599540598e-02
3.352000000000000313e+01,4.449059792148677556e-02
3.356000000000000227e+01,4.245916300051888470e-02
3.360000000000000142e+01,5.246003948136031964e-02
3.364000000000000057e+01,1.432790402824299023e-02
3.367999999999999972e+01,4.155643299008648234e-02
3.371999999999999886e+01,5.866549361011098862e-02
3.375999999999999801e+01,8.452511831455591929e-02
3.379999999999999716e+01,9.233439000628619608e-02
3.384000000000000341e+01,1.179190229705185389e-01
3.388000000000000256e+01,1.167019820321577861e-01
3.392000000000000171e+01,1.354481310628577184e-01
3.396000000000000085e+01,1.870109702163172405e-01
3.400000000000000000e+01,1.546150770469569835e-01
3.403999999999999915e+01,1.257736476359086475e-01
3.407999999999999829e+01,1.138871396161931088e-01
3.411999999999999744e+01,7.656634773000234317e-02
3.415999999999999659e+01,5.209829491950162400e-02
3.420000000000000284e+01,2.762947981026303568e-02
3.424000000000000199e+01,3.679778677021604272e-02
3.428000000000000114e+01,3.065052078969036919e-02
3.432000000000000028e+01,2.532292689831635440e-02
3.435999999999999943e+01,3.038676037386192630e-02
3.439999999999999858e+01,2.861286000732439494e-02
3.443999999999999773e+01,2.273601258494845415e-02
3.447999999999999687e+01,3.189972927263452773e-02
3.452000000000000313e+01,5.090791340646067670e-02
3.456000000000000227e+01,3.491005107167053506e-02
3.460000000000000142e+01,3.641405967279755934e-02
3.464000000000000057e+01,2.588423471609718057e-02
3.467999999999999972e+01,4.024020544543010364e-02
3.471999999999999886e+01,4.748495871010345593e-02
3.475999999999999801e+01,2.902193960280989235e-02
3.479999999999999716e+01,7.345825916332496264e-02
3.484000000000000341e+01,5.827544141318952847e-02
3.488000000000000256e+01,5.621883049184531883e-02
3.492000000000000171e+01,6.482711713197965298e-02
3.496000000000000085e+01,6.304243776933679544e-02
3.500000000000000000e+01,7.110221852846078383e-02
3.503999999999999915e+01,4.607029667222201086e-02
3.507999999999999829e+01,5.658983524514820534e-02
3.511999999999999744e+01,7.285165101383410391e-02
3.515999999999999659e+01,8.172876386419086758e-02
3.520000000000000284e+01,8.158030074788844010e-02
3.524000000000000199e+01,1.087789334294656657e-01
3.528000000000000114e+01,1.097228283250165637e-01
3.532000000000000028e+01,1.287155406492466181e-01
3.535999999999999943e+01,1.280170037185837939e-01
3.539999999999999858e+01,1.461877192148541282e-01
3.543999999999999773e+01,1.474019716321118834e-01
3.547999999999999687e+01,1.540850170121886575e-01
3.552000000000000313e+01,2.009686546816574493e-01
3.556000000000000227e+01,1.994457723800139304e-01
3.560000000000000142e+01,1.998364575945041077e-01
3.564000000000000057e+01,2.002263585371370225e-01
3.567999999999999972e+01,1.984276446802606120e-01
3.571999999999999886e+01,1.793989847321598441e-01
3.575999999999999801e+01,1.693943370899192447e-01
3.579999999999999716e+01,1.216488366611556821e-01
3.584000000000000341e+01,1.310596054978462877e-01
3.588000000000000256e+01,1.177708510086361016e-01
3.592000000000000171e+01,1.080365315906097606e-01
3.596000000000000085e+01,9.857490175747153638e-02
3.600000000000000000e+01,8.692465224190885908e-02
3.603999999999999915e+01,6.296706906610285981e-02
3.607999999999999829e+01,8.987574048136313942e-02
3.611999999999999744e+01,8.287225658243815851e-02
3.615999999999999659e+01,6.000621357658469240e-02
3.620000000000000284e+01,6.667508163715188396e-02
3.624000000000000199e+01,6.595923029955043371e-02
3.628000000000000114e+01,5.102169046189260204e-02
3.632000000000000028e+01,5.905557010770010745e-02
3.635999999999999943e+01,4.001425926865884858e-02
3.639999999999999858e+01,3.546652576286535991e-02
3.643999999999999773e+01,2.408102728640279175e-02
3.647999999999999687e+01,2.554823248449348758e-02
3.652000000000000313e+01,4.479075806066966370e-02
3.656000000000000227e+01,3.586417514153131952e-02
3.660000000000000142e+01,2.146721850857095590e-02
3.664000000000000057e+01,3.222950639344776547e-02
3.667999999999999972e+01,1.372876899327313618e-02
3.671999999999999886e+01,2.722424338172989983e-02
3.675999999999999801e+01,2.157540463186068472e-02
3.679999999999999716e+01,2.385664735973255443e-02
3.684000000000000341e+01,2.066751271159584721e-02
3.688000000000000256e+01,4.646632127436271104e-02
3.692000000000000171e+01,4.190818593124776004e-02
3.696000000000000085e+01,3.187967138103101061e-02
3.700000000000000000e+01,2.212383054622731049e-02
3.703999999999999915e+01,1.318762029579412590e-02
3.707999999999999829e+01,2.831673289054567957e-02
3.711999999999999744e+01,3.223241030385817774e-02
3.715999999999999659e+01,3.013074797892473233e-02
3.720000000000000284e+01,2.857523505724324578e-02
3.724000000000000199e+01,2.209629613523062669e-02
3.728000000000000114e+01,2.163308018895958654e-02
3.732000000000000028e+01,3.484299131857154785e-02
3.735999999999999943e+01,5.844428403777107012e-02
3.739999999999999858e+01,4.239034837824411789e-02
3.743999999999999773e+01,4.000953796350700808e-02
3.747999999999999687e+01,3.243181914659137161e-02
3.752000000000000313e+01,2.813503224662138036e-02
3.756000000000000227e+01,3.887876245865249519e-02
3.760000000000000142e+01,5.098907218927396096e-02
3.764000000000000057e+01,2.317067113932168992e-02
3.767999999999999972e+01,2.516063731196711492e-02
3.771999999999999886e+01,4.519938429142619091e-02
3.775999999999999801e+01,5.703295245988553031e-02
3.779999999999999716e+01,4.151782943071580245e-02
3.784000000000000341e+01,3.447972948913408109e-02
3.788000000000000256e+01,5.533564254070143240e-02
3.792000000000000171e+01,3.079326574592551602e-02
3.796000000000000085e+01,4.098186921509302388e-02
3.800000000000000000e+01,4.952877996293639229e-02
3.803999999999999915e+01,4.440093283401062851e-02
3.807999999999999829e+01,4.282748781658944626e-02
3.811999999999999744e+01,4.097974194505563800e-02
3.815999999999999659e+01,2.354288518803271391e-02
3.820000000000000284e+01,5.560485697445665537e-02
3.824000000000000199e+01,2.695372461061008862e-02
3.828000000000000114e+01,2.893138653287757878e-02
3.832000000000000028e+01,4.786390514784856498e-02
3.835999999999999943e+01,2.659422325602511447e-02
3.839999999999999858e+01,4.306378105040657711e-02
3.843999999999999773e+01,4.996075595928841512e-02
3.847999999999999687e+01,2.732119937705861784e-02
3.852000000000000313e+01,3.804522081536564071e-02
3.856000000000000227e+01,3.044533786793013341e-02
3.860000000000000142e+01,4.773119079081393490e-02
3.864000000000000057e+01,4.204399953299053916e-02
3.867999999999999972e+01,5.850775552814842934e-02
3.871999999999999886e+01,5.965587083237615385e-02
3.875999999999999801e+01,4.849661097157967338e-02
3.879999999999999716e+01,3.788347609945783012e-02
3.884000000000000341e+01,3.465343409716954703e-02
3.888000000000000256e+01,5.521520873400587170e-02
3.892000000000000171e+01,6.647787190063028651e-02
3.896000000000000085e+01,8.895232846124789816e-02
3.900000000000000000e+01,1.070502896448214808e-01
3.903999999999999915e+01,1.262413296342050906e-01
3.907999999999999829e+01,1.719589706075004276e-01
3.911999999999999744e+01,2.190431679055378500e-01
3.915999999999999659e+01,3.596562561836849636e-01
3.920000000000000284e+01,6.047373844180143898e-01
3.924000000000000199e+01,8.615772592531075746e-01
3.928000000000000114e+01,1.000000000000000000e+00
3.932000000000000028e+01,9.212797810307327140e-01
3.935999999999999943e+01,8.056390911714912395e-01
3.939999999999999858e+01,5.866225960743066681e-01
3.943999999999999773e+01,4.069861972318171706e-01
3.947999999999999687e+01,2.587990105834918619e-01
3.952000000000000313e+01,1.735110905799727155e-01
3.956000000000000227e+01,1.183049878515841924e-01
3.960000000000000142e+01,9.728288288287567642e-02
3.964000000000000057e+01,7.461906016790151308e-02
3.967999999999999972e+01,6.644876473629203473e-02
3.971999999999999886e+01,6.155936765158460944e-02
3.975999999999999801e+01,6.186521948104143492e-02
3.979999999999999716e+01,6.627240465565442662e-02
3.984000000000000341e+01,6.493568793726579857e-02
3.988000000000000256e+01,5.676115375686733439e-02
3.992000000000000171e+01,4.885924873527867224e-02
3.996000000000000085e+01,6.146739899704399546e-02
4.000000000000000000e+01,6.532337878807982501e-02
4.003999999999999915e+01,7.081937960513683128e-02
4.007999999999999829e+01,8.069018823445982258e-02
4.011999999999999744e+01,7.688620724806338735e-02
4.015999999999999659e+01,7.991834151015239640e-02
4.020000000000000284e+01,8.896615419137980652e-02
4.024000000000000199e+01,8.543309038443806791e-02
4.028000000000000114e+01,8.025829906539991287e-02
4.032000000000000028e+01,4.773477809577383879e-02
4.035999999999999943e+01,5.021567950788646123e-02
4.039999999999999858e+01,3.847482955240678210e-02
4.043999999999999773e+01,3.220269687455695751e-02
4.047999999999999687e+01,5.273062255752482969e-02
4.052000000000000313e+01,3.004804863774892393e-02
4.056000000000000227e+01,4.264337278755060689e-02
4.060000000000000142e+01,2.871039923319600867e-02
4.064000000000000057e+01,2.817702335481609907e-02
4.067999999999999972e+01,3.776149966611525716e-02
4.071999999999999886e+01,2.683420871470534874e-02
4.075999999999999801e+01,3.532304588071710078e-02
4.079999999999999716e+01,3.560665784803263706e-02
4.084000000000000341e+01,2.057459677510338827e-02
4.088000000000000256e+01,2.468518324884168627e-02
4.092000000000000171e+01,2.879490488261808936e-02
4.096000000000000085e+01,2.497287761590157376e-02
4.100000000000000000e+01,2.251737798679905381e-02
4.103999999999999915e+01,3.619625732663607487e-02
4.107999999999999829e+01,2.279987415862197442e-02
4.111999999999999744e+01,2.827265613542784273e-02
4.115999999999999659e+01,3.647935700669469733e-02
4.120000000000000284e+01,2.827646438579323185e-02
4.124000000000000199e+01,4.304491617353230909e-02
4.128000000000000114e+01,2.855027248431080827e-02
4.132000000000000028e+01,2.636130113622488225e-02
4.135999999999999943e+01,3.948626765518030435e-02
4.139999999999999858e+01,3.538120141116248007e-02
4.143999999999999773e+01,3.127526239244544926e-02
4.147999999999999687e+01,4.467108932696382817e-02
4.152000000000000313e+01,4.193079662605945362e-02
4.156000000000000227e+01,5.122269386444314176e-02
4.160000000000000142e+01,5.449718361412952267e-02
4.164000000000000057e+01,5.558296762000698721e-02
4.167999999999999972e+01,7.444399326695871899e-02
4.171999999999999886e+01,6.486235294192388423e-02
4.175999999999999801e+01,6.731289950435501157e-02
4.179999999999999716e+01,7.112996149711162119e-02
4.184000000000000341e+01,7.740745326847298102e-02
4.188000000000000256e+01,6.645490495248798646e-02
4.192000000000000171e+01,9.652328748656936741e-02
4.196000000000000085e+01,1.003368303037649595e-01
4.200000000000000000e+01,1.320443232465737249e-01
4.203999999999999915e+01,1.216352083514341681e-01
4.207999999999999829e+01,1.114986896554253926e-01
4.211999999999999744e+01,1.117534799156371383e-01
4.215999999999999659e+01,1.046234604437449589e-01
4.220000000000000284e+01,8.928819441040156124e-02
4.224000000000000199e+01,7.723378827100131627e-02
4.228000000000000114e+01,7.912591226195597738e-02
4.232000000000000028e+01,5.257536112545767304e-02
4.235999999999999943e+01,4.243264755553381035e-02
4.239999999999999858e+01,3.365644026046886450e-02
4.243999999999999773e+01,3.910023939396212178e-02
4.247999999999999687e+01,3.004877668125182158e-02
4.252000000000000313e+01,3.138861682111786233e-02
4.256000000000000227e+01,3.710322693065537525e-02
4.260000000000000142e+01,2.914300958187892102e-02
4.264000000000000057e+01,2.555756098204510496e-02
4.267999999999999972e+01,3.181645531400799365e-02
4.271999999999999886e+01,4.381751087248934862e-02
4.275999999999999801e+01,3.667416173798043050e-02
4.279999999999999716e+01,3.664036630756574431e-02
4.284000000000000341e+01,1.992347362038032060e-02
4.288000000000000256e+01,2.371659165994557603e-02
4.292000000000000171e+01,3.297838913454616272e-02
4.296000000000000085e+01,1.762620407111591472e-02
4.300000000000000000e+01,1.977576176707284902e-02
4.303999999999999915e+01,3.012878446358116177e-02
4.307999999999999829e+01,2.954175977401159170e-02
4.311999999999999744e+01,3.551732642629888692e-02
4.315999999999999659e+01,3.027936573211851765e-02
4.320000000000000284e+01,2.640789910550868369e-02
4.324000000000000199e+01,1.952726610153012257e-02
4.328000000000000114e+01,1.401312594439308064e-02
4.332000000000000028e+01,3.420508585355567371e-02
4.335999999999999943e+01,2.786870594341663357e-02
4.339999999999999858e+01,3.684623277173320471e-02
4.343999999999999773e+01,2.695282327052506491e-02
4.347999999999999687e+01,3.674897912161851493e-02
4.352000000000000313e+01,2.958854860008499135e-02
4.356000000000000227e+01,2.488852161148574424e-02
4.360000000000000142e+01,1.362409913664593478e-02
4.364000000000000057e+01,3.927840017128823163e-02
4.367999999999999972e+01,5.039950265080467631e-03
4.371999999999999886e+01,1.619806357711471231e-02
4.375999999999999801e+01,4.020876947737634516e-02
4.379999999999999716e+01,3.522982018737925297e-02
4.384000000000000341e+01,2.231907805065031641e-02
4.388000000000000256e+01,2.472223532800382068e-02
4.392000000000000171e+01,3.095318434331643248e-02
4.396000000000000085e+01,1.913362531334969127e-02
4.400000000000000000e+01,1.715838907315356612e-02
4.403999999999999915e+01,7.524835674064380385e-03
4.407999999999999829e+01,2.660563688062083168e-02
4.411999999999999744e+01,3.584028979026804979e-02
4.415999999999999659e+01,4.671490085840034057e-02
4.420000000000000284e+01,3.297551046720444828e-02
4.424000000000000199e+01,2.497825810867875321e-02
4.428000000000000114e+01,3.010706914330375100e-02
4.432000000000000028e+01,2.921843118445032958e-02
4.435999999999999943e+01,2.969626959259892215e-02
4.439999999999999858e+01,2.962623257975869479e-02
4.443999999999999773e+01,2.381222348200769806e-02
4.447999999999999687e+01,2.838948732897596250e-02
4.452000000000000313e+01,3.351278888250588950e-02
4.456000000000000227e+01,3.179820156138794818e-02
4.460000000000000142e+01,3.828705543660863853e-02
4.464000000000000057e+01,3.766454047679166500e-02
4.467999999999999972e+01,1.899150648513573542e-02
4.471999999999999886e+01,3.805761574210509562e-02
4.475999999999999801e+01,3.387710869294886101e-02
4.479999999999999716e+01,3.434481617271720882e-02
4.484000000000000341e+01,3.563203521579266092e-02
4.488000000000000256e+01,2.379134948910349712e-02
4.492000000000000171e+01,1.632539772058461819e-02
4.496000000000000085e+01,1.952419031207287131e-02
4.500000000000000000e+01,4.241252506201436540e-02
4.503999999999999915e+01,3.877249435734826666e-02
4.507999999999999829e+01,2.227803457075646157e-02
4.511999999999999744e+01,2.355876393389804563e-02
4.515999999999999659e+01,3.550423460522465074e-02
4.520000000000000284e+01,3.432179562387127625e-02
4.524000000000000199e+01,3.149755344523243183e-02
4.528000000000000114e+01,4.617501923520841989e-02
4.532000000000000028e+01,3.678542395497411133e-02
4.535999999999999943e+01,4.188926928635561958e-02
4.539999999999999858e+01,4.261652158238467270e-02
4.543999999999999773e+01,5.236763847608212619e-02
4.547999999999999687e+01,4.680301152726124708e-02
4.552000000000000313e+01,6.092791880215605443e-02
4.556000000000000227e+01,6.083099597244731593e-02
4.560000000000000142e+01,5.006746604336262396e-02
4.564000000000000057e+01,5.516476615164746244e-02
4.567999999999999972e+01,5.752634138999433017e-02
4.571999999999999886e+01,6.426263837922291389e-02
4.575999999999999801e+01,5.130752741880727219e-02
4.579999999999999716e+01,5.749498893023457374e-02
4.584000000000000341e+01,6.860412784077207782e-02
4.588000000000000256e+01,4.744183494616957542e-02
4.592000000000000171e+01,6.565953942722511927e-02
4.596000000000000085e+01,5.598147071698658661e-02
4.600000000000000000e+01,6.982163126134358078e-02
4.603999999999999915e+01,6.287646462486168319e-02
4.607999999999999829e+01,5.866514180801609551e-02
4.611999999999999744e+01,5.062417244858020277e-02
4.615999999999999659e+01,5.926446141075895901e-02
4.620000000000000284e+01,8.321861438588323834e-02
4.624000000000000199e+01,8.584047964902473404e-02
4.628000000000000114e+01,1.406958375586079280e-01
4.632000000000000028e+01,2.373924953971532914e-01
4.635999999999999943e+01,2.326275929719712199e-01
4.639999999999999858e+01,2.379804554543550332e-01
4.643999999999999773e+01,2.315727830610662397e-01
4.647999999999999687e+01,2.309072145200397053e-01
4.652000000000000313e+01,1.892188847388926176e-01
4.656000000000000227e+01,1.240104324455598428e-01
4.660000000000000142e+01,1.219746175021904494e-01
4.664000000000000057e+01,8.165082688421645973e-02
4.667999999999999972e+01,5.773480791345866198e-02
4.671999999999999886e+01,4.667133636396056384e-02
4.675999999999999801e+01,4.654606044773127588e-02
4.679999999999999716e+01,4.614635122830840902e-02
4.684000000000000341e+01,3.672088842617796806e-02
4.688000000000000256e+01,3.987449186418853125e-02
4.692000000000000171e+01,2.060188225537729761e-02
4.696000000000000085e+01,3.660707305783511556e-02
4.700000000000000000e+01,3.428823068765612936e-02
4.703999999999999915e+01,4.837715447141344161e-02
4.707999999999999829e+01,3.101506435808068160e-02
4.711999999999999744e+01,3.388944153320832403e-02
4.715999999999999659e+01,1.515803821831031989e-02
4.720000000000000284e+01,4.072923006130539647e-02
4.724000000000000199e+01,3.977202287964930888e-02
4.728000000000000114e+01,3.115644909958146039e-02
4.732000000000000028e+01,2.500122147819184085e-02
4.735999999999999943e+01,3.005765907426545536e-02
4.739999999999999858e+01,3.101095185642616103e-02
4.743999999999999773e+01,4.098807871803392122e-02
4.747999999999999687e+01,2.771854776873499890e-02
4.752000000000000313e+01,2.702807329374640188e-02
4.756000000000000227e+01,1.184225945627188914e-02
4.760000000000000142e+01,2.865249138830454345e-02
4.764000000000000057e+01,2.248954180763378455e-02
4.767999999999999972e+01,3.081999743744197676e-02
4.771999999999999886e+01,2.875729235822054378e-02
4.775999999999999801e+01,3.380406529790429271e-02
4.779999999999999716e+01,3.611508101833538903e-02
4.784000000000000341e+01,3.240859403321839916e-02
4.788000000000000256e+01,2.623982734778081138e-02
4.792000000000000171e+01,2.745401497945164013e-02
4.796000000000000085e+01,2.757331538837767479e-02
4.800000000000000000e+01,2.523033426588990047e-02
4.803999999999999915e+01,3.382552924500926983e-02
4.807999999999999829e+01,7.140992712674890976e-03
4.811999999999999744e+01,2.749382469646092023e-02
4.815999999999999659e+01,2.924912706738078474e-02
4.820000000000000284e+01,2.389300628082902112e-02
4.824000000000000199e+01,3.494463333728074772e-02
4.828000000000000114e+01,3.587656987926170910e-02
4.832000000000000028e+01,4.173014597775843298e-02
4.835999999999999943e+01,3.008010437021056693e-02
4.839999999999999858e+01,3.319693572624296540e-02
4.843999999999999773e+01,3.986801110939319770e-02
4.847999999999999687e+01,3.067633939337107915e-02
4.852000000000000313e+01,4.937851831356042387e-02
4.856000000000000227e+01,2.104137259250300068e-02
4.860000000000000142e+01,1.758981015065793491e-02
4.864000000000000057e+01,2.945207448952834317e-02
4.867999999999999972e+01,3.474986582587580308e-02
4.871999999999999886e+01,1.433967177307107592e-02
4.875999999999999801e+01,2.647246326852691067e-02
4.879999999999999716e+01,2.766512009579160519e-02
4.884000000000000341e+01,4.034289829669679417e-02
4.888000000000000256e+01,3.579052959648068577e-02
4.892000000000000171e+01,2.658803540918158390e-02
4.896000000000000085e+01,3.324632059900441833e-02
4.900000000000000000e+01,2.841751058949214953e-02
4.903999999999999915e+01,2.960424410857968522e-02
4.907999999999999829e+01,2.285910482319529827e-02
4.911999999999999744e+01,4.428128575821681928e-02
4.915999999999999659e+01,3.808112341245094984e-02
4.920000000000000284e+01,3.570867223653971523e-02
4.924000000000000199e+01,3.415566548384852547e-02
4.928000000000000114e+01,4.354081591146718999e-02
4.932000000000000028e+01,3.952451507920887869e-02
4.935999999999999943e+01,4.918115760314081819e-02
4.939999999999999858e+01,3.176241066342063574e-02
4.943999999999999773e+01,3.375965939204130656e-02
4.947999999999999687e+01,4.532766855084505858e-02
4.952000000000000313e+01,3.802464860473128011e-02
4.956000000000000227e+01,3.837803669044514282e-02
4.960000000000000142e+01,3.517520387152442418e-02
4.964000000000000057e+01,3.552659676878875544e-02
4.967999999999999972e+01,4.708961948237949668e-02
4.971999999999999886e+01,3.403855650635113916e-02
4.975999999999999801e+01,3.766869691913887069e-02
4.979999999999999716e+01,3.418738975987779122e-02
4.984000000000000341e+01,3.726857140124979761e-02
4.988000000000000256e+01,3.542613416713150110e-02
4.992000000000000171e+01,5.382012149596376166e-02
4.996000000000000085e+01,4.650610451434654402e-02
5.000000000000000000e+01,4.794240380919204125e-02
5.003999999999999915e+01,3.269549598166979210e-02
5.007999999999999829e+01,5.026503230004283201e-02
5.011999999999999744e+01,3.802438077159485397e-02
5.015999999999999659e+01,3.179925568154269577e-02
5.020000000000000284e+01,5.674970046832699538e-02
5.024000000000000199e+01,4.368559338736922176e-02
5.028000000000000114e+01,5.769487386760518977e-02
5.032000000000000028e+01,5.638833665122706257e-02
5.035999999999999943e+01,5.562774802820403403e-02
5.039999999999999858e+01,5.349875621054520775e-02
5.043999999999999773e+01,7.215313850042114063e-02
5.047999999999999687e+01,6.974864711934583572e-02
5.052000000000000313e+01,8.129056013355324961e-02
5.056000000000000227e+01,9.119058877200626745e-02
5.060000000000000142e+01,8.030522064807564531e-02
5.064000000000000057e+01,8.117842517104711941e-02
5.067999999999999972e+01,8.205061592513641922e-02
5.071999999999999886e+01,9.112615448980700139e-02
5.075999999999999801e+01,1.051232953787631513e-01
5.079999999999999716e+01,9.997590889147905946e-02
5.084000000000000341e+01,1.194405927633384740e-01
5.088000000000000256e+01,1.230424929141599039e-01
5.092000000000000171e+01,1.375825252203495552e-01
5.096000000000000085e+01,1.381741237623989871e-01
5.100000000000000000e+01,1.420464485285818645e-01
5.103999999999999915e+01,1.688899681641205242e-01
5.107999999999999829e+01,1.790502648078163006e-01
5.111999999999999744e+01,1.799112638201497416e-01
5.115999999999999659e+01,1.835060291358371620e-01
5.120000000000000284e+01,1.849119428306174873e-01
5.124000000000000199e+01,1.696346310920971989e-01
5.128000000000000114e+01,1.625606586190561642e-01
5.132000000000000028e+01,1.757230893462105314e-01
5.135999999999999943e+01,1.355561416944069952e-01
5.139999999999999858e+01,1.465286936037547283e-01
5.143999999999999773e+01,1.252297288673069886e-01
5.147999999999999687e+01,1.225262924516314633e-01
5.152000000000000313e+01,1.165400845734897023e-01
5.156000000000000227e+01,1.075445833621781616e-01
5.160000000000000142e+01,9.198456459174043920e-02
5.164000000000000057e+01,8.572179455214577748e-02
5.167999999999999972e+01,7.234754825337420814e-02
5.171999999999999886e+01,6.471532584912483010e-02
5.175999999999999801e+01,6.473947790665962598e-02
5.179999999999999716e+01,6.421564162578646817e-02
5.184000000000000341e+01,6.505816757376742254e-02
5.188000000000000256e+01,4.785006462431226626e-02
5.192000000000000171e+01,5.361314311619538864e-02
5.196000000000000085e+01,4.761560250211490514e-02
5.200000000000000000e+01,4.900095394797122222e-02
5.203999999999999915e+01,4.218090868272698218e-02
5.207999999999999829e+01,4.301723299635154540e-02
5.211999999999999744e+01,4.221164913000907681e-02
5.215999999999999659e+01,4.605416748553631950e-02
5.220000000000000284e+01,2.801734970545905964e-02
5.224000000000000199e+01,4.033563445464981301e-02
5.228000000000000114e+01,3.761155033903037376e-02
5.232000000000000028e+01,4.117643844178848350e-02
5.235999999999999943e+01,4.118506352476646037e-02
5.239999999999999858e+01,4.009873363454821704e-02
5.243999999999999773e+01,3.955832059873483353e-02
5.247999999999999687e+01,5.132340961238167354e-02
5.252000000000000313e+01,4.558481744208348757e-02
5.256000000000000227e+01,3.546952298120022162e-02
5.260000000000000142e+01,3.711277125936205540e-02
5.264000000000000057e+01,5.653109393874496125e-02
5.267999999999999972e+01,4.285744483205235211e-02
5.271999999999999886e+01,3.191753822450094091e-02
5.275999999999999801e+01,4.176097032334754461e-02
5.279999999999999716e+01,3.792941932095111879e-02
5.284000000000000341e+01,4.175422630049924894e-02
5.288000000000000256e+01,4.311667728417339224e-02
5.292000000000000171e+01,5.104157007041970617e-02
5.296000000000000085e+01,4.365060487599958794e-02
5.300000000000000000e+01,3.379728185461213646e-02
5.303999999999999915e+01,2.804509014775528192e-02
5.307999999999999829e+01,4.471710470234645934e-02
5.311999999999999744e+01,3.431367302939371949e-02
5.315999999999999659e+01,4.223226530224641340e-02
5.320000000000000284e+01,3.401455971326334399e-02
5.324000000000000199e+01,4.439235558901767631e-02
5.328000000000000114e+01,4.793212953067894910e-02
5.332000000000000028e+01,2.658428411026157387e-02
5.335999999999999943e+01,5.008589733093721241e-02
5.339999999999999858e+01,3.420551676677624497e-02
5.343999999999999773e+01,3.473280469824324701e-02
5.347999999999999687e+01,3.744686605260551943e-02
5.352000000000000313e+01,2.922072071577419550e-02
5.356000000000000227e+01,3.521441212619016298e-02
5.360000000000000142e+01,2.343092713316049028e-02
5.364000000000000057e+01,2.860206506325835979e-02
5.367999999999999972e+01,3.678040958341221439e-02
5.371999999999999886e+01,4.988031126088419281e-02
5.375999999999999801e+01,3.207605458972836304e-02
5.379999999999999716e+01,2.958554596227685671e-02
5.384000000000000341e+01,1.779569819868200703e-02
5.388000000000000256e+01,1.803785238213144113e-02
5.392000000000000171e+01,3.742245513344484575e-02
5.396000000000000085e+01,3.848291850871107811e-02
5.400000000000000000e+01,3.133795526501983314e-02
5.403999999999999915e+01,3.048193799403579526e-02
5.407999999999999829e+01,2.962485507319318617e-02
5.411999999999999744e+01,3.368932320602441299e-02
5.415999999999999659e+01,4.267534178216488006e-02
5.420000000000000284e+01,2.650024882854840752e-02
5.424000000000000199e+01,2.673281216327129048e-02
5.428000000000000114e+01,1.438428477191084319e-02
5.432000000000000028e+01,3.074995573290251888e-02
5.435999999999999943e+01,2.578321507793256140e-02
5.439999999999999858e+01,2.737889364205083748e-02
5.443999999999999773e+01,3.881873569082404385e-02
5.447999999999999687e+01,2.400354697864563736e-02
5.452000000000000313e+01,2.422861658395092030e-02
5.456000000000000227e+01,4.414308247061115437e-02
5.460000000000000142e+01,3.370033467031261637e-02
5.464000000000000057e+01,2.708521503030658292e-02
5.467999999999999972e+01,2.429772294022846182e-02
5.471999999999999886e+01,3.162786880191535005e-02
5.475999999999999801e+01,3.485475754263452075e-02
5.479999999999999716e+01,3.835404838659635385e-02
5.484000000000000341e+01,2.981919743869485689e-02
5.488000000000000256e+01,3.796547175296276916e-02
5.492000000000000171e+01,4.529023138073638710e-02
5.496000000000000085e+01,2.964169779911632330e-02
5.500000000000000000e+01,3.860517109873915637e-02
5.503999999999999915e+01,3.225275467874552660e-02
5.507999999999999829e+01,4.340189668808176054e-02
5.511999999999999744e+01,4.142297767435998423e-02
5.515999999999999659e+01,2.604251828755485901e-02
5.520000000000000284e+01,4.676016979592940298e-02
5.524000000000000199e+01,3.958190650846250824e-02
5.528000000000000114e+01,2.638602698766404422e-02
5.532000000000000028e+01,6.214175729501539291e-02
5.535999999999999943e+01,4.538848440594882294e-02
5.539999999999999858e+01,3.984675405109558421e-02
5.543999999999999773e+01,4.743091679771777036e-02
5.547999999999999687e+01,3.532352327613976634e-02
5.552000000000000313e+01,3.743593659395194617e-02
5.556000000000000227e+01,5.075989000451984479e-02
5.560000000000000142e+01,4.384532783647237392e-02
5.564000000000000057e+01,2.216182427266374586e-02
5.567999999999999972e+01,4.997688252304713363e-02
5.571999999999999886e+01,3.895686906677893468e-02
5.575999999999999801e+01,4.680579736195009111e-02
5.579999999999999716e+01,4.809014400973014858e-02
5.584000000000000341e+01,4.773252571365135116e-02
5.588000000000000256e+01,3.397335605792938668e-02
5.592000000000000171e+01,4.017704067083278235e-02
5.596000000000000085e+01,5.184920573996815857e-02
5.600000000000000000e+01,4.082154046989559804e-02
5.603999999999999915e+01,3.416843947668238290e-02
5.607999999999999829e+01,4.282905173640107199e-02
5.611999999999999744e+01,4.629247116411786683e-02
5.615999999999999659e+01,6.042046404980200291e-02
5.620000000000000284e+01,4.993427236682970033e-02
5.624000000000000199e+01,5.831701511092358264e-02
5.628000000000000114e+01,5.740038148664392686e-02
5.632000000000000028e+01,5.429481811481042669e-02
5.635999999999999943e+01,4.681249446777124845e-02
5.639999999999999858e+01,5.327648549244389659e-02
5.643999999999999773e+01,6.165372603338328122e-02
5.647999999999999687e+01,6.401333203005818429e-02
5.652000000000000313e+01,6.555139892566161364e-02
5.656000000000000227e+01,1.086571307572727352e-01
5.660000000000000142e+01,1.441043537755604675e-01
5.664000000000000057e+01,1.672439287959246457e-01
5.667999999999999972e+01,1.581119072127532832e-01
5.671999999999999886e+01,1.604648867614300589e-01
5.675999999999999801e+01,1.532450038776993206e-01
5.679999999999999716e+01,1.498527161945817920e-01
5.684000000000000341e+01,1.371610435979888631e-01
5.688000000000000256e+01,1.129821555602685823e-01
5.692000000000000171e+01,8.770824357817168238e-02
5.696000000000000085e+01,6.653540309489133775e-02
5.700000000000000000e+01,6.067626182616115554e-02
5.703999999999999915e+01,5.071382864569083659e-02
5.707999999999999829e+01,4.403202891396103269e-02
5.711999999999999744e+01,3.898998958264180553e-02
5.715999999999999659e+01,2.656291163255816365e-02
5.720000000000000284e+01,2.452691253130571264e-02
5.724000000000000199e+01,4.573549243258367980e-02
5.728000000000000114e+01,3.467246657485972133e-02
5.732000000000000028e+01,4.138444370571871256e-02
5.735999999999999943e+01,4.235225160395663518e-02
5.739999999999999858e+01,2.964500620904230929e-02
5.743999999999999773e+01,4.209668794246271273e-02
5.747999999999999687e+01,3.075460179454763548e-02
5.752000000000000313e+01,3.308533448847959801e-02
5.756000000000000227e+01,2.721058624101998016e-02
5.760000000000000142e+01,3.856387923027058268e-02
5.764000000000000057e+01,3.842994518146969352e-02
5.767999999999999972e+01,3.556010315340259881e-02
5.771999999999999886e+01,3.132174623400932334e-02
5.775999999999999801e+01,2.626183129224743049e-02
5.779999999999999716e+01,3.077254982486768084e-02
5.784000000000000341e+01,2.844517684185001241e-02
5.788000000000000256e+01,3.295364871587631167e-02
5.792000000000000171e+01,3.363229398980616819e-02
5.796000000000000085e+01,4.087330416039014480e-02
5.800000000000000000e+01,2.404705977524020447e-02
5.803999999999999915e+01,1.952623259889505608e-02
5.807999999999999829e+01,3.195996059522607929e-02
5.811999999999999744e+01,2.634296447727025106e-02
5.815999999999999659e+01,3.057007508007756821e-02
5.820000000000000284e+01,4.764955792955385960e-02
5.824000000000000199e+01,4.066178256110965228e-02
5.828000000000000114e+01,3.312591997522013054e-02
5.832000000000000028e+01,2.558892704084281960e-02
5.835999999999999943e+01,2.680212281676277661e-02
5.839999999999999858e+01,2.828766576312694708e-02
5.843999999999999773e+01,3.031903400923181141e-02
5.847999999999999687e+01,2.359794979624152758e-02
5.852000000000000313e+01,3.465185026090137482e-02
5.856000000000000227e+01,3.230415847150142072e-02
5.860000000000000142e+01,3.597186433360313046e-02
5.864000000000000057e+01,2.322971058464583238e-02
5.867999999999999972e+01,4.111603983594454975e-02
5.871999999999999886e+01,4.067815707782912460e-02
5.875999999999999801e+01,3.340216876569394866e-02
5.879999999999999716e+01,3.514984118950832681e-02
5.884000000000000341e+01,3.005940683857415141e-02
5.888000000000000256e+01,3.618046192014813534e-02
5.892000000000000171e+01,3.136122791133072463e-02
5.896000000000000085e+01,2.380606639158536209e-02
5.900000000000000000e+01,3.019717986986414360e-02
5.903999999999999915e+01,4.041585436834827655e-02
5.907999999999999829e+01,4.024119481430519368e-02
5.911999999999999744e+01,3.541625413025007579e-02
5.915999999999999659e+01,3.797409625089900875e-02
5.920000000000000284e+01,4.107775207436451664e-02
5.924000000000000199e+01,4.390678477129949381e-02
5.928000000000000114e+01,3.552204414490228029e-02
5.932000000000000028e+01,3.862226497666539776e-02
5.935999999999999943e+01,3.926003093351724399e-02
5.939999999999999858e+01,4.536622485526018572e-02
5.943999999999999773e+01,4.162603671051793436e-02
5.947999999999999687e+01,3.761122177705847336e-02
5.952000000000000313e+01,4.234657785332800878e-02
5.956000000000000227e+01,3.094553901981771105e-02
5.960000000000000142e+01,4.142164947903198557e-02
5.964000000000000057e+01,4.697399213383565003e-02
5.967999999999999972e+01,3.857776796505361233e-02
5.971999999999999886e+01,4.111954167146573969e-02
5.975999999999999801e+01,3.709667330440842570e-02
5.979999999999999716e+01,3.444004570368409957e-02
5.984000000000000341e+01,4.354185036604341086e-02
5.988000000000000256e+01,4.170335128926521556e-02
5.992000000000000171e+01,3.931673997010019100e-02
5.996000000000000085e+01,4.075767563275860955e-02
