2.003999999999999915e+01,4.212846825576912341e-02
2.007999999999999829e+01,4.566554430469736692e-02
2.012000000000000099e+01,6.095449896798844913e-02
2.016000000000000014e+01,4.521755294303340944e-02
2.019999999999999929e+01,6.567692896434579319e-02
2.023999999999999844e+01,4.711894969272619610e-02
2.028000000000000114e+01,6.710771839609333544e-02
2.032000000000000028e+01,6.100648100804862556e-02
2.035999999999999943e+01,5.514002360827709170e-02
2.039999999999999858e+01,3.963655040954724984e-02
2.044000000000000128e+01,6.314990773412255953e-02
2.048000000000000043e+01,6.832966643686748387e-02
2.051999999999999957e+01,4.600915894873645884e-02
2.055999999999999872e+01,4.648753076776272752e-02
2.060000000000000142e+01,4.038443873688224439e-02
2.064000000000000057e+01,5.237936976001147243e-02
2.067999999999999972e+01,6.413898943167815891e-02
2.071999999999999886e+01,4.275731350388517482e-02
2.076000000000000156e+01,3.477280364433609633e-02
2.080000000000000071e+01,4.136067281739096158e-02
2.083999999999999986e+01,3.972177456906163945e-02
2.087999999999999901e+01,5.500568128205546997e-02
2.092000000000000171e+01,5.031068213865082239e-02
2.096000000000000085e+01,5.360686239430181160e-02
2.100000000000000000e+01,4.209507559502052854e-02
2.103999999999999915e+01,5.596762944483047592e-02
2.107999999999999829e+01,4.257494958650692718e-02
2.112000000000000099e+01,3.482301880281093998e-02
2.116000000000000014e+01,4.540414428848520839e-02
2.119999999999999929e+01,4.752345301981673181e-02
2.123999999999999844e+01,5.434333767033947687e-02
2.128000000000000114e+01,5.599200245282125871e-02
2.132000000000000028e+01,7.009765208931183211e-02
2.135999999999999943e+01,6.822011438032918318e-02
2.139999999999999858e+01,6.164144008424267407e-02
2.144000000000000128e+01,5.694282517151026679e-02
2.148000000000000043e+01,6.916700423082952631e-02
2.151999999999999957e+01,5.013021495349168077e-02
2.155999999999999872e+01,6.728972281340593609e-02
2.160000000000000142e+01,4.284638033802236345e-02
2.164000000000000057e+01,5.624463271042336870e-02
2.167999999999999972e+01,3.556140094294823334e-02
2.171999999999999886e+01,4.167275380643021415e-02
2.176000000000000156e+01,4.778381827715683094e-02
2.180000000000000071e+01,6.541168785289254439e-02
2.183999999999999986e+01,5.483413884316876152e-02
2.187999999999999901e+01,5.953407730354715738e-02
2.192000000000000171e+01,5.177645925273276217e-02
2.196000000000000085e+01,5.365530146129059152e-02
2.200000000000000000e+01,4.683726952374880903e-02
2.203999999999999915e+01,4.613005528940945094e-02
2.207999999999999829e+01,4.448237584378772480e-02
2.212000000000000099e+01,6.116773508470185056e-02
2.216000000000000014e+01,3.460493455789564327e-02
2.219999999999999929e+01,8.208030048913797505e-02
2.223999999999999844e+01,4.823058140534236538e-02
2.228000000000000114e+01,6.138911228386915997e-02
2.232000000000000028e+01,6.138495110683552664e-02
2.235999999999999943e+01,6.208561876596186552e-02
2.239999999999999858e+01,3.998684058907365363e-02
2.244000000000000128e+01,5.431938617123485691e-02
2.248000000000000043e+01,5.125846745824334805e-02
2.251999999999999957e+01,4.678698999637917466e-02
2.255999999999999872e+01,5.148187632582486295e-02
2.260000000000000142e+01,8.908244239291440714e-02
2.264000000000000057e+01,1.005929598767427713e-01
2.267999999999999972e+01,7.778693216584706138e-02
2.271999999999999886e+01,1.142113688070442445e-01
2.276000000000000156e+01,1.111483185215786651e-01
2.280000000000000071e+01,1.348798330863819339e-01
2.283999999999999986e+01,1.087819787258813009e-01
2.287999999999999901e+01,6.223509713190470555e-02
2.292000000000000171e+01,5.305970146314288594e-02
2.296000000000000085e+01,4.623442281703844109e-02
2.300000000000000000e+01,4.246438867916020599e-02
2.303999999999999915e+01,5.937780377155761624e-02
2.307999999999999829e+01,6.171825645227720786e-02
2.312000000000000099e+01,3.115241231584735954e-02
2.316000000000000014e+01,5.088540037567976237e-02
2.319999999999999929e+01,4.922918438350921272e-02
2.323999999999999844e+01,4.522222549775808259e-02
2.328000000000000114e+01,3.815939476762177096e-02
2.332000000000000028e+01,3.227146076960240445e-02
2.335999999999999943e+01,4.824218383789145165e-02
2.339999999999999858e+01,5.128523780932722764e-02
2.344000000000000128e+01,3.975532277552298877e-02
2.348000000000000043e+01,5.031910534956830772e-02
2.351999999999999957e+01,4.983555854407072105e-02
2.355999999999999872e+01,5.311237420833267442e-02
2.360000000000000142e+01,3.264955110045494879e-02
2.364000000000000057e+01,2.017785830622081250e-02
2.367999999999999972e+01,2.415883371125242263e-02
2.371999999999999886e+01,4.106683549199827837e-02
2.376000000000000156e+01,3.470528104892317556e-02
2.380000000000000071e+01,4.479639260725964273e-02
2.383999999999999986e+01,4.830598097362413107e-02
2.387999999999999901e+01,3.700754953655383678e-02
2.392000000000000171e+01,5.908485913952133545e-02
2.396000000000000085e+01,4.402508723123924050e-02
2.400000000000000000e+01,3.930686643699350669e-02
2.403999999999999915e+01,2.072079386642288953e-02
2.407999999999999829e+01,3.480533118723107971e-02
2.412000000000000099e+01,4.418868210290517046e-02
2.416000000000000014e+01,2.842212755341295971e-02
2.419999999999999929e+01,5.214242013991665647e-02
2.423999999999999844e+01,6.058460085063177569e-02
2.428000000000000114e+01,3.494524980129456310e-02
2.432000000000000028e+01,3.751069219911205843e-02
2.435999999999999943e+01,4.501169611130516335e-02
2.439999999999999858e+01,3.394398686569924384e-02
2.444000000000000128e+01,3.086739328137486429e-02
2.448000000000000043e+01,3.719217106208769219e-02
2.451999999999999957e+01,5.432857591159277050e-02
2.455999999999999872e+01,4.819540988491514966e-02
2.460000000000000142e+01,3.994651879503757080e-02
2.464000000000000057e+01,5.238104763071176756e-02
2.467999999999999972e+01,4.859728557421589407e-02
2.471999999999999886e+01,4.105249708089691446e-02
2.476000000000000156e+01,4.666975865461733819e-02
2.480000000000000071e+01,3.912428275045574944e-02
2.483999999999999986e+01,4.685624010265764666e-02
2.487999999999999901e+01,4.753656973602588681e-02
2.492000000000000171e+01,4.586612570585400089e-02
2.496000000000000085e+01,4.913123220078635667e-02
2.500000000000000000e+01,2.795154606375909248e-02
2.503999999999999915e+01,2.769031526549832478e-02
2.507999999999999829e+01,3.424497470965193191e-02
2.512000000000000099e+01,3.633347217261478912e-02
2.516000000000000014e+01,3.301563596418653768e-02
2.519999999999999929e+01,3.604360232152731269e-02
2.523999999999999844e+01,5.082335351811704399e-02
2.528000000000000114e+01,3.387198203315797129e-02
2.532000000000000028e+01,4.018948815259455742e-02
2.535999999999999943e+01,3.428441749507810804e-02
2.539999999999999858e+01,4.600719723122735638e-02
2.544000000000000128e+01,5.349885186463666092e-02
2.548000000000000043e+01,4.900297026263429612e-02
2.551999999999999957e+01,3.322467991078878469e-02
2.555999999999999872e+01,4.400586111916825194e-02
2.560000000000000142e+01,4.726531594279743259e-02
2.564000000000000057e+01,5.569535157641882644e-02
2.567999999999999972e+01,3.991562486296869328e-02
2.571999999999999886e+01,3.494750323976805045e-02
2.576000000000000156e+01,4.431662706513262578e-02
2.580000000000000071e+01,3.911273866078934097e-02
2.583999999999999986e+01,5.694267559741109097e-02
2.587999999999999901e+01,3.152438463282977027e-02
2.592000000000000171e+01,3.454590055007501770e-02
2.596000000000000085e+01,3.780209388906109746e-02
2.600000000000000000e+01,3.471176721409367782e-02
2.603999999999999915e+01,3.820227045931120363e-02
2.607999999999999829e+01,4.991890206786414597e-02
2.612000000000000099e+01,3.460525039779976941e-02
2.616000000000000014e+01,1.529550317726542999e-02
2.619999999999999929e+01,2.842128427995550127e-02
2.623999999999999844e+01,4.225182315485084134e-02
2.628000000000000114e+01,2.787686212367858699e-02
2.632000000000000028e+01,3.230494833293382634e-02
2.635999999999999943e+01,4.096343120747336641e-02
2.639999999999999858e+01,3.645914729940741977e-02
2.644000000000000128e+01,3.477500215501614506e-02
2.648000000000000043e+01,3.826142243563725176e-02
2.651999999999999957e+01,3.892695426920327745e-02
2.655999999999999872e+01,3.324595583216272132e-02
2.660000000000000142e+01,3.673124719200486499e-02
2.664000000000000057e+01,2.822898107051067390e-02
2.667999999999999972e+01,2.630753314731174713e-02
2.671999999999999886e+01,1.968485119880296341e-02
2.676000000000000156e+01,2.951478103796685223e-02
2.680000000000000071e+01,3.182296251383791297e-02
2.683999999999999986e+01,3.201537789989587768e-02
2.687999999999999901e+01,3.220741111808281959e-02
2.692000000000000171e+01,5.308282250259029056e-02
2.696000000000000085e+01,2.741938785366887510e-02
2.700000000000000000e+01,4.923420219692620919e-02
2.703999999999999915e+01,4.025803258102106374e-02
2.707999999999999829e+01,1.576865633404722286e-02
2.712000000000000099e+01,4.157803975414464670e-02
2.716000000000000014e+01,4.858361672639933265e-02
2.719999999999999929e+01,3.020418981511708775e-02
2.723999999999999844e+01,2.733719494250836518e-02
2.728000000000000114e+01,4.773904177600880178e-02
2.732000000000000028e+01,6.531998551009221554e-02
2.735999999999999943e+01,4.035780245429019392e-02
2.739999999999999858e+01,4.430548465223673599e-02
2.744000000000000128e+01,2.357328678912446948e-02
2.748000000000000043e+01,4.632360255704947444e-02
2.751999999999999957e+01,3.687266913802140361e-02
2.755999999999999872e+01,3.658800793304192722e-02
2.760000000000000142e+01,5.040551573679970254e-02
2.764000000000000057e+01,3.272690037393689161e-02
2.767999999999999972e+01,3.996241856677120591e-02
2.771999999999999886e+01,3.568044497637199580e-02
2.776000000000000156e+01,4.479550924605094075e-02
2.780000000000000071e+01,2.923068686110840905e-02
2.783999999999999986e+01,4.751161919842206843e-02
2.787999999999999901e+01,3.288616753703315493e-02
2.792000000000000171e+01,3.095262258706361555e-02
2.796000000000000085e+01,3.818534252496155051e-02
2.800000000000000000e+01,4.048176225437493531e-02
2.803999999999999915e+01,0.000000000000000000e+00
2.807999999999999829e+01,3.849219403612114815e-02
2.812000000000000099e+01,4.125748680508448812e-02
2.816000000000000014e+01,4.613775861695803421e-02
2.819999999999999929e+01,4.608172655725668171e-02
2.823999999999999844e+01,5.448682603890953741e-02
2.828000000000000114e+01,3.774194459573283755e-02
2.832000000000000028e+01,3.509921897416768549e-02
2.835999999999999943e+01,4.655864844159603166e-02
2.839999999999999858e+01,3.780399231364735269e-02
2.844000000000000128e+01,3.657029310638015146e-02
2.848000000000000043e+01,2.428917367492666388e-02
2.851999999999999957e+01,3.410165954144368794e-02
2.855999999999999872e+01,2.040945853057334405e-02
2.860000000000000142e+01,2.810573313425045183e-02
2.864000000000000057e+01,3.603663607425613979e-02
2.867999999999999972e+01,3.809105539368756732e-02
2.871999999999999886e+01,4.672625554789168467e-02
2.876000000000000156e+01,3.232685064040904943e-02
2.880000000000000071e+01,4.166634507833916895e-02
2.883999999999999986e+01,5.006525049252950194e-02
2.887999999999999901e+01,2.626288181075194308e-02
2.892000000000000171e+01,3.160539328263073378e-02
2.896000000000000085e+01,3.412697161775109927e-02
2.900000000000000000e+01,3.147718868953908872e-02
2.903999999999999915e+01,4.034407826246187712e-02
2.907999999999999829e+01,5.132593002807880889e-02
2.912000000000000099e+01,4.373898218696193468e-02
2.916000000000000014e+01,3.756186685511619244e-02
2.919999999999999929e+01,2.362791646349663224e-02
2.923999999999999844e+01,4.824054994041129807e-02
2.928000000000000114e+01,4.135703021336377405e-02
2.932000000000000028e+01,6.831923810170303923e-02
2.935999999999999943e+01,5.109298339348355977e-02
2.939999999999999858e+01,7.264835236272153274e-02
2.944000000000000128e+01,5.730158219142691967e-02
2.948000000000000043e+01,5.864241672917042819e-02
2.951999999999999957e+01,3.083752106119895878e-02
2.955999999999999872e+01,4.463475901295946291e-02
2.960000000000000142e+01,5.537600936667637364e-02
2.964000000000000057e+01,5.365956181390898333e-02
2.967999999999999972e+01,2.914353508863443479e-02
2.971999999999999886e+01,5.774673328300217179e-02
2.976000000000000156e+01,5.790932509413299067e-02
2.980000000000000071e+01,3.597746375308893962e-02
2.983999999999999986e+01,5.447251720647246914e-02
2.987999999999999901e+01,4.617226125453374047e-02
2.992000000000000171e+01,6.701686714079911622e-02
2.996000000000000085e+01,5.589522188980366318e-02
3.000000000000000000e+01,3.701672692667244691e-02
3.003999999999999915e+01,6.749676719190968177e-02
3.007999999999999829e+01,6.271995577049399584e-02
3.012000000000000099e+01,6.569911323919548629e-02
3.016000000000000014e+01,6.679748655017800352e-02
3.019999999999999929e+01,7.236122893450369631e-02
3.023999999999999844e+01,5.630059558664679553e-02
3.028000000000000114e+01,8.113695445320949495e-02
3.032000000000000028e+01,8.364380790416664491e-02
3.035999999999999943e+01,9.390662584953250736e-02
3.039999999999999858e+01,1.046390826354266085e-01
3.044000000000000128e+01,1.365249385960403961e-01
3.048000000000000043e+01,1.481966708651363263e-01
3.051999999999999957e+01,1.605730825163018127e-01
3.055999999999999872e+01,1.858763952654879370e-01
3.060000000000000142e+01,1.897903684283241965e-01
3.064000000000000057e+01,2.136825234058119805e-01
3.067999999999999972e+01,2.465058507137415644e-01
3.071999999999999886e+01,2.262090664190656852e-01
3.076000000000000156e+01,2.162537094259688875e-01
3.080000000000000071e+01,2.337978989777092231e-01
3.083999999999999986e+01,2.158501801836572864e-01
3.087999999999999901e+01,1.983720914387163692e-01
3.092000000000000171e+01,1.853593585799929444e-01
3.096000000000000085e+01,1.518974504989391017e-01
3.100000000000000000e+01,1.393538885965563690e-01
3.103999999999999915e+01,1.350363642128657449e-01
3.107999999999999829e+01,1.001628246149812163e-01
3.112000000000000099e+01,1.113572021132387957e-01
3.116000000000000014e+01,1.018673579866798268e-01
3.119999999999999929e+01,9.308218078768286385e-02
3.123999999999999844e+01,7.959568677753164900e-02
3.128000000000000114e+01,8.655744833893358470e-02
3.132000000000000028e+01,8.059139574510043591e-02
3.135999999999999943e+01,6.240265648160057965e-02
3.139999999999999858e+01,4.820917883411016819e-02
3.144000000000000128e+01,6.198532148835852323e-02
3.148000000000000043e+01,5.437210843865908361e-02
3.151999999999999957e+01,5.521996685563052704e-02
3.155999999999999872e+01,6.194342587330330802e-02
3.160000000000000142e+01,6.890145901356597991e-02
3.164000000000000057e+01,7.421372362863593031e-02
3.167999999999999972e+01,6.213235544639210406e-02
3.171999999999999886e+01,4.464453344339031765e-02
3.176000000000000156e+01,4.078871877805315127e-02
3.180000000000000071e+01,4.351362853589575697e-02
3.183999999999999986e+01,3.777652666298365186e-02
3.187999999999999901e+01,4.238083157834408171e-02
3.192000000000000171e+01,4.181372174925163110e-02
3.196000000000000085e+01,3.795553835825268146e-02
3.200000000000000000e+01,4.537893051525430932e-02
3.203999999999999915e+01,3.352834136621480471e-02
3.207999999999999829e+01,4.048069396059773145e-02
3.211999999999999744e+01,3.074453391705469010e-02
3.215999999999999659e+01,4.756772455175142800e-02
3.220000000000000284e+01,3.689043507108995257e-02
3.224000000000000199e+01,2.644770799112890203e-02
3.228000000000000114e+01,4.444467130671797550e-02
3.232000000000000028e+01,2.835995560601873439e-02
3.235999999999999943e+01,3.084313378101968470e-02
3.239999999999999858e+01,2.721471746256839963e-02
3.243999999999999773e+01,4.027385163941669954e-02
3.247999999999999687e+01,3.476412466961154024e-02
3.252000000000000313e+01,4.829237412382537953e-02
3.256000000000000227e+01,2.914919660241570287e-02
3.260000000000000142e+01,4.220638744594056718e-02
3.264000000000000057e+01,3.528445777596624783e-02
3.267999999999999972e+01,3.705862106613359852e-02
3.271999999999999886e+01,2.496477360185044014e-02
3.275999999999999801e+01,4.718667622658941074e-02
3.279999999999999716e+01,4.214313048609439477e-02
3.284000000000000341e+01,5.590251256927805668e-02
3.288000000000000256e+01,4.545200043413387403e-02
3.292000000000000171e+01,4.440270508160957391e-02
3.296000000000000085e+01,4.734864277298907881e-02
3.300000000000000000e+01,3.125562431488890236e-02
3.303999999999999915e+01,4.266211137501289136e-02
3.307999999999999829e+01,3.408946986283870051e-02
3.311999999999999744e+01,4.032402447629201275e-02
3.315999999999999659e+01,4.068201341594493425e-02
3.320000000000000284e+01,4.409506004621079750e-02
3.324000000000000199e+01,2.893923161007955908e-02
3.328000000000000114e+01,4.668888730256201547e-02
3.332000000000000028e+01,3.881838428154417431e-02
3.335999999999999943e+01,4.387473107528065686e-02
3.339999999999999858e+01,5.104596093895752418e-02
3.343999999999999773e+01,4.669959425501372940e-02
3.347999999999999687e+01,4.963904944247652523e-02
3.352000000000000313e+01,3.777030826554456794e-02
3.356000000000000227e+01,5.504636225857061776e-02
3.360000000000000142e+01,3.165951708845353429e-02
3.364000000000000057e+01,4.047302123520059997e-02
3.367999999999999972e+01,3.400824060828951806e-02
3.371999999999999886e+01,3.811987580861423558e-02
3.375999999999999801e+01,2.577801107306686157e-02
3.379999999999999716e+01,3.317922753594618190e-02
3.384000000000000341e+01,2.835771190683735940e-02
3.388000000000000256e+01,3.129209630174527995e-02
3.392000000000000171e+01,5.396955969722566637e-02
3.396000000000000085e+01,2.752257871775990253e-02
3.400000000000000000e+01,3.257081224340867970e-02
3.403999999999999915e+01,3.409289137161475997e-02
3.407999999999999829e+01,3.867001207283581043e-02
3.411999999999999744e+01,3.290473746890655582e-02
3.415999999999999659e+01,5.087826403956584309e-02
3.420000000000000284e+01,4.276153030033583852e-02
3.424000000000000199e+01,5.274257052496457432e-02
3.428000000000000114e+01,5.073591333820170329e-02
3.432000000000000028e+01,5.648514811665662078e-02
3.435999999999999943e+01,5.941335085491076390e-02
3.439999999999999858e+01,3.601624688078955416e-02
3.443999999999999773e+01,5.163571701364198102e-02
3.447999999999999687e+01,4.633586197498090753e-02
3.452000000000000313e+01,5.560813468091842238e-02
3.456000000000000227e+01,4.819185005922643067e-02
3.460000000000000142e+01,4.688615309865665215e-02
3.464000000000000057e+01,4.887053019384410973e-02
3.467999999999999972e+01,4.544839925453492135e-02
3.471999999999999886e+01,3.074369106322177858e-02
3.475999999999999801e+01,3.272649087535884488e-02
3.479999999999999716e+01,3.094807963091392514e-02
3.484000000000000341e+01,4.538708944589195382e-02
3.488000000000000256e+01,3.326574101768188518e-02
3.492000000000000171e+01,4.652847902008565989e-02
3.496000000000000085e+01,4.545307976263465721e-02
3.500000000000000000e+01,5.918484219776073973e-02
3.503999999999999915e+01,5.176222646532455118e-02
3.507999999999999829e+01,3.211685592973926445e-02
3.511999999999999744e+01,4.702223499810433138e-02
3.515999999999999659e+01,4.124331917984398049e-02
3.520000000000000284e+01,5.403224522139935676e-02
3.524000000000000199e+01,6.094456749301356557e-02
3.528000000000000114e+01,6.903156744393557087e-02
3.532000000000000028e+01,6.066503888687987261e-02
3.535999999999999943e+01,6.052446872576264930e-02
3.539999999999999858e+01,7.213549731889946914e-02
3.543999999999999773e+01,7.058359355774207478e-02
3.547999999999999687e+01,9.606106514631425342e-02
3.552000000000000313e+01,1.034397053880492384e-01
3.556000000000000227e+01,9.248447081093352784e-02
3.560000000000000142e+01,1.233663019676135703e-01
3.564000000000000057e+01,1.077091281127388472e-01
3.567999999999999972e+01,1.108548300656582858e-01
3.571999999999999886e+01,1.071837484996373546e-01
3.575999999999999801e+01,8.940955776079539952e-02
3.579999999999999716e+01,8.855789871672881119e-02
3.584000000000000341e+01,8.629543696196553815e-02
3.588000000000000256e+01,9.837003530339026580e-02
3.592000000000000171e+01,8.294408539597435126e-02
3.596000000000000085e+01,8.397057877407045068e-02
3.600000000000000000e+01,9.040250595346882578e-02
3.603999999999999915e+01,6.745354077100776391e-02
3.607999999999999829e+01,7.411941008235602146e-02
3.611999999999999744e+01,9.065652304566808317e-02
3.615999999999999659e+01,5.172299737635865230e-02
3.620000000000000284e+01,4.687011605152007626e-02
3.624000000000000199e+01,6.975172437485391286e-02
3.628000000000000114e+01,5.032508527386372887e-02
3.632000000000000028e+01,4.923122477998716912e-02
3.635999999999999943e+01,5.283766327566338794e-02
3.639999999999999858e+01,4.939226305849608173e-02
3.643999999999999773e+01,4.665143379592073120e-02
3.647999999999999687e+01,3.333312326433222200e-02
3.652000000000000313e+01,3.623220302220679645e-02
3.656000000000000227e+01,4.688713371868602486e-02
3.660000000000000142e+01,4.437911081494661653e-02
3.664000000000000057e+01,4.234061246331316530e-02
3.667999999999999972e+01,3.607078314325628393e-02
3.671999999999999886e+01,4.037731470407851520e-02
3.675999999999999801e+01,5.831576202530414782e-02
3.679999999999999716e+01,4.029210636185075883e-02
3.684000000000000341e+01,5.000292935729841459e-02
3.688000000000000256e+01,4.537557992722298511e-02
3.692000000000000171e+01,5.038441675735390313e-02
3.696000000000000085e+01,5.069183201194366051e-02
3.700000000000000000e+01,7.450295368584190780e-02
3.703999999999999915e+01,5.553572853688133054e-02
3.707999999999999829e+01,3.374742152968978476e-02
3.711999999999999744e+01,5.285598145922434238e-02
3.715999999999999659e+01,6.091696218644699484e-02
3.720000000000000284e+01,7.015258542730909430e-02
3.724000000000000199e+01,8.314832058254374714e-02
3.728000000000000114e+01,8.039561954970085578e-02
3.732000000000000028e+01,7.176627665077618679e-02
3.735999999999999943e+01,8.170473605029036912e-02
3.739999999999999858e+01,8.177082554876195786e-02
3.743999999999999773e+01,7.525514276511076350e-02
3.747999999999999687e+01,6.826879819100338531e-02
3.752000000000000313e+01,6.198700479079959080e-02
3.756000000000000227e+01,5.734993278946350082e-02
3.760000000000000142e+01,6.634476116355082775e-02
3.764000000000000057e+01,5.771080484083342815e-02
3.767999999999999972e+01,7.117028604654355994e-02
3.771999999999999886e+01,8.063345997515555807e-02
3.775999999999999801e+01,6.917724865757052255e-02
3.779999999999999716e+01,5.936575434314469990e-02
3.784000000000000341e+01,5.425453191140230946e-02
3.788000000000000256e+01,6.418546116313007810e-02
3.792000000000000171e+01,8.445768657779872957e-02
3.796000000000000085e+01,6.712248858609477786e-02
3.800000000000000000e+01,6.647473925577575271e-02
3.803999999999999915e+01,7.123238636323642181e-02
3.807999999999999829e+01,7.011337768487145572e-02
3.811999999999999744e+01,7.416472123965452135e-02
3.815999999999999659e+01,6.998898014942016299e-02
3.820000000000000284e+01,6.346222216643949976e-02
3.824000000000000199e+01,6.069555778237904764e-02
3.828000000000000114e+01,7.391120871319026286e-02
3.832000000000000028e+01,8.078011398367615503e-02
3.835999999999999943e+01,8.506295669154785577e-02
3.839999999999999858e+01,7.289221447984881030e-02
3.843999999999999773e+01,8.634053696776716746e-02
3.847999999999999687e+01,1.002583503073593146e-01
3.852000000000000313e+01,1.087695852811181169e-01
3.856000000000000227e+01,1.285622756535105271e-01
3.860000000000000142e+01,1.452988135887889332e-01
3.864000000000000057e+01,1.516928734330728057e-01
3.867999999999999972e+01,1.815906089267054768e-01
3.871999999999999886e+01,1.945646681610316009e-01
3.875999999999999801e+01,2.310424015794702302e-01
3.879999999999999716e+01,2.522417564491350461e-01
3.884000000000000341e+01,3.176285451044860708e-01
3.888000000000000256e+01,4.344890917341676650e-01
3.892000000000000171e+01,6.686353626363199520e-01
3.896000000000000085e+01,8.496613710165399347e-01
3.900000000000000000e+01,9.996611336453928853e-01
3.903999999999999915e+01,9.928867842136333000e-01
3.907999999999999829e+01,9.992742225716371163e-01
3.911999999999999744e+01,9.102337023860339604e-01
3.915999999999999659e+01,6.940344531058056932e-01
3.920000000000000284e+01,5.645653668482978338e-01
3.924000000000000199e+01,4.310999454742042714e-01
3.928000000000000114e+01,3.448775054391403638e-01
3.932000000000000028e+01,3.068382169680699545e-01
3.935999999999999943e+01,3.306145582133179772e-01
3.939999999999999858e+01,4.056296051694656679e-01
3.943999999999999773e+01,5.429303658554868184e-01
3.947999999999999687e+01,6.717689749806978750e-01
3.952000000000000313e+01,7.091753448058465414e-01
3.956000000000000227e+01,6.814742614106176211e-01
3.960000000000000142e+01,5.987725618564028185e-01
3.964000000000000057e+01,5.423950332414493314e-01
3.967999999999999972e+01,4.206750064688686841e-01
3.971999999999999886e+01,4.061338515223876788e-01
3.975999999999999801e+01,4.273185748931362382e-01
3.979999999999999716e+01,5.444001171337611300e-01
3.984000000000000341e+01,7.319938616569233725e-01
3.988000000000000256e+01,9.442664735478690785e-01
3.992000000000000171e+01,1.000000000000000000e+00
3.996000000000000085e+01,9.165876029959697524e-01
4.000000000000000000e+01,8.202472328585785899e-01
4.003999999999999915e+01,6.428164944304946005e-01
4.007999999999999829e+01,4.463466701795287817e-01
4.011999999999999744e+01,3.450685307193079310e-01
4.015999999999999659e+01,2.336829280680006171e-01
4.020000000000000284e+01,2.160787523058286252e-01
4.024000000000000199e+01,1.747346330023911432e-01
4.028000000000000114e+01,1.707616816679172478e-01
4.032000000000000028e+01,1.456342554602929329e-01
4.035999999999999943e+01,1.346087645562349389e-01
4.039999999999999858e+01,1.087749512774707078e-01
4.043999999999999773e+01,1.062097386734636439e-01
4.047999999999999687e+01,8.930628770830528751e-02
4.052000000000000313e+01,9.026545294656991569e-02
4.056000000000000227e+01,8.158723314635828172e-02
4.060000000000000142e+01,7.619897824180851820e-02
4.064000000000000057e+01,7.386564476090687337e-02
4.067999999999999972e+01,6.918124896493724196e-02
4.071999999999999886e+01,5.156886684848115132e-02
4.075999999999999801e+01,6.263106255193552629e-02
4.079999999999999716e+01,7.604304853037897882e-02
4.084000000000000341e+01,6.430482354191231764e-02
4.088000000000000256e+01,6.619843885418565110e-02
4.092000000000000171e+01,6.174526088595778950e-02
4.096000000000000085e+01,5.752648560768665320e-02
4.100000000000000000e+01,7.328570239598157510e-02
4.103999999999999915e+01,6.107419168152902755e-02
4.107999999999999829e+01,5.708853459862803237e-02
4.111999999999999744e+01,5.733300384493596885e-02
4.115999999999999659e+01,6.368794060299916293e-02
4.120000000000000284e+01,6.675163456437702147e-02
4.124000000000000199e+01,5.265656337211299665e-02
4.128000000000000114e+01,5.313349611199037065e-02
4.132000000000000028e+01,4.679354276639466348e-02
4.135999999999999943e+01,3.951277108759674445e-02
4.139999999999999858e+01,3.105613760358308384e-02
4.143999999999999773e+01,3.999201799398522522e-02
4.147999999999999687e+01,3.835032553811288519e-02
4.152000000000000313e+01,4.657977783076196893e-02
4.156000000000000227e+01,4.352652759371371249e-02
4.160000000000000142e+01,5.175467707632414038e-02
4.164000000000000057e+01,3.882832750938719490e-02
4.167999999999999972e+01,5.575175260912249020e-02
4.171999999999999886e+01,4.399930953341619350e-02
4.175999999999999801e+01,5.387014378030108991e-02
4.179999999999999716e+01,4.564203165930866973e-02
4.184000000000000341e+01,5.222095595319994898e-02
4.188000000000000256e+01,4.493170172309779442e-02
4.192000000000000171e+01,6.020589284269683983e-02
4.196000000000000085e+01,5.526575000938604293e-02
4.200000000000000000e+01,5.502580286647722890e-02
4.203999999999999915e+01,5.784075150558337652e-02
4.207999999999999829e+01,5.712939849101057732e-02
4.211999999999999744e+01,5.054131569618511982e-02
4.215999999999999659e+01,5.194402401282720988e-02
4.220000000000000284e+01,4.417940273244243959e-02
4.224000000000000199e+01,4.440557109828913163e-02
4.228000000000000114e+01,5.591312672928695077e-02
4.232000000000000028e+01,4.838155551078999334e-02
4.235999999999999943e+01,2.980230984962940061e-02
4.239999999999999858e+01,4.036769744982862673e-02
4.243999999999999773e+01,4.740677680278612693e-02
4.247999999999999687e+01,5.538535922439946635e-02
4.252000000000000313e+01,4.408976839403198206e-02
4.256000000000000227e+01,4.196017504592901987e-02
4.260000000000000142e+01,3.113333025340947816e-02
4.264000000000000057e+01,3.934427653253191187e-02
4.267999999999999972e+01,2.405027732008103644e-02
4.271999999999999886e+01,4.119150385958321448e-02
4.275999999999999801e+01,2.942180043617791466e-02
4.279999999999999716e+01,3.316424406300878119e-02
4.284000000000000341e+01,3.455558581339479574e-02
4.288000000000000256e+01,5.216420136696745674e-02
4.292000000000000171e+01,3.263538814831551393e-02
4.296000000000000085e+01,4.084094149799671197e-02
4.300000000000000000e+01,4.622530456196956988e-02
4.303999999999999915e+01,3.022010019536644845e-02
4.307999999999999829e+01,4.406464485380225810e-02
4.311999999999999744e+01,4.615637293164396443e-02
4.315999999999999659e+01,3.508502725990018251e-02
4.320000000000000284e+01,3.200445365155354938e-02
4.324000000000000199e+01,4.514114725283079055e-02
4.328000000000000114e+01,4.723014956122827818e-02
4.332000000000000028e+01,5.542957982000417533e-02
4.335999999999999943e+01,4.952576170852180520e-02
4.339999999999999858e+01,4.761698542762154984e-02
4.343999999999999773e+01,3.818615601430267598e-02
4.347999999999999687e+01,5.202387159676603867e-02
4.352000000000000313e+01,4.235662630267621187e-02
4.356000000000000227e+01,4.115023195721188853e-02
4.360000000000000142e+01,2.466537114880290593e-02
4.364000000000000057e+01,2.275247104806794526e-02
4.367999999999999972e+01,3.353118900722439066e-02
4.371999999999999886e+01,2.621092543283511794e-02
4.375999999999999801e+01,3.863356063496808240e-02
4.379999999999999716e+01,2.731618709282546131e-02
4.384000000000000341e+01,3.738701003773793607e-02
4.388000000000000256e+01,2.935884851863226550e-02
4.392000000000000171e+01,2.697101848184249237e-02
4.396000000000000085e+01,4.197565616452889753e-02
4.400000000000000000e+01,4.123173457929853875e-02
4.403999999999999915e+01,3.625634722391605363e-02
4.407999999999999829e+01,2.563923692939006072e-02
4.411999999999999744e+01,2.489322376320968547e-02
4.415999999999999659e+01,3.871916178066818481e-02
4.420000000000000284e+01,3.750166508530614062e-02
4.424000000000000199e+01,4.991594715076463212e-02
4.428000000000000114e+01,3.859021168053049233e-02
4.432000000000000028e+01,4.277659542104512991e-02
4.435999999999999943e+01,4.226142205167177784e-02
4.439999999999999858e+01,4.644640041561500649e-02
4.443999999999999773e+01,5.838708539239905598e-02
4.447999999999999687e+01,6.915185215237439065e-02
4.452000000000000313e+01,8.508685392660311764e-02
4.456000000000000227e+01,5.824337114577191055e-02
4.460000000000000142e+01,6.642054981719468232e-02
4.464000000000000057e+01,5.767394380183352154e-02
4.467999999999999972e+01,5.879842465816473990e-02
4.471999999999999886e+01,3.524270896242216039e-02
4.475999999999999801e+01,4.341705343692328634e-02
4.479999999999999716e+01,4.007359330026603883e-02
4.484000000000000341e+01,4.096019135933533228e-02
4.488000000000000256e+01,2.703838499047216473e-02
4.492000000000000171e+01,3.215432793401979544e-02
4.496000000000000085e+01,3.562425839055047977e-02
4.500000000000000000e+01,4.873022711843332661e-02
4.503999999999999915e+01,4.749787396670246409e-02
4.507999999999999829e+01,4.015369408158462466e-02
4.511999999999999744e+01,5.208230258518276035e-02
4.515999999999999659e+01,3.651019360516131324e-02
4.520000000000000284e+01,3.362967484554383463e-02
4.524000000000000199e+01,3.474416421607628286e-02
4.528000000000000114e+01,3.350750702046039614e-02
4.532000000000000028e+01,5.060346359288776796e-02
4.535999999999999943e+01,4.842519489744990385e-02
4.539999999999999858e+01,4.154535004405365828e-02
4.543999999999999773e+01,4.688700553656175579e-02
4.547999999999999687e+01,4.846725436345766108e-02
4.552000000000000313e+01,6.132883111343940402e-02
4.556000000000000227e+01,4.339908470208267421e-02
4.560000000000000142e+01,3.722075022736683753e-02
4.564000000000000057e+01,4.796476722337608689e-02
4.567999999999999972e+01,5.283198923612256181e-02
4.571999999999999886e+01,4.665147526628579677e-02
4.575999999999999801e+01,3.482920758734563832e-02
4.579999999999999716e+01,4.510022871536063099e-02
4.584000000000000341e+01,4.878932371145384972e-02
4.588000000000000256e+01,4.754179101877614722e-02
4.592000000000000171e+01,5.240463865630094059e-02
4.596000000000000085e+01,4.951034426707173752e-02
4.600000000000000000e+01,4.191446273061293776e-02
4.603999999999999915e+01,4.936058342353383255e-02
4.607999999999999829e+01,4.669913249789091336e-02
4.611999999999999744e+01,5.085318645754674516e-02
4.615999999999999659e+01,4.395949637582021591e-02
4.620000000000000284e+01,5.845395955668136051e-02
4.624000000000000199e+01,4.732802738839900214e-02
4.628000000000000114e+01,4.795349470224988253e-02
4.632000000000000028e+01,5.892010432924260632e-02
4.635999999999999943e+01,5.813383803357578816e-02
4.639999999999999858e+01,5.922717396757428560e-02
4.643999999999999773e+01,5.115310264702834647e-02
4.647999999999999687e+01,5.859111097585428113e-02
4.652000000000000313e+01,4.463948813633025064e-02
4.656000000000000227e+01,4.949054183247977162e-02
4.660000000000000142e+01,4.070837329509680025e-02
4.664000000000000057e+01,2.604939219161691091e-02
4.667999999999999972e+01,4.006488048057003926e-02
4.671999999999999886e+01,2.493432353802913989e-02
4.675999999999999801e+01,4.623464492273868243e-02
4.679999999999999716e+01,3.556840673797122959e-02
4.684000000000000341e+01,3.524330134231038608e-02
4.688000000000000256e+01,3.233197733638195487e-02
4.692000000000000171e+01,3.764639999976385210e-02
4.696000000000000085e+01,3.520366232093957021e-02
4.700000000000000000e+01,3.534564410069587076e-02
4.703999999999999915e+01,1.973901093356058775e-02
4.707999999999999829e+01,5.090513076613596005e-02
4.711999999999999744e+01,5.198502708345410089e-02
4.715999999999999659e+01,3.543596434086183217e-02
4.720000000000000284e+01,4.262546393936059858e-02
4.724000000000000199e+01,4.464326820067772428e-02
4.728000000000000114e+01,4.807057309527097005e-02
4.732000000000000028e+01,3.433900147827266547e-02
4.735999999999999943e+01,2.953829668997235564e-02
4.739999999999999858e+01,2.873256047044510028e-02
4.743999999999999773e+01,3.756281783256642387e-02
4.747999999999999687e+01,2.124274261317451312e-02
4.752000000000000313e+01,3.923814714672936577e-02
4.756000000000000227e+01,4.148492720935738343e-02
4.760000000000000142e+01,3.950017629882331127e-02
4.764000000000000057e+01,2.858303889459764754e-02
4.767999999999999972e+01,3.787881394911240401e-02
4.771999999999999886e+01,3.471655995376598386e-02
4.775999999999999801e+01,2.849798575176282558e-02
4.779999999999999716e+01,3.990685167729464411e-02
4.784000000000000341e+01,4.214828470664890026e-02
4.788000000000000256e+01,3.075647205869167650e-02
4.792000000000000171e+01,4.427842226167768430e-02
4.796000000000000085e+01,4.581242449788506393e-02
4.800000000000000000e+01,4.099950378018935027e-02
4.803999999999999915e+01,4.135675360635501785e-02
4.807999999999999829e+01,4.476878858920396720e-02
4.811999999999999744e+01,2.914159049293496215e-02
4.815999999999999659e+01,4.877003138530543874e-02
4.820000000000000284e+01,4.136778459387265017e-02
4.824000000000000199e+01,4.148613207716649737e-02
4.828000000000000114e+01,3.737293613279059346e-02
4.832000000000000028e+01,4.125041847669631140e-02
4.835999999999999943e+01,3.313994552764246843e-02
4.839999999999999858e+01,3.960134610470989608e-02
4.843999999999999773e+01,2.960897787506588247e-02
4.847999999999999687e+01,3.324831074872462017e-02
4.852000000000000313e+01,3.829712154449869954e-02
4.856000000000000227e+01,4.193489665702321983e-02
4.860000000000000142e+01,3.405479755967077277e-02
4.864000000000000057e+01,3.063972979872174596e-02
4.867999999999999972e+01,3.498029099309590134e-02
4.871999999999999886e+01,3.908502727072597771e-02
4.875999999999999801e+01,4.013342502624713676e-02
4.879999999999999716e+01,3.742035530885447214e-02
4.884000000000000341e+01,2.718513355560095435e-02
4.888000000000000256e+01,4.350895624622539565e-02
4.892000000000000171e+01,2.810122327800956485e-02
4.896000000000000085e+01,2.938073823382179178e-02
4.900000000000000000e+01,3.935604724159478401e-02
4.903999999999999915e+01,3.757843124129625623e-02
4.907999999999999829e+01,3.862053934283316003e-02
4.911999999999999744e+01,4.694818286210315078e-02
4.915999999999999659e+01,4.211264273907396744e-02
4.920000000000000284e+01,4.761819218068401999e-02
4.924000000000000199e+01,3.361440255107846914e-02
4.928000000000000114e+01,4.663973551796111311e-02
4.932000000000000028e+01,4.885230930602788707e-02
4.935999999999999943e+01,4.730340536452763700e-02
4.939999999999999858e+01,4.833917692452250475e-02
4.943999999999999773e+01,5.783569173828356780e-02
4.947999999999999687e+01,5.040833321847171256e-02
4.952000000000000313e+01,4.697590443867413063e-02
4.956000000000000227e+01,4.636319096929488598e-02
4.960000000000000142e+01,5.139070495046266229e-02
4.964000000000000057e+01,4.419519745549645856e-02
4.967999999999999972e+01,5.086641182468590316e-02
4.971999999999999886e+01,4.625477421008743206e-02
4.975999999999999801e+01,3.576626688518092650e-02
4.979999999999999716e+01,3.726413731141126062e-02
4.984000000000000341e+01,3.688086313182201842e-02
4.988000000000000256e+01,4.448823866840882768e-02
4.992000000000000171e+01,3.893241664295273713e-02
4.996000000000000085e+01,4.230741382601879708e-02
5.000000000000000000e+01,5.202775935163767018e-02
5.003999999999999915e+01,4.764473415977713705e-02
5.007999999999999829e+01,3.691474791787270615e-02
5.011999999999999744e+01,3.911130452374269456e-02
5.015999999999999659e+01,4.530277914773748332e-02
5.020000000000000284e+01,3.950626477834055100e-02
5.024000000000000199e+01,4.146535079216129988e-02
5.028000000000000114e+01,3.543217291707876498e-02
5.032000000000000028e+01,4.538108983882254560e-02
5.035999999999999943e+01,2.853432225478164108e-02
5.039999999999999858e+01,4.882349454793165344e-02
5.043999999999999773e+01,4.067168169429187519e-02
5.047999999999999687e+01,5.437802919189517470e-02
5.052000000000000313e+01,5.045535608966848079e-02
5.056000000000000227e+01,5.311306381273687982e-02
5.060000000000000142e+01,4.848363000414392804e-02
5.064000000000000057e+01,4.643884898588538507e-02
5.067999999999999972e+01,4.979923289808983050e-02
5.071999999999999886e+01,5.973999470511708737e-02
5.075999999999999801e+01,6.286369752880177630e-02
5.079999999999999716e+01,6.551649460020607385e-02
5.084000000000000341e+01,5.594624821693370414e-02
5.088000000000000256e+01,6.353330007081210706e-02
5.092000000000000171e+01,7.182465767153367597e-02
5.096000000000000085e+01,7.165365345005336728e-02
5.100000000000000000e+01,9.475105649215424808e-02
5.103999999999999915e+01,9.786900201643432273e-02
5.107999999999999829e+01,1.042767204904364586e-01
5.111999999999999744e+01,9.869643312083080378e-02
5.115999999999999659e+01,1.128589089934005640e-01
5.120000000000000284e+01,1.100974800298194778e-01
5.124000000000000199e+01,1.014591542490609899e-01
5.128000000000000114e+01,8.459350352455141664e-02
5.132000000000000028e+01,1.142654854028393452e-01
5.135999999999999943e+01,8.682125107786238527e-02
5.139999999999999858e+01,9.463259639945960366e-02
5.143999999999999773e+01,9.774225493776683704e-02
5.147999999999999687e+01,8.298783255401434578e-02
5.152000000000000313e+01,7.504881615211832224e-02
5.156000000000000227e+01,7.721580335099868797e-02
5.160000000000000142e+01,6.339904934512957668e-02
5.164000000000000057e+01,6.814983609304095524e-02
5.167999999999999972e+01,6.584850426799808421e-02
5.171999999999999886e+01,5.978565148892093367e-02
5.175999999999999801e+01,5.724760194445376732e-02
5.179999999999999716e+01,4.695230341099149857e-02
5.184000000000000341e+01,4.018180664690310794e-02
5.188000000000000256e+01,4.469252131962414554e-02
5.192000000000000171e+01,3.415965988423316779e-02
5.196000000000000085e+01,4.666014539019373158e-02
5.200000000000000000e+01,5.046320728648646253e-02
5.203999999999999915e+01,4.627397305867991112e-02
5.207999999999999829e+01,5.148560468942781077e-02
5.211999999999999744e+01,4.564938311869796983e-02
5.215999999999999659e+01,3.299607692299233452e-02
5.220000000000000284e+01,3.420944643650263017e-02
5.224000000000000199e+01,3.471684108408579217e-02
5.228000000000000114e+01,3.052253356339901594e-02
5.232000000000000028e+01,4.019489955407390402e-02
5.235999999999999943e+01,4.610573286882498067e-02
5.239999999999999858e+01,3.932340867800264428e-02
5.243999999999999773e+01,4.452741388552317048e-02
5.247999999999999687e+01,3.868355929800308679e-02
5.252000000000000313e+01,4.318073346782074634e-02
5.256000000000000227e+01,4.109585842587733240e-02
5.260000000000000142e+01,3.995030110021285941e-02
5.264000000000000057e+01,3.809876158244032002e-02
5.267999999999999972e+01,2.754978600049230383e-02
5.271999999999999886e+01,4.732046836141461099e-02
5.275999999999999801e+01,3.606465295034665813e-02
5.279999999999999716e+01,4.854729731383703589e-02
5.284000000000000341e+01,3.940515201592350442e-02
5.288000000000000256e+01,4.436471271211393785e-02
5.292000000000000171e+01,3.639606363930025790e-02
5.296000000000000085e+01,3.900347800442082596e-02
5.300000000000000000e+01,5.218695507485763413e-02
5.303999999999999915e+01,6.160888701486309099e-02
5.307999999999999829e+01,5.081628133412951359e-02
5.311999999999999744e+01,3.908264193047517043e-02
5.315999999999999659e+01,4.286095982897156209e-02
5.320000000000000284e+01,4.616832801810211162e-02
5.324000000000000199e+01,4.336372001975517115e-02
5.328000000000000114e+01,3.961807536801517649e-02
5.332000000000000028e+01,4.151259003333978431e-02
5.335999999999999943e+01,3.564982713756364996e-02
5.339999999999999858e+01,3.237166648147358355e-02
5.343999999999999773e+01,4.484050073860326030e-02
5.347999999999999687e+01,3.403923443667054849e-02
5.352000000000000313e+01,3.733966240695239108e-02
5.356000000000000227e+01,4.345973242584354884e-02
5.360000000000000142e+01,3.594645200303628330e-02
5.364000000000000057e+01,3.642375243030456650e-02
5.367999999999999972e+01,4.442154749623916654e-02
5.371999999999999886e+01,3.502530609229212444e-02
5.375999999999999801e+01,4.090596826182883033e-02
5.379999999999999716e+01,2.962763523564322307e-02
5.384000000000000341e+01,3.809201636622102510e-02
5.388000000000000256e+01,4.091449506622298060e-02
5.392000000000000171e+01,4.608652374248026901e-02
5.396000000000000085e+01,3.503972525012521294e-02
5.400000000000000000e+01,4.397068072345666073e-02
5.403999999999999915e+01,4.749477357513551268e-02
5.407999999999999829e+01,4.279149019979688884e-02
5.411999999999999744e+01,3.785228300427197906e-02
5.415999999999999659e+01,2.844638194682247781e-02
5.420000000000000284e+01,3.455241914345325710e-02
5.424000000000000199e+01,3.501654731594554260e-02
5.428000000000000114e+01,3.641996243475689038e-02
5.432000000000000028e+01,2.795069775507328519e-02
5.435999999999999943e+01,4.321986427784248186e-02
5.439999999999999858e+01,4.391549474896920546e-02
5.443999999999999773e+01,3.802904157528458340e-02
5.447999999999999687e+01,3.073144429087304452e-02
5.452000000000000313e+01,4.576201884206852061e-02
5.456000000000000227e+01,3.517204565955756035e-02
5.460000000000000142e+01,4.197434532011060787e-02
5.464000000000000057e+01,3.584840370908166929e-02
5.467999999999999972e+01,3.489251102731105031e-02
5.471999999999999886e+01,3.440581175426950938e-02
5.475999999999999801e+01,3.650368981189894974e-02
5.479999999999999716e+01,3.719041789785668128e-02
5.484000000000000341e+01,4.116685006743589503e-02
5.488000000000000256e+01,3.691589135763590629e-02
5.492000000000000171e+01,3.266403691468330178e-02
5.496000000000000085e+01,3.428735449084912429e-02
5.500000000000000000e+01,4.437131348686650795e-02
5.503999999999999915e+01,4.035181018814320425e-02
5.507999999999999829e+01,4.197243397128846282e-02
5.511999999999999744e+01,3.842121809148826839e-02
5.515999999999999659e+01,3.768961495557376917e-02
5.520000000000000284e+01,4.823916244916719859e-02
5.524000000000000199e+01,3.410832071212894362e-02
5.528000000000000114e+01,4.160050867276729458e-02
5.532000000000000028e+01,3.357897277396484220e-02
5.535999999999999943e+01,4.224456758029594000e-02
5.539999999999999858e+01,3.116566775282987589e-02
5.543999999999999773e+01,3.653885442586566473e-02
5.547999999999999687e+01,4.379147702426007538e-02
5.552000000000000313e+01,3.717567127589224002e-02
5.556000000000000227e+01,3.337947094522916019e-02
5.560000000000000142e+01,3.710373008756401997e-02
5.564000000000000057e+01,3.142537073379805118e-02
5.567999999999999972e+01,4.501960635757216306e-02
5.571999999999999886e+01,4.615566640786689101e-02
5.575999999999999801e+01,4.940619999458923522e-02
5.579999999999999716e+01,4.419428311232064671e-02
5.584000000000000341e+01,4.297718021640802716e-02
5.588000000000000256e+01,4.105403578632191297e-02
5.592000000000000171e+01,5.182228523499150113e-02
5.596000000000000085e+01,5.060244019326435444e-02
5.600000000000000000e+01,4.209535471643358756e-02
5.603999999999999915e+01,5.309590036297564403e-02
5.607999999999999829e+01,6.973655477593410090e-02
5.611999999999999744e+01,7.650449642258345950e-02
5.615999999999999659e+01,7.480998100667905770e-02
5.620000000000000284e+01,8.580685434120381705e-02
5.624000000000000199e+01,8.998656832370753589e-02
5.628000000000000114e+01,8.123801099728748809e-02
5.632000000000000028e+01,8.047998543553089301e-02
5.635999999999999943e+01,8.912274734219313710e-02
5.639999999999999858e+01,8.836287683301077833e-02
5.643999999999999773e+01,8.807216822997951389e-02
5.647999999999999687e+01,7.696856930949419473e-02
5.652000000000000313e+01,5.810763495107897081e-02
5.656000000000000227e+01,4.676714248282751174e-02
5.660000000000000142e+01,5.258384348733999292e-02
5.664000000000000057e+01,4.735260850453038711e-02
5.667999999999999972e+01,4.705634308067910276e-02
5.671999999999999886e+01,4.793436265283895076e-02
5.675999999999999801e+01,4.434564074289834568e-02
5.679999999999999716e+01,4.757222810922626804e-02
5.684000000000000341e+01,4.821241444338202065e-02
5.688000000000000256e+01,5.496278037038354602e-02
5.692000000000000171e+01,5.818657284239438232e-02
5.696000000000000085e+01,5.036242346613842985e-02
5.700000000000000000e+01,4.606298135152272349e-02
5.703999999999999915e+01,6.597200683273884980e-02
5.707999999999999829e+01,8.141428497090970329e-02
5.711999999999999744e+01,8.110776354243012798e-02
5.715999999999999659e+01,9.772338259066570831e-02
5.720000000000000284e+01,1.002354997827835242e-01
5.724000000000000199e+01,1.333022348713229777e-01
5.728000000000000114e+01,1.755346978386695955e-01
5.732000000000000028e+01,2.027234857944619495e-01
5.735999999999999943e+01,2.193344100545977782e-01
5.739999999999999858e+01,2.314785811107437086e-01
5.743999999999999773e+01,2.036645445815512268e-01
5.747999999999999687e+01,2.089905916864230051e-01
5.752000000000000313e+01,1.799994554862139051e-01
5.756000000000000227e+01,1.545330162909916705e-01
5.760000000000000142e+01,1.285955467984136180e-01
5.764000000000000057e+01,1.045374736698173879e-01
5.767999999999999972e+01,7.718785590588242429e-02
5.771999999999999886e+01,6.205951357409785624e-02
5.775999999999999801e+01,5.633193306909890091e-02
5.779999999999999716e+01,5.342391695519165679e-02
5.784000000000000341e+01,5.027990888761561111e-02
5.788000000000000256e+01,5.442127579441081303e-02
5.792000000000000171e+01,4.586938409433613528e-02
5.796000000000000085e+01,4.953876343070331978e-02
5.800000000000000000e+01,5.226701966474271710e-02
5.803999999999999915e+01,4.559261344559584900e-02
5.807999999999999829e+01,4.761383497410318771e-02
5.811999999999999744e+01,3.576658053567229045e-02
5.815999999999999659e+01,4.389700387064652404e-02
5.820000000000000284e+01,5.437689879174043006e-02
5.824000000000000199e+01,4.793275993589948825e-02
5.828000000000000114e+01,4.477826215852426933e-02
5.832000000000000028e+01,4.538349020578786447e-02
5.835999999999999943e+01,4.105186198743614179e-02
5.839999999999999858e+01,5.387739427403422793e-02
5.843999999999999773e+01,4.907376090242036859e-02
5.847999999999999687e+01,3.745292715217251461e-02
5.852000000000000313e+01,4.839523471511813363e-02
5.856000000000000227e+01,4.711435742809553379e-02
5.860000000000000142e+01,5.217867097073630028e-02
5.864000000000000057e+01,4.454971271938151095e-02
5.867999999999999972e+01,3.527449069300466616e-02
5.871999999999999886e+01,4.715214988035753424e-02
5.875999999999999801e+01,4.657157781525608081e-02
5.879999999999999716e+01,3.376781650447788913e-02
5.884000000000000341e+01,3.718103668226825642e-02
5.888000000000000256e+01,4.270867325227516165e-02
5.892000000000000171e+01,4.400457151820019730e-02
5.896000000000000085e+01,4.247898718379873595e-02
5.900000000000000000e+01,4.118747512859504550e-02
5.903999999999999915e+01,5.164712885035368378e-02
5.907999999999999829e+01,4.071692136168184040e-02
5.911999999999999744e+01,3.918745079078061327e-02
5.915999999999999659e+01,4.588350270805385128e-02
5.920000000000000284e+01,4.223669996863398807e-02
5.924000000000000199e+01,4.634533277336142648e-02
5.928000000000000114e+01,4.011110945615949802e-02
5.932000000000000028e+01,4.891864513913119633e-02
5.935999999999999943e+01,4.926366515010191516e-02
5.939999999999999858e+01,4.232138245343138733e-02
5.943999999999999773e+01,3.937384780748861418e-02
5.947999999999999687e+01,4.606208622514906814e-02
5.952000000000000313e+01,3.935190851302938081e-02
5.956000000000000227e+01,4.932878458114367537e-02
5.960000000000000142e+01,4.919784140577951326e-02
5.964000000000000057e+01,5.141634344228373371e-02
5.967999999999999972e+01,3.694582806699740068e-02
5.971999999999999886e+01,3.610680792933038119e-02
5.975999999999999801e+01,4.255312833298437181e-02
5.979999999999999716e+01,3.936171130886054886e-02
5.984000000000000341e+01,4.087016322747027974e-02
5.988000000000000256e+01,4.073232939251526102e-02
5.992000000000000171e+01,4.341402111989314111e-02
5.996000000000000085e+01,3.810327166478969657e-02
