2.003999999999999915e+01,2.029035450600375629e-02
2.007999999999999829e+01,1.326101699686132833e-02
2.012000000000000099e+01,2.037250975498978295e-02
2.016000000000000014e+01,2.538816712933423397e-02
2.019999999999999929e+01,1.835648462590139252e-02
2.023999999999999844e+01,2.546563440385235522e-02
2.028000000000000114e+01,2.157497250627649771e-02
2.032000000000000028e+01,1.122378266242684067e-02
2.035999999999999943e+01,2.444116884967378542e-02
2.039999999999999858e+01,1.932605735892042875e-02
2.044000000000000128e+01,3.079601084525771665e-02
2.048000000000000043e+01,1.398196283097254827e-02
2.051999999999999957e+01,9.912049318307327578e-03
2.055999999999999872e+01,1.439616354058498651e-02
2.060000000000000142e+01,3.864951830162375191e-03
2.064000000000000057e+01,2.580629915627085172e-02
2.067999999999999972e+01,7.591677264137787831e-03
2.071999999999999886e+01,1.067599591648344011e-02
2.076000000000000156e+01,3.191667520614205333e-02
2.080000000000000071e+01,1.125550919248109218e-02
2.083999999999999986e+01,3.476428883674470560e-02
2.087999999999999901e+01,2.527520282627658543e-02
2.092000000000000171e+01,1.735663819633065028e-02
2.096000000000000085e+01,1.083400780835796356e-02
2.100000000000000000e+01,1.723010778835588550e-02
2.103999999999999915e+01,2.973601422086793664e-02
2.107999999999999829e+01,3.176588583499569823e-02
2.112000000000000099e+01,2.628771607072463018e-02
2.116000000000000014e+01,2.307842295486626366e-02
2.119999999999999929e+01,9.218509224813051586e-03
2.123999999999999844e+01,2.381564497370258424e-02
2.128000000000000114e+01,1.885818314528658196e-02
2.132000000000000028e+01,2.070888370864464728e-02
2.135999999999999943e+01,3.617667192197171477e-02
2.139999999999999858e+01,3.278821581177571859e-02
2.144000000000000128e+01,3.777921439672907167e-02
2.148000000000000043e+01,4.661038529031743399e-02
2.151999999999999957e+01,1.965029631238544156e-02
2.155999999999999872e+01,2.970206487036299720e-02
2.160000000000000142e+01,1.286655320540803366e-02
2.164000000000000057e+01,2.536103678268230091e-02
2.167999999999999972e+01,2.982372495097257784e-02
2.171999999999999886e+01,3.732790902147644068e-03
2.176000000000000156e+01,1.814547394445096759e-02
2.180000000000000071e+01,1.422568280668030059e-02
2.183999999999999986e+01,2.130417022653161019e-02
2.187999999999999901e+01,2.890566828025738222e-02
2.192000000000000171e+01,1.852386978785446406e-02
2.196000000000000085e+01,2.490174959449544326e-02
2.200000000000000000e+01,3.267558109871219335e-02
2.203999999999999915e+01,3.957572344293189964e-02
2.207999999999999829e+01,1.801730333138368279e-02
2.212000000000000099e+01,1.932913755150805074e-02
2.216000000000000014e+01,3.181384351012743472e-02
2.219999999999999929e+01,2.055385989488934043e-02
2.223999999999999844e+01,2.937072766673410468e-02
2.228000000000000114e+01,3.923437621590263741e-02
2.232000000000000028e+01,3.705072046986841727e-02
2.235999999999999943e+01,3.277126626536155246e-02
2.239999999999999858e+01,2.238049464562349294e-02
2.244000000000000128e+01,2.036919450526802206e-02
2.248000000000000043e+01,8.580234284129092601e-03
2.251999999999999957e+01,2.437540597615854565e-02
2.255999999999999872e+01,1.520377946722410722e-02
2.260000000000000142e+01,3.745721803240621012e-02
2.264000000000000057e+01,1.920554465660689186e-02
2.267999999999999972e+01,3.412481579684871480e-02
2.271999999999999886e+01,3.525091125639501222e-02
2.276000000000000156e+01,2.048877798759180663e-02
2.280000000000000071e+01,2.981902513317027589e-02
2.283999999999999986e+01,2.622903766175413431e-02
2.287999999999999901e+01,3.520863649282995195e-02
2.292000000000000171e+01,3.406140700834769941e-02
2.296000000000000085e+01,4.810258231787511995e-02
2.300000000000000000e+01,2.547958354695438465e-02
2.303999999999999915e+01,1.629911281359618103e-02
2.307999999999999829e+01,2.195787326851826940e-02
2.312000000000000099e+01,3.040930669870613515e-02
2.316000000000000014e+01,1.249724951912118201e-02
2.319999999999999929e+01,2.670861872386715713e-02
2.323999999999999844e+01,2.171459886824192789e-02
2.328000000000000114e+01,4.186049434294182581e-02
2.332000000000000028e+01,3.250032131481133540e-02
2.335999999999999943e+01,4.024902570348847658e-02
2.339999999999999858e+01,2.530058751889966567e-02
2.344000000000000128e+01,2.833396714345020120e-02
2.348000000000000043e+01,5.511056297582371533e-02
2.351999999999999957e+01,4.854016184400394146e-02
2.355999999999999872e+01,4.127068487414038700e-02
2.360000000000000142e+01,4.080940856410258250e-02
2.364000000000000057e+01,3.860153089924782399e-02
2.367999999999999972e+01,4.948701639402740271e-02
2.371999999999999886e+01,5.635626034778696419e-02
2.376000000000000156e+01,5.466998037401186311e-02
2.380000000000000071e+01,6.049025565658345399e-02
2.383999999999999986e+01,4.570844946997513342e-02
2.387999999999999901e+01,6.881147880829027730e-02
2.392000000000000171e+01,6.415432781350095814e-02
2.396000000000000085e+01,3.976803641323273242e-02
2.400000000000000000e+01,6.164679742808929636e-02
2.403999999999999915e+01,6.449477061987991811e-02
2.407999999999999829e+01,7.816647215605634913e-02
2.412000000000000099e+01,7.612455560035898128e-02
2.416000000000000014e+01,7.897038319455323974e-02
2.419999999999999929e+01,7.168940395700799939e-02
2.423999999999999844e+01,7.837473632786082223e-02
2.428000000000000114e+01,8.121842436678265720e-02
2.432000000000000028e+01,9.226702762952702919e-02
2.435999999999999943e+01,8.795119244845094053e-02
2.439999999999999858e+01,7.368314160240053978e-02
2.444000000000000128e+01,9.031642328370001471e-02
2.448000000000000043e+01,6.574627266733260034e-02
2.451999999999999957e+01,6.299888980528600690e-02
2.455999999999999872e+01,7.439241173251080752e-02
2.460000000000000142e+01,7.234196515323558507e-02
2.464000000000000057e+01,4.934027491232971518e-02
2.467999999999999972e+01,6.247755552454791611e-02
2.471999999999999886e+01,4.698173018145522517e-02
2.476000000000000156e+01,5.941924996805066778e-02
2.480000000000000071e+01,6.312667547279546265e-02
2.483999999999999986e+01,5.583436583811687143e-02
2.487999999999999901e+01,3.439974115684921868e-02
2.492000000000000171e+01,4.613609858830550886e-02
2.496000000000000085e+01,3.761956896875997408e-02
2.500000000000000000e+01,3.905384408550183900e-02
2.503999999999999915e+01,4.363000002307438480e-02
2.507999999999999829e+01,5.012592278341675145e-02
2.512000000000000099e+01,5.382774217009578949e-02
2.516000000000000014e+01,2.051624811043336466e-02
2.519999999999999929e+01,3.189853631770807330e-02
2.523999999999999844e+01,3.978837192575304660e-02
2.528000000000000114e+01,3.074249424220465085e-02
2.532000000000000028e+01,4.212269526101480172e-02
2.535999999999999943e+01,5.245467503356352618e-02
2.539999999999999858e+01,3.240768216489393894e-02
2.544000000000000128e+01,3.750064088049335359e-02
2.548000000000000043e+01,2.007107974395028541e-02
2.551999999999999957e+01,2.830523496417076609e-02
2.555999999999999872e+01,2.676178179904622340e-02
2.560000000000000142e+01,3.132821162253932729e-02
2.564000000000000057e+01,2.925961498196096716e-02
2.567999999999999972e+01,2.544445122640165077e-02
2.571999999999999886e+01,3.105634086202156002e-02
2.576000000000000156e+01,2.898567918816634045e-02
2.580000000000000071e+01,1.766117658693786355e-02
2.583999999999999986e+01,3.863473249033469448e-02
2.587999999999999901e+01,3.638742401560805806e-02
2.592000000000000171e+01,2.017240575981361916e-02
2.596000000000000085e+01,2.560559161771716261e-02
2.600000000000000000e+01,2.859386449191984522e-02
2.603999999999999915e+01,1.377349778095329942e-02
2.607999999999999829e+01,3.142556205931812310e-03
2.612000000000000099e+01,1.538193609951597936e-02
2.616000000000000014e+01,1.731995424853906285e-02
2.619999999999999929e+01,1.314671876241713805e-02
2.623999999999999844e+01,3.620850200697414006e-02
2.628000000000000114e+01,2.592333461182153367e-02
2.632000000000000028e+01,1.860548171139960946e-02
2.635999999999999943e+01,3.922100079543901913e-02
2.639999999999999858e+01,2.334699067534190195e-02
2.644000000000000128e+01,1.236076297318816457e-02
2.648000000000000043e+01,2.826038241009193666e-02
2.651999999999999957e+01,2.687513374801439939e-02
2.655999999999999872e+01,2.479085960059266777e-02
2.660000000000000142e+01,2.951483646569634869e-02
2.664000000000000057e+01,2.009652782446163036e-02
2.667999999999999972e+01,2.342245707572372659e-02
2.671999999999999886e+01,2.692230257671196503e-02
2.676000000000000156e+01,1.662904020530709889e-02
2.680000000000000071e+01,2.047672021985581098e-02
2.683999999999999986e+01,1.995903544035495039e-02
2.687999999999999901e+01,1.769480368695295833e-02
2.692000000000000171e+01,1.263649877150732452e-02
2.696000000000000085e+01,2.102078768781836735e-02
2.700000000000000000e+01,1.194562875166134408e-02
2.703999999999999915e+01,1.404342346105762022e-02
2.707999999999999829e+01,1.160126959470157010e-02
2.712000000000000099e+01,2.853769778281221511e-02
2.716000000000000014e+01,1.719023658897821799e-02
2.719999999999999929e+01,2.207877821381450806e-02
2.723999999999999844e+01,1.928479336984090242e-02
2.728000000000000114e+01,1.841061227395026506e-02
2.732000000000000028e+01,1.910705997767467648e-02
2.735999999999999943e+01,1.735861752425534726e-02
2.739999999999999858e+01,1.787915645286420468e-02
2.744000000000000128e+01,1.630398218690535042e-02
2.748000000000000043e+01,2.153707370359712187e-02
2.751999999999999957e+01,1.821470440147123296e-02
2.755999999999999872e+01,2.397024375367657473e-02
2.760000000000000142e+01,1.767856743143066470e-02
2.764000000000000057e+01,2.011562548641757445e-02
2.767999999999999972e+01,1.871109627586646854e-02
2.771999999999999886e+01,1.259204142155381963e-02
2.776000000000000156e+01,2.009018163630296033e-02
2.780000000000000071e+01,2.252462193019183143e-02
2.783999999999999986e+01,2.600593632174123815e-02
2.787999999999999901e+01,1.918591783761083511e-02
2.792000000000000171e+01,1.934876033111229687e-02
2.796000000000000085e+01,2.370105951491731366e-02
2.800000000000000000e+01,1.967249374625517494e-02
2.803999999999999915e+01,1.773833229161180317e-02
2.807999999999999829e+01,3.396065433486882001e-02
2.812000000000000099e+01,2.434333244790552048e-02
2.816000000000000014e+01,2.991450263296494341e-02
2.819999999999999929e+01,1.540742795785694265e-02
2.823999999999999844e+01,1.085121239995177206e-02
2.828000000000000114e+01,1.729338349013058787e-02
2.832000000000000028e+01,1.797351214757610810e-02
2.835999999999999943e+01,1.376453809325063442e-02
2.839999999999999858e+01,1.793513555233789206e-02
2.844000000000000128e+01,1.739121945231143773e-02
2.848000000000000043e+01,1.597372228275007605e-02
2.851999999999999957e+01,4.778666409173975942e-03
2.855999999999999872e+01,1.959655353626761631e-02
2.860000000000000142e+01,2.219265396322457964e-02
2.864000000000000057e+01,1.763001484905393421e-02
2.867999999999999972e+01,1.603472984040446234e-02
2.871999999999999886e+01,2.159690704669215908e-02
2.876000000000000156e+01,1.354059775897160402e-02
2.880000000000000071e+01,1.700644727689210739e-02
2.883999999999999986e+01,2.064624862711332207e-02
2.887999999999999901e+01,2.026989504295783132e-02
2.892000000000000171e+01,2.425760207188839071e-02
2.896000000000000085e+01,8.341664806587453448e-03
2.900000000000000000e+01,1.983538040636766836e-02
2.903999999999999915e+01,6.711582186852616504e-03
2.907999999999999829e+01,2.414001875369243405e-02
2.912000000000000099e+01,1.922058437291747010e-02
2.916000000000000014e+01,3.001342227815417124e-02
2.919999999999999929e+01,2.404520049591027386e-02
2.923999999999999844e+01,1.755258601998599052e-02
2.928000000000000114e+01,1.612238943914607106e-02
2.932000000000000028e+01,1.731038208589932501e-02
2.935999999999999943e+01,2.722713797876651423e-02
2.939999999999999858e+01,1.706566915254622077e-02
2.944000000000000128e+01,2.052142359289948689e-02
2.948000000000000043e+01,2.397655279754412963e-02
2.951999999999999957e+01,1.660661322289557970e-02
2.955999999999999872e+01,2.529812826778924523e-02
2.960000000000000142e+01,1.705400252897698934e-02
2.964000000000000057e+01,1.666570568627089716e-02
2.967999999999999972e+01,1.121374047706311279e-02
2.971999999999999886e+01,1.588724703564202423e-02
2.976000000000000156e+01,1.794131590931843934e-02
2.980000000000000071e+01,1.685218433970589111e-02
2.983999999999999986e+01,1.907960196516221216e-02
2.987999999999999901e+01,2.043346201901014014e-02
2.992000000000000171e+01,2.405634575115396870e-02
2.996000000000000085e+01,1.894922180809060358e-02
3.000000000000000000e+01,1.715864974557345518e-02
3.003999999999999915e+01,1.012982754895993751e-02
3.007999999999999829e+01,1.497236126164324700e-02
3.012000000000000099e+01,1.527499742264328345e-02
3.016000000000000014e+01,2.325888339763215393e-02
3.019999999999999929e+01,1.744971923799007105e-02
3.023999999999999844e+01,1.967098185491265513e-02
3.028000000000000114e+01,1.839987646514100808e-02
3.032000000000000028e+01,3.353941407076589665e-02
3.035999999999999943e+01,2.860074307016732820e-02
3.039999999999999858e+01,3.134332591177342586e-02
3.044000000000000128e+01,2.134038950647631008e-02
3.048000000000000043e+01,2.338340353408787514e-02
3.051999999999999957e+01,2.874297817004690947e-02
3.055999999999999872e+01,1.262764507728020638e-02
3.060000000000000142e+01,3.003256505151919581e-02
3.064000000000000057e+01,2.491505178025932299e-02
3.067999999999999972e+01,5.655320810963307063e-03
3.071999999999999886e+01,2.078878397237405098e-02
3.076000000000000156e+01,1.305064028255670944e-02
3.080000000000000071e+01,2.032644516521916675e-02
3.083999999999999986e+01,1.101580569646212759e-02
3.087999999999999901e+01,2.003628453137703755e-02
3.092000000000000171e+01,1.927924494443700176e-02
3.096000000000000085e+01,2.847311012781431061e-02
3.100000000000000000e+01,6.938921041842043523e-03
3.103999999999999915e+01,2.154380955671728742e-02
3.107999999999999829e+01,4.068738274854093867e-02
3.112000000000000099e+01,4.027652351991414803e-02
3.116000000000000014e+01,1.873994225293863433e-02
3.119999999999999929e+01,3.980219023927657890e-02
3.123999999999999844e+01,3.170767827374841585e-02
3.128000000000000114e+01,2.169210537502674549e-02
3.132000000000000028e+01,3.891163647088881350e-02
3.135999999999999943e+01,3.640215136459765827e-02
3.139999999999999858e+01,3.965347097563984291e-02
3.144000000000000128e+01,2.981011250417476416e-02
3.148000000000000043e+01,5.016985348138708334e-02
3.151999999999999957e+01,4.940387846257471988e-02
3.155999999999999872e+01,4.514555692088659256e-02
3.160000000000000142e+01,5.031438746166925352e-02
3.164000000000000057e+01,6.351366827694308881e-02
3.167999999999999972e+01,5.331759425272766806e-02
3.171999999999999886e+01,6.180182825077732561e-02
3.176000000000000156e+01,6.522242879353039313e-02
3.180000000000000071e+01,4.873943270927436761e-02
3.183999999999999986e+01,5.914237372756608879e-02
3.187999999999999901e+01,7.198895913116944156e-02
3.192000000000000171e+01,6.493194992187173442e-02
3.196000000000000085e+01,7.655525276305502613e-02
3.200000000000000000e+01,7.438553568122732718e-02
3.203999999999999915e+01,5.685150905849024189e-02
3.207999999999999829e+01,6.201331612847031660e-02
3.211999999999999744e+01,5.128705157052392688e-02
3.215999999999999659e+01,4.701995572560253162e-02
3.220000000000000284e+01,4.240310467824966179e-02
3.224000000000000199e+01,5.733950943055619864e-02
3.228000000000000114e+01,3.805612519895958112e-02
3.232000000000000028e+01,4.391280802715658710e-02
3.235999999999999943e+01,4.383292842100385001e-02
3.239999999999999858e+01,3.292802837414974398e-02
3.243999999999999773e+01,4.751237302103440696e-02
3.247999999999999687e+01,3.451126881776971772e-02
3.252000000000000313e+01,4.246012759309866075e-02
3.256000000000000227e+01,3.312421964621484888e-02
3.260000000000000142e+01,3.740558800408173151e-02
3.264000000000000057e+01,3.575039862718424472e-02
3.267999999999999972e+01,1.558832987275175948e-02
3.271999999999999886e+01,2.004257146205034798e-02
3.275999999999999801e+01,2.728964782662308963e-02
3.279999999999999716e+01,2.633052761296681213e-02
3.284000000000000341e+01,2.275202140984640062e-02
3.288000000000000256e+01,3.069574249203861280e-02
3.292000000000000171e+01,3.549631549774952266e-02
3.296000000000000085e+01,2.161542601559210755e-02
3.300000000000000000e+01,1.227325343611097852e-02
3.303999999999999915e+01,5.932237797650257577e-02
3.307999999999999829e+01,4.072592117502771975e-02
3.311999999999999744e+01,3.557216159618617479e-02
3.315999999999999659e+01,2.483102863021874676e-02
3.320000000000000284e+01,1.007381323776232983e-02
3.324000000000000199e+01,8.584709272128593360e-03
3.328000000000000114e+01,1.407855624761683404e-02
3.332000000000000028e+01,1.346126909170072133e-02
3.335999999999999943e+01,2.838173690565720317e-02
3.339999999999999858e+01,2.566827647631973741e-02
3.343999999999999773e+01,2.854106719423275124e-02
3.347999999999999687e+01,1.517663349093931364e-02
3.352000000000000313e+01,2.101630145128660990e-02
3.356000000000000227e+01,2.091942711836410063e-02
3.360000000000000142e+01,2.664864469238404938e-03
3.364000000000000057e+01,1.374049847314080287e-02
3.367999999999999972e+01,1.503866037967204090e-02
3.371999999999999886e+01,3.309669796783008128e-02
3.375999999999999801e+01,1.501450550364539366e-02
3.379999999999999716e+01,1.683477064236122214e-02
3.384000000000000341e+01,1.708319343535778453e-02
3.388000000000000256e+01,1.488683550441139390e-02
3.392000000000000171e+01,1.914967582674054203e-02
3.396000000000000085e+01,1.241293408185346024e-02
3.400000000000000000e+01,1.178621631314327213e-02
3.403999999999999915e+01,1.482529385311881498e-02
3.407999999999999829e+01,1.210242563754447727e-02
3.411999999999999744e+01,1.060112473453401691e-02
3.415999999999999659e+01,8.400925906351891168e-03
3.420000000000000284e+01,1.353286908062371549e-02
3.424000000000000199e+01,1.255369356498570350e-02
3.428000000000000114e+01,1.192314899779580231e-02
3.432000000000000028e+01,1.303793852977216255e-02
3.435999999999999943e+01,1.293007006366781071e-02
3.439999999999999858e+01,1.823388104775924834e-02
3.443999999999999773e+01,9.744713062368683468e-03
3.447999999999999687e+01,1.207944797738945940e-02
3.452000000000000313e+01,1.842916187736517997e-02
3.456000000000000227e+01,1.936611369806011049e-02
3.460000000000000142e+01,1.017643324304121945e-02
3.464000000000000057e+01,3.255855687899048261e-03
3.467999999999999972e+01,1.361893335700346992e-02
3.471999999999999886e+01,1.315702952482754665e-02
3.475999999999999801e+01,2.351903329264834475e-02
3.479999999999999716e+01,1.397749078615967422e-02
3.484000000000000341e+01,8.101757015743371246e-03
3.488000000000000256e+01,1.339910847926889179e-02
3.492000000000000171e+01,1.118865018681437264e-02
3.496000000000000085e+01,1.072353673543540754e-02
3.500000000000000000e+01,1.968563243292019774e-02
3.503999999999999915e+01,1.887027885959091655e-02
3.507999999999999829e+01,2.521249424892216262e-02
3.511999999999999744e+01,1.025446625554978473e-02
3.515999999999999659e+01,1.572268212139089905e-02
3.520000000000000284e+01,9.492985492790585039e-03
3.524000000000000199e+01,6.439431568859289553e-04
3.528000000000000114e+01,0.000000000000000000e+00
3.532000000000000028e+01,1.332255442081638208e-02
3.535999999999999943e+01,3.424403578040358977e-03
3.539999999999999858e+01,1.534920310204274455e-02
3.543999999999999773e+01,2.238501874664544644e-02
3.547999999999999687e+01,2.435726337329921498e-02
3.552000000000000313e+01,1.428242525662902149e-02
3.556000000000000227e+01,5.952942051574294444e-03
3.560000000000000142e+01,1.316125141307465315e-02
3.564000000000000057e+01,5.005311656905356635e-03
3.567999999999999972e+01,2.041820506628587092e-02
3.571999999999999886e+01,2.203814099000293500e-02
3.575999999999999801e+01,2.173709117389131459e-02
3.579999999999999716e+01,1.515036104135515822e-02
3.584000000000000341e+01,2.637106903253196022e-02
3.588000000000000256e+01,2.344964660368534931e-02
3.592000000000000171e+01,2.663828037674351515e-02
3.596000000000000085e+01,2.162077060974975512e-02
3.600000000000000000e+01,2.934765516430653740e-02
3.603999999999999915e+01,2.118653388513118754e-02
3.607999999999999829e+01,2.611898389008225282e-02
3.611999999999999744e+01,2.284529304045869458e-02
3.615999999999999659e+01,2.987176985900255252e-02
3.620000000000000284e+01,2.118483133921014033e-02
3.624000000000000199e+01,1.127526637569547553e-02
3.628000000000000114e+01,1.061834423494448579e-02
3.632000000000000028e+01,1.642066062962879019e-02
3.635999999999999943e+01,2.833304061128043977e-02
3.639999999999999858e+01,2.750000138005889716e-02
3.643999999999999773e+01,1.776247542554289585e-02
3.647999999999999687e+01,2.268981775811412457e-02
3.652000000000000313e+01,1.731597223078066433e-02
3.656000000000000227e+01,3.062251596140117688e-02
3.660000000000000142e+01,2.524765829876244108e-02
3.664000000000000057e+01,2.510992987308323376e-02
3.667999999999999972e+01,1.554395532256975555e-02
3.671999999999999886e+01,1.453227974020815730e-02
3.675999999999999801e+01,9.504581483227837746e-03
3.679999999999999716e+01,2.752197176038265192e-02
3.684000000000000341e+01,3.069889649070359217e-02
3.688000000000000256e+01,3.544661047790930580e-02
3.692000000000000171e+01,2.081457720313589083e-02
3.696000000000000085e+01,2.451376428017256956e-02
3.700000000000000000e+01,2.280023023145756611e-02
3.703999999999999915e+01,2.597465651355824676e-02
3.707999999999999829e+01,2.303801177297149644e-02
3.711999999999999744e+01,3.092531424317187735e-02
3.715999999999999659e+01,3.549495199212123614e-02
3.720000000000000284e+01,2.120861060843262647e-02
3.724000000000000199e+01,4.166474840848870265e-02
3.728000000000000114e+01,2.947247143507526063e-02
3.732000000000000028e+01,4.434081135172626698e-02
3.735999999999999943e+01,4.628916035844943266e-02
3.739999999999999858e+01,4.195185590352117772e-02
3.743999999999999773e+01,3.028137179879918789e-02
3.747999999999999687e+01,4.410021698035151289e-02
3.752000000000000313e+01,3.906308840022055390e-02
3.756000000000000227e+01,5.008754871349756221e-02
3.760000000000000142e+01,5.185836615335345096e-02
3.764000000000000057e+01,5.205740502757644911e-02
3.767999999999999972e+01,5.923946869354768108e-02
3.771999999999999886e+01,7.218244315320630766e-02
3.775999999999999801e+01,5.369912556525758413e-02
3.779999999999999716e+01,7.746557238672441281e-02
3.784000000000000341e+01,8.586780701583474062e-02
3.788000000000000256e+01,7.262066896688795792e-02
3.792000000000000171e+01,8.957673845708057081e-02
3.796000000000000085e+01,9.466035396739685970e-02
3.800000000000000000e+01,1.100441680288696961e-01
3.803999999999999915e+01,1.139047050730420813e-01
3.807999999999999829e+01,1.277162663912724538e-01
3.811999999999999744e+01,1.497329745557439418e-01
3.815999999999999659e+01,1.654640420145813418e-01
3.820000000000000284e+01,1.885273186128055278e-01
3.824000000000000199e+01,2.211924465507277560e-01
3.828000000000000114e+01,2.676495339377640836e-01
3.832000000000000028e+01,3.128840297922831359e-01
3.835999999999999943e+01,3.823857550337715350e-01
3.839999999999999858e+01,4.651556783087262281e-01
3.843999999999999773e+01,5.402432630982830775e-01
3.847999999999999687e+01,6.610723799089063268e-01
3.852000000000000313e+01,8.005819188745807446e-01
3.856000000000000227e+01,8.655419901701375540e-01
3.860000000000000142e+01,9.324220552112975069e-01
3.864000000000000057e+01,1.000000000000000000e+00
3.867999999999999972e+01,9.834261495871692293e-01
3.871999999999999886e+01,9.225065253056180525e-01
3.875999999999999801e+01,8.760772197692870966e-01
3.879999999999999716e+01,8.090460838559053736e-01
3.884000000000000341e+01,7.100649105921325033e-01
3.888000000000000256e+01,6.552539857738516327e-01
3.892000000000000171e+01,5.595890466420693210e-01
3.896000000000000085e+01,4.967461496538078114e-01
3.900000000000000000e+01,4.571229659349133612e-01
3.903999999999999915e+01,3.890415044208464512e-01
3.907999999999999829e+01,3.584959579322112289e-01
3.911999999999999744e+01,3.382506287930737154e-01
3.915999999999999659e+01,3.276071664351288271e-01
3.920000000000000284e+01,3.136460735957687374e-01
3.924000000000000199e+01,2.869396092107578400e-01
3.928000000000000114e+01,2.708825404805592640e-01
3.932000000000000028e+01,2.852032905973451160e-01
3.935999999999999943e+01,2.750812879180413173e-01
3.939999999999999858e+01,2.658317655522156597e-01
3.943999999999999773e+01,2.604227169398538044e-01
3.947999999999999687e+01,2.600762574217553302e-01
3.952000000000000313e+01,2.630465095701033928e-01
3.956000000000000227e+01,2.604294957504183494e-01
3.960000000000000142e+01,2.731757538243028138e-01
3.964000000000000057e+01,2.930796573969511876e-01
3.967999999999999972e+01,2.867949354452783983e-01
3.971999999999999886e+01,3.066979316162367630e-01
3.975999999999999801e+01,3.142047405891829071e-01
3.979999999999999716e+01,3.274724952670214906e-01
3.984000000000000341e+01,3.328833471474703098e-01
3.988000000000000256e+01,3.154227452488981287e-01
3.992000000000000171e+01,3.225785745405363447e-01
3.996000000000000085e+01,3.208299761893810831e-01
4.000000000000000000e+01,3.115736533461505586e-01
4.003999999999999915e+01,2.941112554425397430e-01
4.007999999999999829e+01,3.094709184807912239e-01
4.011999999999999744e+01,3.277981276361920382e-01
4.015999999999999659e+01,3.532829910181582433e-01
4.020000000000000284e+01,3.466432520663717542e-01
4.024000000000000199e+01,3.716034620724946724e-01
4.028000000000000114e+01,3.642644832776850139e-01
4.032000000000000028e+01,3.955089671802678453e-01
4.035999999999999943e+01,3.871215756080749748e-01
4.039999999999999858e+01,3.984621646048035482e-01
4.043999999999999773e+01,3.820428505439605882e-01
4.047999999999999687e+01,3.637026299648698502e-01
4.052000000000000313e+01,3.348867008528887412e-01
4.056000000000000227e+01,3.085145618133638412e-01
4.060000000000000142e+01,2.866812672366877979e-01
4.064000000000000057e+01,2.569910832900084152e-01
4.067999999999999972e+01,2.211898887438813188e-01
4.071999999999999886e+01,1.860866088565015231e-01
4.075999999999999801e+01,1.652990934728900685e-01
4.079999999999999716e+01,1.530659455371020938e-01
4.084000000000000341e+01,1.315792091088086313e-01
4.088000000000000256e+01,1.193451927107517657e-01
4.092000000000000171e+01,1.118246139564169211e-01
4.096000000000000085e+01,9.557421215344048815e-02
4.100000000000000000e+01,9.224287640309940250e-02
4.103999999999999915e+01,6.988103816165738835e-02
4.107999999999999829e+01,7.981751421655509937e-02
4.111999999999999744e+01,6.740632073463696805e-02
4.115999999999999659e+01,7.367559371814559610e-02
4.120000000000000284e+01,5.183580078026291116e-02
4.124000000000000199e+01,5.531081242745287258e-02
4.128000000000000114e+01,5.738869441353745826e-02
4.132000000000000028e+01,5.597439369086273236e-02
4.135999999999999943e+01,3.884676423649523896e-02
4.139999999999999858e+01,4.371677366422415528e-02
4.143999999999999773e+01,4.055531933941788902e-02
4.147999999999999687e+01,4.664659511538810782e-02
4.152000000000000313e+01,4.278594257245702664e-02
4.156000000000000227e+01,3.456017229938951330e-02
4.160000000000000142e+01,3.087326327340406823e-02
4.164000000000000057e+01,3.661367484359104307e-02
4.167999999999999972e+01,3.100545830100521344e-02
4.171999999999999886e+01,3.936384675521428789e-02
4.175999999999999801e+01,2.973927166248201484e-02
4.179999999999999716e+01,2.203474402489928249e-02
4.184000000000000341e+01,2.078954757171922602e-02
4.188000000000000256e+01,2.757497326357874479e-02
4.192000000000000171e+01,3.470915813542824885e-02
4.196000000000000085e+01,2.246368033783417012e-02
4.200000000000000000e+01,1.894717793906206676e-02
4.203999999999999915e+01,1.996954417243459665e-02
4.207999999999999829e+01,2.972088714736775134e-02
4.211999999999999744e+01,3.528170960125370792e-02
4.215999999999999659e+01,2.268498741197295249e-02
4.220000000000000284e+01,2.195982455689580656e-02
4.224000000000000199e+01,1.669496757504224105e-02
4.228000000000000114e+01,1.928615164200287932e-02
4.232000000000000028e+01,3.147925552833317348e-02
4.235999999999999943e+01,2.045177164070375794e-02
4.239999999999999858e+01,2.443843102265954442e-02
4.243999999999999773e+01,1.794941409745281699e-02
4.247999999999999687e+01,2.891877112343044925e-02
4.252000000000000313e+01,3.115833128417039646e-02
4.256000000000000227e+01,2.763608801965824341e-02
4.260000000000000142e+01,2.970024964597302308e-02
4.264000000000000057e+01,2.216167737156489112e-02
4.267999999999999972e+01,2.893890182665294006e-02
4.271999999999999886e+01,1.703482760798906426e-02
4.275999999999999801e+01,2.258913204009493220e-02
4.279999999999999716e+01,9.811314761024751696e-03
4.284000000000000341e+01,2.636384854992846610e-02
4.288000000000000256e+01,2.406049854063893600e-02
4.292000000000000171e+01,2.367721478484018788e-02
4.296000000000000085e+01,2.538858576382012344e-02
4.300000000000000000e+01,1.819558012407569009e-02
4.303999999999999915e+01,2.339791134704650999e-02
4.307999999999999829e+01,2.545726502134573396e-02
4.311999999999999744e+01,2.053271000013321204e-02
4.315999999999999659e+01,2.032163021932523184e-02
4.320000000000000284e+01,1.609463585436051239e-02
4.324000000000000199e+01,3.543660154374882881e-02
4.328000000000000114e+01,2.981211680148584953e-02
4.332000000000000028e+01,2.453641473713948432e-02
4.335999999999999943e+01,2.327584003036979599e-02
4.339999999999999858e+01,3.266473012945328436e-02
4.343999999999999773e+01,2.948290698658413353e-02
4.347999999999999687e+01,3.415714503360916393e-02
4.352000000000000313e+01,2.608608337150154430e-02
4.356000000000000227e+01,2.063344994446844258e-02
4.360000000000000142e+01,2.617946029997238883e-02
4.364000000000000057e+01,1.636135581167258435e-02
4.367999999999999972e+01,3.011221876278846396e-02
4.371999999999999886e+01,2.989567069218812545e-02
4.375999999999999801e+01,3.770977632098585636e-02
4.379999999999999716e+01,4.674561173372510786e-02
4.384000000000000341e+01,3.867145756032114995e-02
4.388000000000000256e+01,4.264347872855124566e-02
4.392000000000000171e+01,4.539300235597035216e-02
4.396000000000000085e+01,3.784146299818003101e-02
4.400000000000000000e+01,4.041563508702702284e-02
4.403999999999999915e+01,4.752870937648517868e-02
4.407999999999999829e+01,5.411764005028405627e-02
4.411999999999999744e+01,5.424644224256027630e-02
4.415999999999999659e+01,5.734285836028810840e-02
4.420000000000000284e+01,5.782007915744133419e-02
4.424000000000000199e+01,5.445599063595911449e-02
4.428000000000000114e+01,7.204206247565327070e-02
4.432000000000000028e+01,6.623299162856628730e-02
4.435999999999999943e+01,7.578727256799883127e-02
4.439999999999999858e+01,7.818307848581962372e-02
4.443999999999999773e+01,9.803729125192194027e-02
4.447999999999999687e+01,9.414718839688322738e-02
4.452000000000000313e+01,1.040491497245738806e-01
4.456000000000000227e+01,1.340283370634332283e-01
4.460000000000000142e+01,1.266453616216078604e-01
4.464000000000000057e+01,1.431805453518992799e-01
4.467999999999999972e+01,1.790946058677930219e-01
4.471999999999999886e+01,1.870742473527149119e-01
4.475999999999999801e+01,2.116393620072799520e-01
4.479999999999999716e+01,2.119364029819027495e-01
4.484000000000000341e+01,2.429605310723148004e-01
4.488000000000000256e+01,2.486690599660115186e-01
4.492000000000000171e+01,2.652016669875145172e-01
4.496000000000000085e+01,2.560695005352036646e-01
4.500000000000000000e+01,2.865684021900085088e-01
4.503999999999999915e+01,2.868632486558543304e-01
4.507999999999999829e+01,2.885544341993788175e-01
4.511999999999999744e+01,2.602161537066014496e-01
4.515999999999999659e+01,2.409560772706603737e-01
4.520000000000000284e+01,2.367101911001574799e-01
4.524000000000000199e+01,2.246074927671244115e-01
4.528000000000000114e+01,2.128536100091048544e-01
4.532000000000000028e+01,1.909732749023518306e-01
4.535999999999999943e+01,2.020896771681311710e-01
4.539999999999999858e+01,1.777643959897172166e-01
4.543999999999999773e+01,1.836424485678765373e-01
4.547999999999999687e+01,1.762514709042446170e-01
4.552000000000000313e+01,1.728756568521331305e-01
4.556000000000000227e+01,1.604209213390157263e-01
4.560000000000000142e+01,1.629803828050299386e-01
4.564000000000000057e+01,1.606510315908234177e-01
4.567999999999999972e+01,1.611147320041844688e-01
4.571999999999999886e+01,1.401037791377955088e-01
4.575999999999999801e+01,1.515658069278764952e-01
4.579999999999999716e+01,1.356171972437134887e-01
4.584000000000000341e+01,1.385237203851073517e-01
4.588000000000000256e+01,1.450962375605085453e-01
4.592000000000000171e+01,1.265277608047155611e-01
4.596000000000000085e+01,1.269890066985061017e-01
4.600000000000000000e+01,1.122607651692020120e-01
4.603999999999999915e+01,1.153401329627898736e-01
4.607999999999999829e+01,1.049758927752078297e-01
4.611999999999999744e+01,8.483438928611597429e-02
4.615999999999999659e+01,9.245200229938485559e-02
4.620000000000000284e+01,9.151446802331286712e-02
4.624000000000000199e+01,8.184719931935077741e-02
4.628000000000000114e+01,6.781489210683311342e-02
4.632000000000000028e+01,6.722550366882749928e-02
4.635999999999999943e+01,6.104896339557470269e-02
4.639999999999999858e+01,5.295161596673488014e-02
4.643999999999999773e+01,5.602754779757310871e-02
4.647999999999999687e+01,4.251729778239974472e-02
4.652000000000000313e+01,4.890971886557361759e-02
4.656000000000000227e+01,5.373051109847497980e-02
4.660000000000000142e+01,3.428325986305391648e-02
4.664000000000000057e+01,4.172219413683238981e-02
4.667999999999999972e+01,3.257494992144597395e-02
4.671999999999999886e+01,2.534783573963660802e-02
4.675999999999999801e+01,3.383328924634376039e-02
4.679999999999999716e+01,2.014575636059844077e-02
4.684000000000000341e+01,2.967806833260859187e-02
4.688000000000000256e+01,2.943312975912618437e-02
4.692000000000000171e+01,2.342646093964866061e-02
4.696000000000000085e+01,2.911684353740630338e-02
4.700000000000000000e+01,2.520456541369799769e-02
4.703999999999999915e+01,2.373618612427721986e-02
4.707999999999999829e+01,2.855263815872268254e-02
4.711999999999999744e+01,2.027467528743800637e-02
4.715999999999999659e+01,1.740860603316519289e-02
4.720000000000000284e+01,2.065278230694800668e-02
4.724000000000000199e+01,2.215075333381835362e-02
4.728000000000000114e+01,2.015664168595941372e-02
4.732000000000000028e+01,1.519421146449638146e-02
4.735999999999999943e+01,2.332554185331069813e-02
4.739999999999999858e+01,2.167963042443377120e-02
4.743999999999999773e+01,2.631855636174708010e-02
4.747999999999999687e+01,2.187859306378222082e-02
4.752000000000000313e+01,2.267594161523458704e-02
4.756000000000000227e+01,1.631486818325221175e-02
4.760000000000000142e+01,2.828519368732144990e-02
4.764000000000000057e+01,8.654805162089147449e-03
4.767999999999999972e+01,1.486309274214737443e-02
4.771999999999999886e+01,2.857833705741141123e-02
4.775999999999999801e+01,1.924767204349379576e-02
4.779999999999999716e+01,1.794772853727649026e-02
4.784000000000000341e+01,1.402865080509357182e-02
4.788000000000000256e+01,1.150595914644238736e-02
4.792000000000000171e+01,1.195094452195981198e-02
4.796000000000000085e+01,2.060124190057342417e-02
4.800000000000000000e+01,1.161785608569829674e-02
4.803999999999999915e+01,1.817247163323970280e-02
4.807999999999999829e+01,2.036207888384532899e-02
4.811999999999999744e+01,2.255137375684981849e-02
4.815999999999999659e+01,1.409050051858725013e-02
4.820000000000000284e+01,1.907257760919522926e-02
4.824000000000000199e+01,1.253154888168175191e-02
4.828000000000000114e+01,1.052949351992831135e-02
4.832000000000000028e+01,8.527129137420402794e-03
4.835999999999999943e+01,2.450700082714415973e-02
4.839999999999999858e+01,1.569509583040943484e-02
4.843999999999999773e+01,1.334263279401678472e-02
4.847999999999999687e+01,2.478230040591712993e-02
4.852000000000000313e+01,1.806453012237419983e-02
4.856000000000000227e+01,1.361609637523463617e-02
4.860000000000000142e+01,1.597628289375169208e-02
4.864000000000000057e+01,1.659028766328280585e-02
4.867999999999999972e+01,1.074424048739480199e-02
4.871999999999999886e+01,1.467480835988775253e-02
4.875999999999999801e+01,2.104930393554940715e-02
4.879999999999999716e+01,1.974163491046963120e-02
4.884000000000000341e+01,1.913201683211110740e-02
4.888000000000000256e+01,1.782374789249421831e-02
4.892000000000000171e+01,2.751421202753524461e-02
4.896000000000000085e+01,2.323735309024225343e-02
4.900000000000000000e+01,1.930937216531055864e-02
4.903999999999999915e+01,2.358672137044696970e-02
4.907999999999999829e+01,2.489578154222973211e-02
4.911999999999999744e+01,2.114149963300494470e-02
4.915999999999999659e+01,2.419584738860738188e-02
4.920000000000000284e+01,2.079015192659194183e-02
4.924000000000000199e+01,2.401849966222382310e-02
4.928000000000000114e+01,2.532608858086034601e-02
4.932000000000000028e+01,2.314162906460344796e-02
4.935999999999999943e+01,2.252816827246208881e-02
4.939999999999999858e+01,2.296194344604976512e-02
4.943999999999999773e+01,3.177564327331749983e-02
4.947999999999999687e+01,3.098672400401769264e-02
4.952000000000000313e+01,2.146812535911277880e-02
4.956000000000000227e+01,2.294827053077503481e-02
4.960000000000000142e+01,3.036411370273404617e-02
4.964000000000000057e+01,3.585920410002177428e-02
4.967999999999999972e+01,2.232393702198364957e-02
4.971999999999999886e+01,3.462738028907187682e-02
4.975999999999999801e+01,2.929716990292184631e-02
4.979999999999999716e+01,2.309373628708942180e-02
4.984000000000000341e+01,3.015869271635141999e-02
4.988000000000000256e+01,3.635042725866971525e-02
4.992000000000000171e+01,3.730424533744836763e-02
4.996000000000000085e+01,2.848086456617287751e-02
5.000000000000000000e+01,1.948261516173610194e-02
5.003999999999999915e+01,2.689533973777536932e-02
5.007999999999999829e+01,2.121369908941481489e-02
5.011999999999999744e+01,2.443575793776876781e-02
5.015999999999999659e+01,2.661001178884568955e-02
5.020000000000000284e+01,2.599058321482883641e-02
5.024000000000000199e+01,1.349890677131983588e-02
5.028000000000000114e+01,2.090996453487496340e-02
5.032000000000000028e+01,2.325770035850243875e-02
5.035999999999999943e+01,1.914541243422260980e-02
5.039999999999999858e+01,2.411141651616114170e-02
5.043999999999999773e+01,9.697900258953912750e-03
5.047999999999999687e+01,1.798052652435532320e-02
5.052000000000000313e+01,1.474008523968705145e-02
5.056000000000000227e+01,1.918123616736556319e-02
5.060000000000000142e+01,1.611484051584113897e-02
5.064000000000000057e+01,1.968251155989048790e-02
5.067999999999999972e+01,1.818686670633610364e-02
5.071999999999999886e+01,2.454740456052443079e-02
5.075999999999999801e+01,1.641688612424273622e-02
5.079999999999999716e+01,1.928513231697739569e-02
5.084000000000000341e+01,1.778841653726004335e-02
5.088000000000000256e+01,2.344953491108829266e-02
5.092000000000000171e+01,1.846053149813324870e-02
5.096000000000000085e+01,2.167689044097411560e-02
5.100000000000000000e+01,2.821015373325915301e-02
5.103999999999999915e+01,1.728437266604307063e-02
5.107999999999999829e+01,1.526230720840535994e-02
5.111999999999999744e+01,1.446209439529645355e-02
5.115999999999999659e+01,1.662961299727183651e-02
5.120000000000000284e+01,1.338464880960749982e-02
5.124000000000000199e+01,1.904340291699883891e-02
5.128000000000000114e+01,1.405204127993084015e-02
5.132000000000000028e+01,1.552016994179662365e-02
5.135999999999999943e+01,1.890850651608168287e-02
5.139999999999999858e+01,1.129755374017812550e-02
5.143999999999999773e+01,2.428770588072378528e-02
5.147999999999999687e+01,1.580330141870295302e-02
5.152000000000000313e+01,1.255627594303220136e-02
5.156000000000000227e+01,2.921200615824422545e-02
5.160000000000000142e+01,1.583837909898586777e-02
5.164000000000000057e+01,1.905034068489528179e-02
5.167999999999999972e+01,2.330957650458552813e-02
5.171999999999999886e+01,2.215633826243737503e-02
5.175999999999999801e+01,1.960614625794813992e-02
5.179999999999999716e+01,1.478606211289416363e-02
5.184000000000000341e+01,1.363207203587750091e-02
5.188000000000000256e+01,2.330227690493048148e-02
5.192000000000000171e+01,8.879115407700362977e-03
5.196000000000000085e+01,2.919868015812817491e-02
5.200000000000000000e+01,2.158394806680221517e-02
5.203999999999999915e+01,3.439574315254671083e-02
5.207999999999999829e+01,2.468546484675298094e-02
5.211999999999999744e+01,2.597397332516354282e-02
5.215999999999999659e+01,2.673847380451933875e-02
5.220000000000000284e+01,3.658129650171332292e-02
5.224000000000000199e+01,3.280602679869552840e-02
5.228000000000000114e+01,3.130015606942877782e-02
5.232000000000000028e+01,2.542934820837519302e-02
5.235999999999999943e+01,3.754084355648622945e-02
5.239999999999999858e+01,3.865306633864196845e-02
5.243999999999999773e+01,4.709773726766573743e-02
5.247999999999999687e+01,3.441704399819341814e-02
5.252000000000000313e+01,3.902030538368862073e-02
5.256000000000000227e+01,3.244970907878718530e-02
5.260000000000000142e+01,3.233862455663805840e-02
5.264000000000000057e+01,2.087909587691240063e-02
5.267999999999999972e+01,2.652893672771291372e-02
5.271999999999999886e+01,2.048115914383824218e-02
5.275999999999999801e+01,2.735264499518184900e-02
5.279999999999999716e+01,2.898626272157756034e-02
5.284000000000000341e+01,2.468366175472022986e-02
5.288000000000000256e+01,2.788810412971217192e-02
5.292000000000000171e+01,2.829890973272476684e-02
5.296000000000000085e+01,1.963091807805730435e-02
5.300000000000000000e+01,2.021584987853324022e-02
5.303999999999999915e+01,2.219725435918446996e-02
5.307999999999999829e+01,2.382925409219414231e-02
5.311999999999999744e+01,2.458808631917579202e-02
5.315999999999999659e+01,2.936221038921988519e-02
5.320000000000000284e+01,2.645424370914876630e-02
5.324000000000000199e+01,2.214934810740178811e-02
5.328000000000000114e+01,2.238350979258106610e-02
5.332000000000000028e+01,1.842733894012537482e-02
5.335999999999999943e+01,1.726434861814840974e-02
5.339999999999999858e+01,2.273547131622898412e-02
5.343999999999999773e+01,2.279414882135233356e-02
5.347999999999999687e+01,1.936084771399245591e-02
5.352000000000000313e+01,1.348309552503037904e-02
5.356000000000000227e+01,1.441404685152175569e-02
5.360000000000000142e+01,9.408792240777359012e-03
5.364000000000000057e+01,1.557693773619030740e-02
5.367999999999999972e+01,1.877687140572252902e-02
5.371999999999999886e+01,1.796106706123172872e-02
5.375999999999999801e+01,1.854174748156411229e-02
5.379999999999999716e+01,1.248787408183290974e-02
5.384000000000000341e+01,1.481399918640799625e-02
5.388000000000000256e+01,1.347356458227452584e-02
5.392000000000000171e+01,1.213291494909267930e-02
5.396000000000000085e+01,1.568050963595289324e-02
5.400000000000000000e+01,1.591072224804974955e-02
5.403999999999999915e+01,1.090308754764791714e-02
5.407999999999999829e+01,1.462463099960551079e-02
5.411999999999999744e+01,2.498029955626861198e-02
5.415999999999999659e+01,1.944826640950575100e-02
5.420000000000000284e+01,1.967742066059394168e-02
5.424000000000000199e+01,2.392188488171651667e-02
5.428000000000000114e+01,1.367535189286995558e-02
5.432000000000000028e+01,2.245868186979678785e-02
5.435999999999999943e+01,1.710019159933050953e-02
5.439999999999999858e+01,2.029629704225963463e-02
5.443999999999999773e+01,1.581033254752284636e-02
5.447999999999999687e+01,2.651330188582734851e-02
5.452000000000000313e+01,1.312294849685525545e-02
5.456000000000000227e+01,2.661891354820997493e-02
5.460000000000000142e+01,2.178295494234085486e-02
5.464000000000000057e+01,1.572467872264107433e-02
5.467999999999999972e+01,1.944311758535231111e-02
5.471999999999999886e+01,1.251149844136651909e-02
5.475999999999999801e+01,1.361071762334435317e-02
5.479999999999999716e+01,2.396289047208535056e-02
5.484000000000000341e+01,1.580855588189987448e-02
5.488000000000000256e+01,1.620882506154189273e-02
5.492000000000000171e+01,1.940230095506645033e-02
5.496000000000000085e+01,1.945299869661022002e-02
5.500000000000000000e+01,1.461504085835640433e-02
5.503999999999999915e+01,1.518910889687242159e-02
5.507999999999999829e+01,2.012767662401581531e-02
5.511999999999999744e+01,1.633665896726017169e-02
5.515999999999999659e+01,1.813225701130095208e-02
5.520000000000000284e+01,2.202271522913518825e-02
5.524000000000000199e+01,2.207204875489948009e-02
5.528000000000000114e+01,2.281954131784709808e-02
5.532000000000000028e+01,2.077343739097500461e-02
5.535999999999999943e+01,1.296574487703628861e-02
5.539999999999999858e+01,1.964865039795903393e-02
5.543999999999999773e+01,1.358645627780939724e-02
5.547999999999999687e+01,2.149109810550400498e-02
5.552000000000000313e+01,1.350806105632987135e-02
5.556000000000000227e+01,9.889531752215184254e-03
5.560000000000000142e+01,1.849196231086659703e-02
5.564000000000000057e+01,2.133280898203668979e-02
5.567999999999999972e+01,1.247608689986205201e-02
5.571999999999999886e+01,9.205989917654321814e-03
5.575999999999999801e+01,2.129943606222507724e-02
5.579999999999999716e+01,1.960026174853572029e-02
5.584000000000000341e+01,2.156724863981664825e-02
5.588000000000000256e+01,2.999380236613485851e-02
5.592000000000000171e+01,2.218350830944046739e-02
5.596000000000000085e+01,2.205489709995231765e-02
5.600000000000000000e+01,1.668847147506261064e-02
5.603999999999999915e+01,1.690867632109449917e-02
5.607999999999999829e+01,2.446139040860348043e-02
5.611999999999999744e+01,1.595184787986498806e-02
5.615999999999999659e+01,1.861574775355165010e-02
5.620000000000000284e+01,2.250158553567201125e-02
5.624000000000000199e+01,1.346774929418787480e-02
5.628000000000000114e+01,2.608262606435351669e-02
5.632000000000000028e+01,2.874582292226970925e-02
5.635999999999999943e+01,2.180651615914312030e-02
5.639999999999999858e+01,2.150137276877371606e-02
5.643999999999999773e+01,1.997394197619340242e-02
5.647999999999999687e+01,2.944537114707429862e-02
5.652000000000000313e+01,2.093408450629630560e-02
5.656000000000000227e+01,1.940613954359008200e-02
5.660000000000000142e+01,2.468694912040642411e-02
5.664000000000000057e+01,1.844479386666043191e-02
5.667999999999999972e+01,2.197938726379201554e-02
5.671999999999999886e+01,2.289499547894908310e-02
5.675999999999999801e+01,1.106552620822165954e-02
5.679999999999999716e+01,2.053560305710797410e-02
5.684000000000000341e+01,2.406952834967419561e-02
5.688000000000000256e+01,2.149271494737113250e-02
5.692000000000000171e+01,1.315433914140518544e-02
5.696000000000000085e+01,1.354518982639041011e-02
5.700000000000000000e+01,2.266526767369619194e-02
5.703999999999999915e+01,2.061156302397018289e-02
5.707999999999999829e+01,1.995439886272168742e-02
5.711999999999999744e+01,2.174130272083171778e-02
5.715999999999999659e+01,1.584618229439027637e-02
5.720000000000000284e+01,1.571229961849951104e-02
5.724000000000000199e+01,2.203800660420332513e-02
5.728000000000000114e+01,1.980875226987053803e-02
5.732000000000000028e+01,2.334073770019648095e-02
5.735999999999999943e+01,2.512668774005027278e-02
5.739999999999999858e+01,2.464283963104543437e-02
5.743999999999999773e+01,1.438191821805102390e-02
5.747999999999999687e+01,2.838854710656534344e-02
5.752000000000000313e+01,1.847649143042138370e-02
5.756000000000000227e+01,1.921413822487318471e-02
5.760000000000000142e+01,2.623679291332490712e-02
5.764000000000000057e+01,2.610119480341286172e-02
5.767999999999999972e+01,1.863275675658780314e-02
5.771999999999999886e+01,2.740083378323135768e-02
5.775999999999999801e+01,2.621725506692137650e-02
5.779999999999999716e+01,1.612954813853892735e-02
5.784000000000000341e+01,2.105624362830275931e-02
5.788000000000000256e+01,1.480917071979081720e-02
5.792000000000000171e+01,2.986166272923389611e-02
5.796000000000000085e+01,3.059780710460479475e-02
5.800000000000000000e+01,1.614466546767983832e-02
5.803999999999999915e+01,2.630825915127144379e-02
5.807999999999999829e+01,2.948819523148057259e-02
5.811999999999999744e+01,2.358942066065317089e-02
5.815999999999999659e+01,2.432483900283343922e-02
5.820000000000000284e+01,2.750434349134421239e-02
5.824000000000000199e+01,2.614442240081022231e-02
5.828000000000000114e+01,3.508504024568279145e-02
5.832000000000000028e+01,2.883637744921416224e-02
5.835999999999999943e+01,3.079320121186736314e-02
5.839999999999999858e+01,2.733766303136015222e-02
5.843999999999999773e+01,2.527868816588768261e-02
5.847999999999999687e+01,2.845720910502870168e-02
5.852000000000000313e+01,2.988971412340810443e-02
5.856000000000000227e+01,3.359172352052325339e-02
5.860000000000000142e+01,2.926255718254557048e-02
5.864000000000000057e+01,2.440949160734448217e-02
5.867999999999999972e+01,1.711206155718469554e-02
5.871999999999999886e+01,2.325775840602904709e-02
5.875999999999999801e+01,3.080002394086274117e-02
5.879999999999999716e+01,2.629559746932213365e-02
5.884000000000000341e+01,2.999666561333532919e-02
5.888000000000000256e+01,3.299925073842260165e-02
5.892000000000000171e+01,2.657396302002268049e-02
5.896000000000000085e+01,3.097298908006371546e-02
5.900000000000000000e+01,2.995966326748434813e-02
5.903999999999999915e+01,2.807326931153767552e-02
5.907999999999999829e+01,2.671051036294192285e-02
5.911999999999999744e+01,3.233113606005510315e-02
5.915999999999999659e+01,2.887306856173424419e-02
5.920000000000000284e+01,3.082709676259341725e-02
5.924000000000000199e+01,3.173347236701339752e-02
5.928000000000000114e+01,2.844961546782845754e-02
5.932000000000000028e+01,2.516563417445459930e-02
5.935999999999999943e+01,2.956339279468001013e-02
5.939999999999999858e+01,2.872339406589690877e-02
5.943999999999999773e+01,3.591431221328892504e-02
5.947999999999999687e+01,3.943876464367853524e-02
5.952000000000000313e+01,2.794854438372541480e-02
5.956000000000000227e+01,3.164734322071845185e-02
5.960000000000000142e+01,3.080673930522401238e-02
5.964000000000000057e+01,3.258483351527449723e-02
5.967999999999999972e+01,3.855291681150661148e-02
5.971999999999999886e+01,3.142679668334735776e-02
5.975999999999999801e+01,2.971278165353873763e-02
5.979999999999999716e+01,3.637886516206648851e-02
5.984000000000000341e+01,3.868013775624132289e-02
5.988000000000000256e+01,3.207731704954880358e-02
5.992000000000000171e+01,3.577506280440526792e-02
5.996000000000000085e+01,3.423506060942375917e-02
