2.003999999999999915e+01,1.009002302224866476e-02
2.007999999999999829e+01,1.198940007847145751e-02
2.012000000000000099e+01,1.079901824260899590e-02
2.016000000000000014e+01,8.416060858096260228e-03
2.019999999999999929e+01,7.496584662576901044e-03
2.023999999999999844e+01,1.064244115125097777e-02
2.028000000000000114e+01,1.264992690745175320e-02
2.032000000000000028e+01,7.827491332520883013e-03
2.035999999999999943e+01,9.292802955701322948e-03
2.039999999999999858e+01,9.077690995706875696e-03
2.044000000000000128e+01,8.916723068641349212e-03
2.048000000000000043e+01,7.617383698658508791e-03
2.051999999999999957e+01,1.043758126069099269e-02
2.055999999999999872e+01,1.049324982232290558e-02
2.060000000000000142e+01,1.390958163758328377e-02
2.064000000000000057e+01,8.165165559930112962e-03
2.067999999999999972e+01,1.304491493915947709e-02
2.071999999999999886e+01,1.315454077922277761e-02
2.076000000000000156e+01,1.006599496889335962e-02
2.080000000000000071e+01,1.120539558084464316e-02
2.083999999999999986e+01,1.104380774374877708e-02
2.087999999999999901e+01,6.166301041575182433e-03
2.092000000000000171e+01,7.576539548269619131e-03
2.096000000000000085e+01,1.137174566580987679e-02
2.100000000000000000e+01,7.307128430281757681e-03
2.103999999999999915e+01,9.421845492468265693e-03
2.107999999999999829e+01,1.018136801063124382e-02
2.112000000000000099e+01,9.531490600238346975e-03
2.116000000000000014e+01,1.473571560663252365e-02
2.119999999999999929e+01,1.614550973277834728e-02
2.123999999999999844e+01,1.045435304753226588e-02
2.128000000000000114e+01,1.229766086855591835e-02
2.132000000000000028e+01,1.153905271682222587e-02
2.135999999999999943e+01,9.913096208435051918e-03
2.139999999999999858e+01,1.050949002058620442e-02
2.144000000000000128e+01,1.311141304141281994e-02
2.148000000000000043e+01,9.371257792523977892e-03
2.151999999999999957e+01,1.246089804560624771e-02
2.155999999999999872e+01,9.154254502351931444e-03
2.160000000000000142e+01,1.056340172159384375e-02
2.164000000000000057e+01,1.240612540820510389e-02
2.167999999999999972e+01,1.018339029728468001e-02
2.171999999999999886e+01,9.153104763765284105e-03
2.176000000000000156e+01,1.115824690863770861e-02
2.180000000000000071e+01,6.550283434866646659e-03
2.183999999999999986e+01,1.137396596364520160e-02
2.187999999999999901e+01,5.844380860999725223e-03
2.192000000000000171e+01,6.819358384776175522e-03
2.196000000000000085e+01,1.099237860383099966e-02
2.200000000000000000e+01,5.733619886735278649e-03
2.203999999999999915e+01,1.137004800772013768e-02
2.207999999999999829e+01,1.380829978938156316e-02
2.212000000000000099e+01,1.136801257388168722e-02
2.216000000000000014e+01,4.970675340671514356e-03
2.219999999999999929e+01,5.023694496818055001e-03
2.223999999999999844e+01,1.028034932403155619e-02
2.228000000000000114e+01,1.098369604038968404e-02
2.232000000000000028e+01,1.488508417322682333e-02
2.235999999999999943e+01,6.319198514277022706e-03
2.239999999999999858e+01,7.672804050625187285e-03
2.244000000000000128e+01,4.202074695545081687e-03
2.248000000000000043e+01,8.970473735836219722e-03
2.251999999999999957e+01,8.155664206312154829e-03
2.255999999999999872e+01,9.237969422089894675e-03
2.260000000000000142e+01,8.043585572929562097e-03
2.264000000000000057e+01,1.286591461060094914e-02
2.267999999999999972e+01,1.026205626702220673e-02
2.271999999999999886e+01,9.013259675954801708e-03
2.276000000000000156e+01,1.090829769594610886e-02
2.280000000000000071e+01,1.204439272897389612e-02
2.283999999999999986e+01,9.982308722990905492e-03
2.287999999999999901e+01,5.535124172561117946e-03
2.292000000000000171e+01,1.171209712204057674e-02
2.296000000000000085e+01,9.270366361890871806e-03
2.300000000000000000e+01,6.936975783429884940e-03
2.303999999999999915e+01,8.018445033623552640e-03
2.307999999999999829e+01,5.522297695168951713e-03
2.312000000000000099e+01,1.256620229730913592e-02
2.316000000000000014e+01,1.066617102471498733e-02
2.319999999999999929e+01,9.579147375131298950e-03
2.323999999999999844e+01,9.250925964025723952e-03
2.328000000000000114e+01,9.356275194648345020e-03
2.332000000000000028e+01,5.396159802098179741e-03
2.335999999999999943e+01,6.368649889910749790e-03
2.339999999999999858e+01,9.238251739160143958e-03
2.344000000000000128e+01,1.059003493381575900e-02
2.348000000000000043e+01,1.047820457423234708e-02
2.351999999999999957e+01,8.360708093885864042e-03
2.355999999999999872e+01,8.628169988612627295e-03
2.360000000000000142e+01,9.979664297679418511e-03
2.364000000000000057e+01,9.162876332386101635e-03
2.367999999999999972e+01,1.154412495255244253e-02
2.371999999999999886e+01,1.387109546947842310e-02
2.376000000000000156e+01,8.229822344321261959e-03
2.380000000000000071e+01,1.071926244071767266e-02
2.383999999999999986e+01,8.872209854569159185e-03
2.387999999999999901e+01,4.694258414197198873e-03
2.392000000000000171e+01,4.419010858517829869e-03
2.396000000000000085e+01,1.189503925893208372e-02
2.400000000000000000e+01,1.031871831585999717e-02
2.403999999999999915e+01,8.146065708401855482e-03
2.407999999999999829e+01,1.020134787194216033e-02
2.412000000000000099e+01,9.817319843839123275e-03
2.416000000000000014e+01,7.590239148882638349e-03
2.419999999999999929e+01,5.092057675846025505e-03
2.423999999999999844e+01,1.256756610446572650e-02
2.428000000000000114e+01,5.190763253520754017e-03
2.432000000000000028e+01,4.752156443217376430e-03
2.435999999999999943e+01,8.866714863951902573e-03
2.439999999999999858e+01,6.747595127375014511e-03
2.444000000000000128e+01,7.338662094578741676e-03
2.448000000000000043e+01,3.864260318034268196e-03
2.451999999999999957e+01,4.238355052406689305e-03
2.455999999999999872e+01,7.322636064293280324e-03
2.460000000000000142e+01,6.991910815487489654e-03
2.464000000000000057e+01,7.745214286712638271e-03
2.467999999999999972e+01,7.522747123026167146e-03
2.471999999999999886e+01,8.438513637636558054e-03
2.476000000000000156e+01,9.679435051802220621e-03
2.480000000000000071e+01,6.312834161073986421e-03
2.483999999999999986e+01,2.946156431062276707e-03
2.487999999999999901e+01,8.414856237972069206e-03
2.492000000000000171e+01,4.614382463578800553e-03
2.496000000000000085e+01,5.529687516221890899e-03
2.500000000000000000e+01,1.013087164738559441e-02
2.503999999999999915e+01,5.571292255866915587e-03
2.507999999999999829e+01,4.643386416247746555e-03
2.512000000000000099e+01,5.070533803811423136e-03
2.516000000000000014e+01,6.527502821808053163e-03
2.519999999999999929e+01,5.382542084432950791e-03
2.523999999999999844e+01,7.327201906166915142e-03
2.528000000000000114e+01,7.862447022108988090e-03
2.532000000000000028e+01,8.397613593701894891e-03
2.535999999999999943e+01,1.001680632772718529e-02
2.539999999999999858e+01,8.871452868606187134e-03
2.544000000000000128e+01,5.449400256241745781e-03
2.548000000000000043e+01,9.128155291273981273e-03
2.551999999999999957e+01,7.332101584717511111e-03
2.555999999999999872e+01,6.457457602818820683e-03
2.560000000000000142e+01,8.130380476794742128e-03
2.564000000000000057e+01,4.382699425359051250e-03
2.567999999999999972e+01,4.483510764264768238e-03
2.571999999999999886e+01,4.963678835037917299e-03
2.576000000000000156e+01,1.243624307369903953e-02
2.580000000000000071e+01,5.435927330525427460e-03
2.583999999999999986e+01,5.156981258844651160e-03
2.587999999999999901e+01,3.577028834926875792e-03
2.592000000000000171e+01,4.273615917955658240e-03
2.596000000000000085e+01,1.163736700376729119e-02
2.600000000000000000e+01,5.829163215944613806e-03
2.603999999999999915e+01,9.398385268903190065e-03
2.607999999999999829e+01,6.191870772385228185e-03
2.612000000000000099e+01,6.617026133457759411e-03
2.616000000000000014e+01,7.584152390751336924e-03
2.619999999999999929e+01,1.088202240281331036e-02
2.623999999999999844e+01,7.620976266817644160e-03
2.628000000000000114e+01,8.858883299153515883e-03
2.632000000000000028e+01,6.356546506317108276e-03
2.635999999999999943e+01,7.377468233651369826e-03
2.639999999999999858e+01,9.211386216891355797e-03
2.644000000000000128e+01,5.191055493395395695e-03
2.648000000000000043e+01,7.024808288875030240e-03
2.651999999999999957e+01,9.346325459332881572e-03
2.655999999999999872e+01,8.252829406746717625e-03
2.660000000000000142e+01,6.942429293195448783e-03
2.664000000000000057e+01,9.155286705193173280e-03
2.667999999999999972e+01,5.568099800365549842e-03
2.671999999999999886e+01,5.775196349126876516e-03
2.676000000000000156e+01,1.091488630070226208e-02
2.680000000000000071e+01,8.411553266106229498e-03
2.683999999999999986e+01,7.967935500640056096e-03
2.687999999999999901e+01,8.120491316239958346e-03
2.692000000000000171e+01,1.011594114701797574e-02
2.696000000000000085e+01,5.064625090148072717e-03
2.700000000000000000e+01,8.686063312162315905e-03
2.703999999999999915e+01,9.597154757832584981e-03
2.707999999999999829e+01,1.072498237702019901e-02
2.712000000000000099e+01,7.353689935050113785e-03
2.716000000000000014e+01,8.589758020344857165e-03
2.719999999999999929e+01,4.188395668990371051e-03
2.723999999999999844e+01,6.020550834028714528e-03
2.728000000000000114e+01,1.072549834187284425e-02
2.732000000000000028e+01,6.378084712859524892e-03
2.735999999999999943e+01,4.903463142474399732e-03
2.739999999999999858e+01,9.445537550352770678e-03
2.744000000000000128e+01,5.639918546873049290e-03
2.748000000000000043e+01,8.284637177027393690e-03
2.751999999999999957e+01,7.731160143780449294e-03
2.755999999999999872e+01,4.738360699252643256e-03
2.760000000000000142e+01,8.141693219648941590e-03
2.764000000000000057e+01,7.262724801507163506e-03
2.767999999999999972e+01,6.654695667994058907e-03
2.771999999999999886e+01,6.263400434577426693e-03
2.776000000000000156e+01,5.763607504507230715e-03
2.780000000000000071e+01,5.372137705468829107e-03
2.783999999999999986e+01,6.715148168678944721e-03
2.787999999999999901e+01,6.540324205437599361e-03
2.792000000000000171e+01,6.528028189405114812e-03
2.796000000000000085e+01,5.594155129622282487e-03
2.800000000000000000e+01,3.034036732234490427e-03
2.803999999999999915e+01,7.954153585664361023e-03
2.807999999999999829e+01,3.442469905444806456e-03
2.812000000000000099e+01,4.188606251680932271e-03
2.816000000000000014e+01,8.132763269430203293e-03
2.819999999999999929e+01,5.355381449439584711e-03
2.823999999999999844e+01,1.049187610937074057e-02
2.828000000000000114e+01,8.039547768288107799e-03
2.832000000000000028e+01,4.665641104655848109e-03
2.835999999999999943e+01,7.471042736486284072e-03
2.839999999999999858e+01,5.723114517873611681e-03
2.844000000000000128e+01,4.083507156871778697e-03
2.848000000000000043e+01,5.099866906237381786e-03
2.851999999999999957e+01,3.514285106860214926e-03
2.855999999999999872e+01,5.614569740099781617e-03
2.860000000000000142e+01,6.684864571280992561e-03
2.864000000000000057e+01,5.695269851888200806e-03
2.867999999999999972e+01,7.307436289975294263e-03
2.871999999999999886e+01,5.504581832222760901e-03
2.876000000000000156e+01,4.785741459353958123e-03
2.880000000000000071e+01,8.023792878786626878e-03
2.883999999999999986e+01,5.949639490590036099e-03
2.887999999999999901e+01,7.669761883186747460e-03
2.892000000000000171e+01,3.481421517097857757e-03
2.896000000000000085e+01,1.208542689324897286e-02
2.900000000000000000e+01,8.276340133314479333e-03
2.903999999999999915e+01,6.472755585181878824e-03
2.907999999999999829e+01,5.644773500335507899e-03
2.912000000000000099e+01,5.304546554694861485e-03
2.916000000000000014e+01,1.119783030518427779e-02
2.919999999999999929e+01,1.004434021105248855e-02
2.923999999999999844e+01,8.673936678094257974e-03
2.928000000000000114e+01,3.183842108287304566e-03
2.932000000000000028e+01,1.026927103214702111e-02
2.935999999999999943e+01,4.074322662025529895e-03
2.939999999999999858e+01,6.931556742564267196e-03
2.944000000000000128e+01,6.427972612108335919e-03
2.948000000000000043e+01,7.333631463598721222e-03
2.951999999999999957e+01,0.000000000000000000e+00
2.955999999999999872e+01,9.632515815460250888e-03
2.960000000000000142e+01,8.315478909477773753e-03
2.964000000000000057e+01,4.559112203596438900e-03
2.967999999999999972e+01,6.765228134473039341e-03
2.971999999999999886e+01,7.670324072587095254e-03
2.976000000000000156e+01,4.672548238560832873e-03
2.980000000000000071e+01,6.444739281268640867e-03
2.983999999999999986e+01,8.216835723591917745e-03
2.987999999999999901e+01,9.338374514119686040e-03
2.992000000000000171e+01,4.714062721072198245e-03
2.996000000000000085e+01,3.504586175315542972e-03
3.000000000000000000e+01,6.739844341187824564e-03
3.003999999999999915e+01,6.668487407176827697e-03
3.007999999999999829e+01,6.326008808030883675e-03
3.012000000000000099e+01,6.362871310983415213e-03
3.016000000000000014e+01,7.863179622816041450e-03
3.019999999999999929e+01,6.327898478627754821e-03
3.023999999999999844e+01,8.478477799326266523e-03
3.028000000000000114e+01,8.569161743809637632e-03
3.032000000000000028e+01,3.401840865821341431e-03
3.035999999999999943e+01,7.340904270805422883e-03
3.039999999999999858e+01,4.558421023165209335e-03
3.044000000000000128e+01,4.377692681097331180e-03
3.048000000000000043e+01,5.064151344320348518e-03
3.051999999999999957e+01,8.189748901607533590e-03
3.055999999999999872e+01,7.412471844978227482e-03
3.060000000000000142e+01,8.207049519139151053e-03
3.064000000000000057e+01,5.044547052762456650e-03
3.067999999999999972e+01,8.820218034906851176e-03
3.071999999999999886e+01,1.042758159297215749e-02
3.076000000000000156e+01,6.072270613823173985e-03
3.080000000000000071e+01,7.028975383623288324e-03
3.083999999999999986e+01,5.004293666425073915e-03
3.087999999999999901e+01,6.557059655805688031e-03
3.092000000000000171e+01,5.562080813558518792e-03
3.096000000000000085e+01,1.042116957634042079e-02
3.100000000000000000e+01,8.992351494714029281e-03
3.103999999999999915e+01,4.040093791210118933e-03
3.107999999999999829e+01,4.887698024025282847e-03
3.112000000000000099e+01,6.548281746266910661e-03
3.116000000000000014e+01,4.848041147695103525e-03
3.119999999999999929e+01,7.213094300983340437e-03
3.123999999999999844e+01,6.163117606837025149e-03
3.128000000000000114e+01,5.275656924439690691e-03
3.132000000000000028e+01,9.808620628723962315e-03
3.135999999999999943e+01,2.958383420109796536e-03
3.139999999999999858e+01,8.683662316544280349e-03
3.144000000000000128e+01,3.405176713007367767e-03
3.148000000000000043e+01,6.582608504633948553e-03
3.151999999999999957e+01,8.404808667058115065e-03
3.155999999999999872e+01,4.752178632483468508e-03
3.160000000000000142e+01,4.134941322453903473e-03
3.164000000000000057e+01,8.070843383299166132e-03
3.167999999999999972e+01,5.556220456895879373e-03
3.171999999999999886e+01,5.860168858997124100e-03
3.176000000000000156e+01,5.134116234024218607e-03
3.180000000000000071e+01,6.250940289394902975e-03
3.183999999999999986e+01,7.747099337045308676e-03
3.187999999999999901e+01,8.375872658685695749e-03
3.192000000000000171e+01,8.733517779105949563e-03
3.196000000000000085e+01,7.627519222459841486e-03
3.200000000000000000e+01,5.545724028650228163e-03
3.203999999999999915e+01,2.271311085814234874e-03
3.207999999999999829e+01,4.417319829972483382e-03
3.211999999999999744e+01,9.327693239303712011e-03
3.215999999999999659e+01,8.275387138312342850e-03
3.220000000000000284e+01,7.494004265914412308e-03
3.224000000000000199e+01,9.151754177761881395e-03
3.228000000000000114e+01,7.123444335648224102e-03
3.232000000000000028e+01,3.956720992330012808e-03
3.235999999999999943e+01,5.559955432062174338e-03
3.239999999999999858e+01,5.049081722428816824e-03
3.243999999999999773e+01,6.218466692387565435e-03
3.247999999999999687e+01,7.984005350979197710e-03
3.252000000000000313e+01,1.002046610145378505e-02
3.256000000000000227e+01,4.901730586960282438e-03
3.260000000000000142e+01,1.132860730842429400e-02
3.264000000000000057e+01,1.022085078363794107e-02
3.267999999999999972e+01,1.138960975278955484e-02
3.271999999999999886e+01,1.450965261912921453e-02
3.275999999999999801e+01,1.394363402644202554e-02
3.279999999999999716e+01,1.917747126025516613e-02
3.284000000000000341e+01,1.806918987113136088e-02
3.288000000000000256e+01,1.858696035617923153e-02
3.292000000000000171e+01,1.845416239068215988e-02
3.296000000000000085e+01,1.718294865055961657e-02
3.300000000000000000e+01,4.903103221802750794e-02
3.303999999999999915e+01,1.137815919812229237e-01
3.307999999999999829e+01,9.901295497019646508e-02
3.311999999999999744e+01,3.247820517394151701e-02
3.315999999999999659e+01,1.277667845513237414e-02
3.320000000000000284e+01,8.089897357333918071e-03
3.324000000000000199e+01,8.281481401519078661e-03
3.328000000000000114e+01,6.792596109933105725e-03
3.332000000000000028e+01,4.056883280035365399e-03
3.335999999999999943e+01,8.692976318256743704e-03
3.339999999999999858e+01,5.740228168096903581e-03
3.343999999999999773e+01,5.985481933727511937e-03
3.347999999999999687e+01,9.428737473059761037e-03
3.352000000000000313e+01,8.535465944355552850e-03
3.356000000000000227e+01,9.159833389426264710e-03
3.360000000000000142e+01,4.038337178751381235e-03
3.364000000000000057e+01,1.193353051883060860e-03
3.367999999999999972e+01,7.671562384390125458e-03
3.371999999999999886e+01,7.590828998232375217e-03
3.375999999999999801e+01,6.859524177664704653e-03
3.379999999999999716e+01,7.158010296347386975e-03
3.384000000000000341e+01,8.648902939522204805e-03
3.388000000000000256e+01,2.984594628798276170e-03
3.392000000000000171e+01,9.245330562205817879e-03
3.396000000000000085e+01,5.965834590022088199e-03
3.400000000000000000e+01,5.775928059498463066e-03
3.403999999999999915e+01,5.965348706370141724e-03
3.407999999999999829e+01,6.913533085652926943e-03
3.411999999999999744e+01,8.241044358153388344e-03
3.415999999999999659e+01,3.226432318786223545e-03
3.420000000000000284e+01,6.234086072995452359e-03
3.424000000000000199e+01,3.821105352699275155e-03
3.428000000000000114e+01,7.804232868496272651e-03
3.432000000000000028e+01,7.776061929141773847e-03
3.435999999999999943e+01,6.067417817618330975e-03
3.439999999999999858e+01,9.399750454833630947e-03
3.443999999999999773e+01,5.305853936689249734e-03
3.447999999999999687e+01,6.415549610436551559e-03
3.452000000000000313e+01,7.308313089634728768e-03
3.456000000000000227e+01,9.935532960161698804e-03
3.460000000000000142e+01,1.050284210888223144e-02
3.464000000000000057e+01,5.161668180217611132e-03
3.467999999999999972e+01,7.625937370289590823e-03
3.471999999999999886e+01,3.260234077258953450e-03
3.475999999999999801e+01,5.507458285029870164e-03
3.479999999999999716e+01,9.163906576935602899e-03
3.484000000000000341e+01,6.857665838568617091e-03
3.488000000000000256e+01,9.158758204326513525e-03
3.492000000000000171e+01,8.370039105140638508e-03
3.496000000000000085e+01,9.749416915943618159e-03
3.500000000000000000e+01,7.822162007851133497e-03
3.503999999999999915e+01,8.550850907561573233e-03
3.507999999999999829e+01,7.273832622843416640e-03
3.511999999999999744e+01,8.435936891976480306e-03
3.515999999999999659e+01,7.050281268068128715e-03
3.520000000000000284e+01,6.965437822519478413e-03
3.524000000000000199e+01,8.452432625459317325e-03
3.528000000000000114e+01,1.172808650457290471e-02
3.532000000000000028e+01,9.854128285000868584e-03
3.535999999999999943e+01,7.112771977692501114e-03
3.539999999999999858e+01,9.195567897128598817e-03
3.543999999999999773e+01,9.814707777772008895e-03
3.547999999999999687e+01,6.259929355357929728e-03
3.552000000000000313e+01,6.933045066543166469e-03
3.556000000000000227e+01,9.449024101724027083e-03
3.560000000000000142e+01,7.953700134911530911e-03
3.564000000000000057e+01,5.699387570628090122e-03
3.567999999999999972e+01,1.222620893684440296e-02
3.571999999999999886e+01,8.995971175787813301e-03
3.575999999999999801e+01,1.167398921154681572e-02
3.579999999999999716e+01,1.012388256509433142e-02
3.584000000000000341e+01,1.215120600620847417e-02
3.588000000000000256e+01,1.537092872528551639e-02
3.592000000000000171e+01,1.170646945615218260e-02
3.596000000000000085e+01,1.118579790877088052e-02
3.600000000000000000e+01,1.099024133398973299e-02
3.603999999999999915e+01,1.377585646945245039e-02
3.607999999999999829e+01,1.390529795894410517e-02
3.611999999999999744e+01,8.668303538199900043e-03
3.615999999999999659e+01,1.275449376732497135e-02
3.620000000000000284e+01,1.516020428819593417e-02
3.624000000000000199e+01,1.247050468478219480e-02
3.628000000000000114e+01,1.064797148378218532e-02
3.632000000000000028e+01,1.430005015080628751e-02
3.635999999999999943e+01,1.377820738881911471e-02
3.639999999999999858e+01,1.049177935926339476e-02
3.643999999999999773e+01,1.327622043834408155e-02
3.647999999999999687e+01,1.204935538947763535e-02
3.652000000000000313e+01,1.385786558823285351e-02
3.656000000000000227e+01,1.366066334527356665e-02
3.660000000000000142e+01,1.465585782267866781e-02
3.664000000000000057e+01,1.711447509057691108e-02
3.667999999999999972e+01,1.539916979275344176e-02
3.671999999999999886e+01,1.390056642504454258e-02
3.675999999999999801e+01,1.473266930065869791e-02
3.679999999999999716e+01,1.626932100420150698e-02
3.684000000000000341e+01,1.786005848426192033e-02
3.688000000000000256e+01,1.858339247721129545e-02
3.692000000000000171e+01,1.898137526539598816e-02
3.696000000000000085e+01,2.078857446491987754e-02
3.700000000000000000e+01,1.544056162761796823e-02
3.703999999999999915e+01,1.995778273866673919e-02
3.707999999999999829e+01,2.306554722772522284e-02
3.711999999999999744e+01,2.113210370898875590e-02
3.715999999999999659e+01,2.635363159016056514e-02
3.720000000000000284e+01,2.821431369510894044e-02
3.724000000000000199e+01,2.844871763993770536e-02
3.728000000000000114e+01,3.020074734428223120e-02
3.732000000000000028e+01,3.076014054387769120e-02
3.735999999999999943e+01,3.180725961238439758e-02
3.739999999999999858e+01,3.545610886301082953e-02
3.743999999999999773e+01,3.715344778841252193e-02
3.747999999999999687e+01,4.221139000596559054e-02
3.752000000000000313e+01,5.263552934399151617e-02
3.756000000000000227e+01,5.265214010933708805e-02
3.760000000000000142e+01,5.667981664988987894e-02
3.764000000000000057e+01,7.127739315922700103e-02
3.767999999999999972e+01,7.698518745803596686e-02
3.771999999999999886e+01,9.277503425945993198e-02
3.775999999999999801e+01,1.142021035410415164e-01
3.779999999999999716e+01,1.332982245214943962e-01
3.784000000000000341e+01,1.629100395178440519e-01
3.788000000000000256e+01,2.089459198143453766e-01
3.792000000000000171e+01,2.644133889936954307e-01
3.796000000000000085e+01,3.727308461110649951e-01
3.800000000000000000e+01,5.205095961408158223e-01
3.803999999999999915e+01,7.440129461355741158e-01
3.807999999999999829e+01,9.154791395138741628e-01
3.811999999999999744e+01,1.000000000000000000e+00
3.815999999999999659e+01,9.466225995549545358e-01
3.820000000000000284e+01,7.915018347464761739e-01
3.824000000000000199e+01,6.384949499542610374e-01
3.828000000000000114e+01,4.690637521205363036e-01
3.832000000000000028e+01,3.467367852470186196e-01
3.835999999999999943e+01,2.563907865498772365e-01
3.839999999999999858e+01,2.034462801313752789e-01
3.843999999999999773e+01,1.589034611421406562e-01
3.847999999999999687e+01,1.293211637757505361e-01
3.852000000000000313e+01,1.115012785859483685e-01
3.856000000000000227e+01,9.449434645705433178e-02
3.860000000000000142e+01,8.426294391576687193e-02
3.864000000000000057e+01,7.511552036342752925e-02
3.867999999999999972e+01,7.198475272030779859e-02
3.871999999999999886e+01,5.855486286881934205e-02
3.875999999999999801e+01,5.200891252146923327e-02
3.879999999999999716e+01,4.361985750276194812e-02
3.884000000000000341e+01,4.742685546348032744e-02
3.888000000000000256e+01,3.741138988864596560e-02
3.892000000000000171e+01,4.127233952480879875e-02
3.896000000000000085e+01,3.364165076631262657e-02
3.900000000000000000e+01,3.137715387100338538e-02
3.903999999999999915e+01,3.442464345434874395e-02
3.907999999999999829e+01,2.749824100518722531e-02
3.911999999999999744e+01,3.162958044951582476e-02
3.915999999999999659e+01,2.242630254566169851e-02
3.920000000000000284e+01,2.395553479645895142e-02
3.924000000000000199e+01,1.968467811454513439e-02
3.928000000000000114e+01,2.197252763495404979e-02
3.932000000000000028e+01,1.835187745358723629e-02
3.935999999999999943e+01,1.792920815886728594e-02
3.939999999999999858e+01,2.005405669938314234e-02
3.943999999999999773e+01,1.545732647520405359e-02
3.947999999999999687e+01,1.628099165158973516e-02
3.952000000000000313e+01,1.954376375205772384e-02
3.956000000000000227e+01,1.966250266283669015e-02
3.960000000000000142e+01,1.316807272545254294e-02
3.964000000000000057e+01,1.708091992508175075e-02
3.967999999999999972e+01,1.264603023417756530e-02
3.971999999999999886e+01,1.292686693953952297e-02
3.975999999999999801e+01,1.499634680712873085e-02
3.979999999999999716e+01,1.424702408715717780e-02
3.984000000000000341e+01,1.696670676098437427e-02
3.988000000000000256e+01,1.469937686533239092e-02
3.992000000000000171e+01,7.878676197660590408e-03
3.996000000000000085e+01,1.395869268269358567e-02
4.000000000000000000e+01,1.494328568709395004e-02
4.003999999999999915e+01,1.375953816072294708e-02
4.007999999999999829e+01,1.225042820457144556e-02
4.011999999999999744e+01,1.296360207139607423e-02
4.015999999999999659e+01,9.014993828780978533e-03
4.020000000000000284e+01,1.216714094488122351e-02
4.024000000000000199e+01,1.325935730465308167e-02
4.028000000000000114e+01,1.261687422066888088e-02
4.032000000000000028e+01,9.968665338622204747e-03
4.035999999999999943e+01,1.084366524566331147e-02
4.039999999999999858e+01,1.009237576756897431e-02
4.043999999999999773e+01,1.037085364198286896e-02
4.047999999999999687e+01,9.836120483736500789e-03
4.052000000000000313e+01,1.141525924269114027e-02
4.056000000000000227e+01,7.736356804439276265e-03
4.060000000000000142e+01,1.110400306157111744e-02
4.064000000000000057e+01,1.008089171641515097e-02
4.067999999999999972e+01,1.090062550788736470e-02
4.071999999999999886e+01,6.082880836693189269e-03
4.075999999999999801e+01,9.070557686736769806e-03
4.079999999999999716e+01,8.426349760346608236e-03
4.084000000000000341e+01,7.294160977158027290e-03
4.088000000000000256e+01,9.739384378346222643e-03
4.092000000000000171e+01,1.278073148742878661e-02
4.096000000000000085e+01,1.126870413018251846e-02
4.100000000000000000e+01,1.046121068154004345e-02
4.103999999999999915e+01,7.593783634793046904e-03
4.107999999999999829e+01,9.550488638179734091e-03
4.111999999999999744e+01,1.215752188146028076e-02
4.115999999999999659e+01,7.717738795566031484e-03
4.120000000000000284e+01,7.126392969555681890e-03
4.124000000000000199e+01,7.022759229842213784e-03
4.128000000000000114e+01,1.006289431406928725e-02
4.132000000000000028e+01,9.633758502038652916e-03
4.135999999999999943e+01,1.218577550244036647e-02
4.139999999999999858e+01,6.769486199594603772e-03
4.143999999999999773e+01,7.586663971614782988e-03
4.147999999999999687e+01,1.127658364491387205e-02
4.152000000000000313e+01,1.014210065042320773e-02
4.156000000000000227e+01,7.164503180447568363e-03
4.160000000000000142e+01,8.089546791911294762e-03
4.164000000000000057e+01,6.683628461720768875e-03
4.167999999999999972e+01,1.129435538408926111e-02
4.171999999999999886e+01,6.527438562968269214e-03
4.175999999999999801e+01,1.021640262018709208e-02
4.179999999999999716e+01,7.183779529471297047e-03
4.184000000000000341e+01,1.130611121427323000e-02
4.188000000000000256e+01,1.022460225538148262e-02
4.192000000000000171e+01,1.028126587659910877e-02
4.196000000000000085e+01,1.050040757185393900e-02
4.200000000000000000e+01,1.136987438104883862e-02
4.203999999999999915e+01,8.878478221274513013e-03
4.207999999999999829e+01,7.687869800584885664e-03
4.211999999999999744e+01,1.321857322124314962e-02
4.215999999999999659e+01,1.246133015471570342e-02
4.220000000000000284e+01,9.481533642177717575e-03
4.224000000000000199e+01,1.132586505919800160e-02
4.228000000000000114e+01,8.779433048289328814e-03
4.232000000000000028e+01,9.973023833890920856e-03
4.235999999999999943e+01,8.293597695804491923e-03
4.239999999999999858e+01,1.040839931249424970e-02
4.243999999999999773e+01,1.398660311679995882e-02
4.247999999999999687e+01,1.068060163033076986e-02
4.252000000000000313e+01,7.970718168203631479e-03
4.256000000000000227e+01,1.019337198381133069e-02
4.260000000000000142e+01,1.349999072157515197e-02
4.264000000000000057e+01,1.268687096482835550e-02
4.267999999999999972e+01,1.398761545248691611e-02
4.271999999999999886e+01,1.225272601032764870e-02
4.275999999999999801e+01,1.263170052839613505e-02
4.279999999999999716e+01,1.284791868197573787e-02
4.284000000000000341e+01,1.376866420807397115e-02
4.288000000000000256e+01,1.105751756912040466e-02
4.292000000000000171e+01,1.479665371752097482e-02
4.296000000000000085e+01,1.718051759931997491e-02
4.300000000000000000e+01,1.349325297984236942e-02
4.303999999999999915e+01,1.387124005393757832e-02
4.307999999999999829e+01,1.370703307181760262e-02
4.311999999999999744e+01,1.787910371131043799e-02
4.315999999999999659e+01,1.749779206958998468e-02
4.320000000000000284e+01,1.343038188366377228e-02
4.324000000000000199e+01,1.890295216766185379e-02
4.328000000000000114e+01,1.743710907666532611e-02
4.332000000000000028e+01,2.063277435149871858e-02
4.335999999999999943e+01,2.117224012019797152e-02
4.339999999999999858e+01,2.648162445543654139e-02
4.343999999999999773e+01,2.317223233157615636e-02
4.347999999999999687e+01,2.582527382383490930e-02
4.352000000000000313e+01,2.630996242359599085e-02
4.356000000000000227e+01,2.814963874759938631e-02
4.360000000000000142e+01,2.977235062289421141e-02
4.364000000000000057e+01,3.361733381735004800e-02
4.367999999999999972e+01,3.415565345963907096e-02
4.371999999999999886e+01,3.724147559157260645e-02
4.375999999999999801e+01,4.032715367621641372e-02
4.379999999999999716e+01,4.243699320749834414e-02
4.384000000000000341e+01,5.121393322786588209e-02
4.388000000000000256e+01,5.690102995539663561e-02
4.392000000000000171e+01,5.841417839913138482e-02
4.396000000000000085e+01,6.946730475519191650e-02
4.400000000000000000e+01,7.856889748346312929e-02
4.403999999999999915e+01,9.824036744630940121e-02
4.407999999999999829e+01,1.066912070393467998e-01
4.411999999999999744e+01,1.207250412779778126e-01
4.415999999999999659e+01,1.449493156278127415e-01
4.420000000000000284e+01,1.739435057024108500e-01
4.424000000000000199e+01,1.922049120208365325e-01
4.428000000000000114e+01,2.064549845039975184e-01
4.432000000000000028e+01,2.206507057081819601e-01
4.435999999999999943e+01,2.122426946347966692e-01
4.439999999999999858e+01,1.998775545423237820e-01
4.443999999999999773e+01,1.812786651060466214e-01
4.447999999999999687e+01,1.563918209414328353e-01
4.452000000000000313e+01,1.401776688208051513e-01
4.456000000000000227e+01,1.135017580195122749e-01
4.460000000000000142e+01,9.170417200698144367e-02
4.464000000000000057e+01,8.085589779479819550e-02
4.467999999999999972e+01,7.071214441904841164e-02
4.471999999999999886e+01,6.219440085918310351e-02
4.475999999999999801e+01,5.427276736668658341e-02
4.479999999999999716e+01,4.407436594996347323e-02
4.484000000000000341e+01,4.005521428811412848e-02
4.488000000000000256e+01,3.506022023650506164e-02
4.492000000000000171e+01,3.125759335078826667e-02
4.496000000000000085e+01,3.217067424770376355e-02
4.500000000000000000e+01,2.896400826686894997e-02
4.503999999999999915e+01,2.543196223724143029e-02
4.507999999999999829e+01,1.989417350098329762e-02
4.511999999999999744e+01,2.270384322271802244e-02
4.515999999999999659e+01,1.651529367843042675e-02
4.520000000000000284e+01,2.181810636968225386e-02
4.524000000000000199e+01,1.627972126765446156e-02
4.528000000000000114e+01,1.643273717553182800e-02
4.532000000000000028e+01,1.615196155510780288e-02
4.535999999999999943e+01,1.733457774981676108e-02
4.539999999999999858e+01,1.651145010118462361e-02
4.543999999999999773e+01,1.292370507291330101e-02
4.547999999999999687e+01,1.231709822192709330e-02
4.552000000000000313e+01,1.534209231545946399e-02
4.556000000000000227e+01,1.137445969249164558e-02
4.560000000000000142e+01,1.136365918452590142e-02
4.564000000000000057e+01,8.100393404485239576e-03
4.567999999999999972e+01,1.123319536522744168e-02
4.571999999999999886e+01,1.089671079994302197e-02
4.575999999999999801e+01,8.120839172970070047e-03
4.579999999999999716e+01,9.843851374990350220e-03
4.584000000000000341e+01,9.127476231144486182e-03
4.588000000000000256e+01,7.164228933101104112e-03
4.592000000000000171e+01,9.374633583123393593e-03
4.596000000000000085e+01,8.007340369699193078e-03
4.600000000000000000e+01,8.753899607309295616e-03
4.603999999999999915e+01,9.717127668341690033e-03
4.607999999999999829e+01,7.590504621652847776e-03
4.611999999999999744e+01,9.420711842811570549e-03
4.615999999999999659e+01,5.992857974330629937e-03
4.620000000000000284e+01,8.039580877938191927e-03
4.624000000000000199e+01,5.858142014155364591e-03
4.628000000000000114e+01,5.844759849228701835e-03
4.632000000000000028e+01,6.264866482876761157e-03
4.635999999999999943e+01,6.142767409027358357e-03
4.639999999999999858e+01,6.725183061792656090e-03
4.643999999999999773e+01,5.898108843786567523e-03
4.647999999999999687e+01,5.883959553104598818e-03
4.652000000000000313e+01,5.327603986569951801e-03
4.656000000000000227e+01,6.451456942278124829e-03
4.660000000000000142e+01,8.930286823479204050e-03
4.664000000000000057e+01,5.446385758209162757e-03
4.667999999999999972e+01,6.136133941317458221e-03
4.671999999999999886e+01,4.711723107266935912e-03
4.675999999999999801e+01,4.750699115241111513e-03
4.679999999999999716e+01,7.716603369126245025e-03
4.684000000000000341e+01,6.074907027184219335e-03
4.688000000000000256e+01,6.167623313218080494e-03
4.692000000000000171e+01,7.452699660703822511e-03
4.696000000000000085e+01,8.412389139134047317e-03
4.700000000000000000e+01,8.775665394202386213e-03
4.703999999999999915e+01,8.542528283820004578e-03
4.707999999999999829e+01,5.978409907705472051e-03
4.711999999999999744e+01,4.498240397711728705e-03
4.715999999999999659e+01,4.806687763515724195e-03
4.720000000000000284e+01,6.470109923480513343e-03
4.724000000000000199e+01,8.621222856420949349e-03
4.728000000000000114e+01,2.749803356615564652e-03
4.732000000000000028e+01,3.870703438830626862e-03
4.735999999999999943e+01,7.647503565495718768e-03
4.739999999999999858e+01,7.955011198404270123e-03
4.743999999999999773e+01,5.064252407685050639e-03
4.747999999999999687e+01,7.756476327099525413e-03
4.752000000000000313e+01,4.702787143863179989e-03
4.756000000000000227e+01,4.359202537076348194e-03
4.760000000000000142e+01,6.346285667545568422e-03
4.764000000000000057e+01,7.465927089014363395e-03
4.767999999999999972e+01,3.327502021468779422e-03
4.771999999999999886e+01,4.338416871975877241e-03
4.775999999999999801e+01,7.246356951835649166e-03
4.779999999999999716e+01,5.763513995510947605e-03
4.784000000000000341e+01,6.828158893683533397e-03
4.788000000000000256e+01,6.754335018105238862e-03
4.792000000000000171e+01,4.241116408042765878e-03
4.796000000000000085e+01,6.606210651282524819e-03
4.800000000000000000e+01,7.778630452061453295e-03
4.803999999999999915e+01,3.964008697244348831e-03
4.807999999999999829e+01,4.323031217697280090e-03
4.811999999999999744e+01,4.627688960736894147e-03
4.815999999999999659e+01,5.420034208709554636e-03
4.820000000000000284e+01,6.429040607308883319e-03
4.824000000000000199e+01,3.751930558512606931e-03
4.828000000000000114e+01,7.362468529839613640e-03
4.832000000000000028e+01,7.232684527149891955e-03
4.835999999999999943e+01,4.934530439216693737e-03
4.839999999999999858e+01,4.208167852554131096e-03
4.843999999999999773e+01,5.649854291952085932e-03
4.847999999999999687e+01,5.248401674501269702e-03
4.852000000000000313e+01,5.551456252958331984e-03
4.856000000000000227e+01,7.101070309669659832e-03
4.860000000000000142e+01,7.783239247249144725e-03
4.864000000000000057e+01,5.104521771206082387e-03
4.867999999999999972e+01,6.003188772222211970e-03
4.871999999999999886e+01,7.172720319154016200e-03
4.875999999999999801e+01,3.572028722665321777e-03
4.879999999999999716e+01,5.933751844484269969e-03
4.884000000000000341e+01,7.157002782420954397e-03
4.888000000000000256e+01,4.152082575105900918e-03
4.892000000000000171e+01,4.182493567882005110e-03
4.896000000000000085e+01,7.410851345991008830e-03
4.900000000000000000e+01,7.278321431678180971e-03
4.903999999999999915e+01,5.844702895708478972e-03
4.907999999999999829e+01,4.844563354185728137e-03
4.911999999999999744e+01,6.391907120318398097e-03
4.915999999999999659e+01,8.643755808938023699e-03
4.920000000000000284e+01,7.643126579578807776e-03
4.924000000000000199e+01,3.986276957030679066e-03
4.928000000000000114e+01,4.611477831975379325e-03
4.932000000000000028e+01,4.802872969737870430e-03
4.935999999999999943e+01,6.132414259091422022e-03
4.939999999999999858e+01,7.407586224189777711e-03
4.943999999999999773e+01,5.538689903663501085e-03
4.947999999999999687e+01,7.463996188194337369e-03
4.952000000000000313e+01,7.383543994236836314e-03
4.956000000000000227e+01,6.706669483233727511e-03
4.960000000000000142e+01,5.867014452644327659e-03
4.964000000000000057e+01,3.292626729517775502e-03
4.967999999999999972e+01,4.024593719012617594e-03
4.971999999999999886e+01,6.111526551073334472e-03
4.975999999999999801e+01,7.818857325418456308e-03
4.979999999999999716e+01,6.978376202218393616e-03
4.984000000000000341e+01,2.831209645175041326e-03
4.988000000000000256e+01,7.302510849774018417e-03
4.992000000000000171e+01,6.298916638611285271e-03
4.996000000000000085e+01,5.783003538385260087e-03
5.000000000000000000e+01,6.730465770990474300e-03
5.003999999999999915e+01,8.219814072798288865e-03
5.007999999999999829e+01,5.860423663794780448e-03
5.011999999999999744e+01,5.506460585791295159e-03
5.015999999999999659e+01,6.290640817602704410e-03
5.020000000000000284e+01,4.852239185641959648e-03
5.024000000000000199e+01,4.931417276423141760e-03
5.028000000000000114e+01,5.118838644325901348e-03
5.032000000000000028e+01,4.547219268165139314e-03
5.035999999999999943e+01,6.360463067576186194e-03
5.039999999999999858e+01,4.379172261908951744e-03
5.043999999999999773e+01,7.980853651803615847e-03
5.047999999999999687e+01,7.083332000676624031e-03
5.052000000000000313e+01,8.137031017218049334e-03
5.056000000000000227e+01,7.076557376075093622e-03
5.060000000000000142e+01,6.666378299778451776e-03
5.064000000000000057e+01,5.117720645603176903e-03
5.067999999999999972e+01,6.279156484950372541e-03
5.071999999999999886e+01,6.085292492467239689e-03
5.075999999999999801e+01,5.782849102265914983e-03
5.079999999999999716e+01,6.076494324023353280e-03
5.084000000000000341e+01,5.827917924336831201e-03
5.088000000000000256e+01,6.717482276866658386e-03
5.092000000000000171e+01,5.492872692912814138e-03
5.096000000000000085e+01,5.460608819441248839e-03
5.100000000000000000e+01,8.084232060338156570e-03
5.103999999999999915e+01,7.401165604727534021e-03
5.107999999999999829e+01,5.633824250704910774e-03
5.111999999999999744e+01,5.709290948131542573e-03
5.115999999999999659e+01,6.218229251387116449e-03
5.120000000000000284e+01,5.426071260190163878e-03
5.124000000000000199e+01,7.181389045941810080e-03
5.128000000000000114e+01,8.719715101933735169e-03
5.132000000000000028e+01,6.409298042361266309e-03
5.135999999999999943e+01,6.429535363696899965e-03
5.139999999999999858e+01,7.533706347650855409e-03
5.143999999999999773e+01,7.174164457288878874e-03
5.147999999999999687e+01,5.405114792965700840e-03
5.152000000000000313e+01,5.478871759203691842e-03
5.156000000000000227e+01,5.877688425495498914e-03
5.160000000000000142e+01,6.384743679978246468e-03
5.164000000000000057e+01,9.547683775408537243e-03
5.167999999999999972e+01,6.964695990951960160e-03
5.171999999999999886e+01,6.658156066160701193e-03
5.175999999999999801e+01,8.248627161841286595e-03
5.179999999999999716e+01,6.911842558431636509e-03
5.184000000000000341e+01,6.008527145341184886e-03
5.188000000000000256e+01,7.110632811343195296e-03
5.192000000000000171e+01,5.014456139770929674e-03
5.196000000000000085e+01,9.043298688821053977e-03
5.200000000000000000e+01,5.916875917742335511e-03
5.203999999999999915e+01,7.451930537133335912e-03
5.207999999999999829e+01,6.872807099465227595e-03
5.211999999999999744e+01,6.781357099938197484e-03
5.215999999999999659e+01,6.256091274923561429e-03
5.220000000000000284e+01,7.194192967855727282e-03
5.224000000000000199e+01,7.427452338905101217e-03
5.228000000000000114e+01,8.202589822183813800e-03
5.232000000000000028e+01,7.839242759853936454e-03
5.235999999999999943e+01,4.386022281859952750e-03
5.239999999999999858e+01,5.919509370197535703e-03
5.243999999999999773e+01,8.753747396618504623e-03
5.247999999999999687e+01,7.468211974682052723e-03
5.252000000000000313e+01,7.537632449094908670e-03
5.256000000000000227e+01,9.070419162655295187e-03
5.260000000000000142e+01,7.946973547566873325e-03
5.264000000000000057e+01,8.612125342109490031e-03
5.267999999999999972e+01,7.813559857583125476e-03
5.271999999999999886e+01,8.857796740953697082e-03
5.275999999999999801e+01,6.703748302885035454e-03
5.279999999999999716e+01,6.771938645640348392e-03
5.284000000000000341e+01,6.731542202059443911e-03
5.288000000000000256e+01,7.395637466706315999e-03
5.292000000000000171e+01,8.330582357944016011e-03
5.296000000000000085e+01,7.964424702821637156e-03
5.300000000000000000e+01,6.188753874363330833e-03
5.303999999999999915e+01,4.738137488672947498e-03
5.307999999999999829e+01,7.406942374708061147e-03
5.311999999999999744e+01,6.226997751182427633e-03
5.315999999999999659e+01,9.383295084978768644e-03
5.320000000000000284e+01,1.042541038322938179e-02
5.324000000000000199e+01,9.353343503845463688e-03
5.328000000000000114e+01,6.763351971616936124e-03
5.332000000000000028e+01,6.504007857944896567e-03
5.335999999999999943e+01,6.244485595669188593e-03
5.339999999999999858e+01,8.478226195102907953e-03
5.343999999999999773e+01,7.730500027361751278e-03
5.347999999999999687e+01,1.050593604357928819e-02
5.352000000000000313e+01,7.047590461833114564e-03
5.356000000000000227e+01,8.304922113625476388e-03
5.360000000000000142e+01,7.393865066540507812e-03
5.364000000000000057e+01,7.566733725100611464e-03
5.367999999999999972e+01,7.631012613459530955e-03
5.371999999999999886e+01,7.532496347084955898e-03
5.375999999999999801e+01,6.132874692574138628e-03
5.379999999999999716e+01,6.684462054449479169e-03
5.384000000000000341e+01,6.260175198672095903e-03
5.388000000000000256e+01,5.673092619805958532e-03
5.392000000000000171e+01,6.495166206624355780e-03
5.396000000000000085e+01,7.154443786176414681e-03
5.400000000000000000e+01,7.108872791938096285e-03
5.403999999999999915e+01,9.773383355762367553e-03
5.407999999999999829e+01,8.101293817902815650e-03
5.411999999999999744e+01,9.193490796371758811e-03
5.415999999999999659e+01,8.713554753598778957e-03
5.420000000000000284e+01,6.336254092833960502e-03
5.424000000000000199e+01,9.379296401863707749e-03
5.428000000000000114e+01,5.375475776589563708e-03
5.432000000000000028e+01,1.015272286843060638e-02
5.435999999999999943e+01,6.040128498710496154e-03
5.439999999999999858e+01,7.293671287986177275e-03
5.443999999999999773e+01,7.246106273615877773e-03
5.447999999999999687e+01,7.089948647268235100e-03
5.452000000000000313e+01,9.156023691925823174e-03
5.456000000000000227e+01,8.349038475808912702e-03
5.460000000000000142e+01,6.349355372577846282e-03
5.464000000000000057e+01,8.198061787391169170e-03
5.467999999999999972e+01,7.553144212268224182e-03
5.471999999999999886e+01,7.233275112183252219e-03
5.475999999999999801e+01,7.238454345047444678e-03
5.479999999999999716e+01,6.484576919901586037e-03
5.484000000000000341e+01,8.982830635477358910e-03
5.488000000000000256e+01,7.578123347141303527e-03
5.492000000000000171e+01,7.745184399600140747e-03
5.496000000000000085e+01,7.912061619902972451e-03
5.500000000000000000e+01,7.265676229308203060e-03
5.503999999999999915e+01,7.052748661927980486e-03
5.507999999999999829e+01,6.785431593681810931e-03
5.511999999999999744e+01,8.306703125560570972e-03
5.515999999999999659e+01,8.743685265968904191e-03
5.520000000000000284e+01,8.421609327479101167e-03
5.524000000000000199e+01,1.070120019950058891e-02
5.528000000000000114e+01,9.728291556044436211e-03
5.532000000000000028e+01,6.912219558553314540e-03
5.535999999999999943e+01,7.510892581959876038e-03
5.539999999999999858e+01,9.139279816660428671e-03
5.543999999999999773e+01,8.382450846624412560e-03
5.547999999999999687e+01,7.517025712390851266e-03
5.552000000000000313e+01,7.193467181193163168e-03
5.556000000000000227e+01,8.008032777821300421e-03
5.560000000000000142e+01,7.304665480453921556e-03
5.564000000000000057e+01,7.793627269178266502e-03
5.567999999999999972e+01,7.577734516382306738e-03
5.571999999999999886e+01,8.228939110839304100e-03
5.575999999999999801e+01,7.036978788284459566e-03
5.579999999999999716e+01,9.097146196319851399e-03
5.584000000000000341e+01,7.308554432755551104e-03
5.588000000000000256e+01,7.091727599854723979e-03
5.592000000000000171e+01,5.356966736247957030e-03
5.596000000000000085e+01,7.687411671528998104e-03
5.600000000000000000e+01,6.711149291290297025e-03
5.603999999999999915e+01,4.867415363401450361e-03
5.607999999999999829e+01,8.389812626778484980e-03
5.611999999999999744e+01,4.160672268000698698e-03
5.615999999999999659e+01,6.002330968076920875e-03
5.620000000000000284e+01,1.017462685631546904e-02
5.624000000000000199e+01,7.896310514777250475e-03
5.628000000000000114e+01,8.057041562110777225e-03
5.632000000000000028e+01,7.350300067172502519e-03
5.635999999999999943e+01,8.919989949597808068e-03
5.639999999999999858e+01,8.158665459598635900e-03
5.643999999999999773e+01,8.969103911019658121e-03
5.647999999999999687e+01,7.231706736064522772e-03
5.652000000000000313e+01,6.632430278803800282e-03
5.656000000000000227e+01,8.146968761132024686e-03
5.660000000000000142e+01,7.005260705930650873e-03
5.664000000000000057e+01,1.090445039809070232e-02
5.667999999999999972e+01,1.025020978302031670e-02
5.671999999999999886e+01,8.620084719903008813e-03
5.675999999999999801e+01,7.260795642850946530e-03
5.679999999999999716e+01,7.635883955750347347e-03
5.684000000000000341e+01,7.143497879223443571e-03
5.688000000000000256e+01,8.331283666026886511e-03
5.692000000000000171e+01,7.838516142573595524e-03
5.696000000000000085e+01,9.947409319812866232e-03
5.700000000000000000e+01,7.231844840893646674e-03
5.703999999999999915e+01,9.828202900665362896e-03
5.707999999999999829e+01,9.226260293406569890e-03
5.711999999999999744e+01,6.943763665447012963e-03
5.715999999999999659e+01,8.672263331267516390e-03
5.720000000000000284e+01,8.774413934653143080e-03
5.724000000000000199e+01,8.334320182385506967e-03
5.728000000000000114e+01,8.110855326585099390e-03
5.732000000000000028e+01,7.453556315840835327e-03
5.735999999999999943e+01,9.343711342457539093e-03
5.739999999999999858e+01,8.198180292663824822e-03
5.743999999999999773e+01,9.708513480940485565e-03
5.747999999999999687e+01,8.399981278403186730e-03
5.752000000000000313e+01,8.446387211114190011e-03
5.756000000000000227e+01,9.468294439880014721e-03
5.760000000000000142e+01,1.065262418595906528e-02
5.764000000000000057e+01,9.505935154860615729e-03
5.767999999999999972e+01,1.150295669129138346e-02
5.771999999999999886e+01,8.350286559303969625e-03
5.775999999999999801e+01,7.799274286232959347e-03
5.779999999999999716e+01,1.082561409397291008e-02
5.784000000000000341e+01,6.534052109287454349e-03
5.788000000000000256e+01,1.026467180160397716e-02
5.792000000000000171e+01,8.357751933066620564e-03
5.796000000000000085e+01,8.998283970558094980e-03
5.800000000000000000e+01,9.150774195152469245e-03
5.803999999999999915e+01,9.519890616526702556e-03
5.807999999999999829e+01,6.907523788424303757e-03
5.811999999999999744e+01,9.281844207953915404e-03
5.815999999999999659e+01,7.373755275184785615e-03
5.820000000000000284e+01,8.934606517451492563e-03
5.824000000000000199e+01,7.947615881434482582e-03
5.828000000000000114e+01,8.098739711204318292e-03
5.832000000000000028e+01,7.924436318697164125e-03
5.835999999999999943e+01,8.075168471146433255e-03
5.839999999999999858e+01,8.008883602028119691e-03
5.843999999999999773e+01,9.189123115228474761e-03
5.847999999999999687e+01,7.929930382499306499e-03
5.852000000000000313e+01,9.001366596781582713e-03
5.856000000000000227e+01,8.283833190278965322e-03
5.860000000000000142e+01,7.078255839547146523e-03
5.864000000000000057e+01,8.040691282229762982e-03
5.867999999999999972e+01,9.761803072706510404e-03
5.871999999999999886e+01,8.935071279833858501e-03
5.875999999999999801e+01,8.812810308134189086e-03
5.879999999999999716e+01,1.009968816728446656e-02
5.884000000000000341e+01,7.646206683061470243e-03
5.888000000000000256e+01,8.824278685695132254e-03
5.892000000000000171e+01,9.460100364945583234e-03
5.896000000000000085e+01,8.903208669401783265e-03
5.900000000000000000e+01,8.129297820958289802e-03
5.903999999999999915e+01,8.601909223501324683e-03
5.907999999999999829e+01,9.345348370958720188e-03
5.911999999999999744e+01,9.383920757258332884e-03
5.915999999999999659e+01,1.001855205895580379e-02
5.920000000000000284e+01,1.011093204264840520e-02
5.924000000000000199e+01,7.059208928958390222e-03
5.928000000000000114e+01,9.210989912099013660e-03
5.932000000000000028e+01,1.000744051431555308e-02
5.935999999999999943e+01,8.039224289987680766e-03
5.939999999999999858e+01,1.246702706998148100e-02
5.943999999999999773e+01,9.522717131554026340e-03
5.947999999999999687e+01,8.258569820684395768e-03
5.952000000000000313e+01,1.198110478433848068e-02
5.956000000000000227e+01,1.028291533127162483e-02
5.960000000000000142e+01,1.118637720103599076e-02
5.964000000000000057e+01,7.915834946102776049e-03
5.967999999999999972e+01,1.152915788286123719e-02
5.971999999999999886e+01,9.721755834543519686e-03
5.975999999999999801e+01,1.295524045066020861e-02
5.979999999999999716e+01,9.629689706209192124e-03
5.984000000000000341e+01,7.604863613412060630e-03
5.988000000000000256e+01,9.645229394799547176e-03
5.992000000000000171e+01,7.891026753972421592e-03
5.996000000000000085e+01,8.142216490298514325e-03
