2.003999999999999915e+01,1.494581871367966011e-02
2.007999999999999829e+01,2.555727091671866277e-02
2.012000000000000099e+01,1.918744845589721859e-02
2.016000000000000014e+01,1.340971484740196076e-02
2.019999999999999929e+01,2.589616036876920060e-02
2.023999999999999844e+01,2.130260445131216054e-02
2.028000000000000114e+01,1.858458527014850495e-02
2.032000000000000028e+01,2.415934230864454080e-02
2.035999999999999943e+01,1.482608664445531250e-02
2.039999999999999858e+01,2.247356218985919335e-02
2.044000000000000128e+01,1.847100814813064373e-02
2.048000000000000043e+01,1.742998519488287573e-02
2.051999999999999957e+01,1.944922008693067417e-02
2.055999999999999872e+01,1.386622259368008175e-02
2.060000000000000142e+01,1.391037873181122896e-02
2.064000000000000057e+01,1.938423497408158641e-02
2.067999999999999972e+01,1.774949262420235513e-02
2.071999999999999886e+01,2.430879968725336432e-02
2.076000000000000156e+01,1.744099542252747215e-02
2.080000000000000071e+01,1.570671095973290299e-02
2.083999999999999986e+01,1.298488709048478164e-02
2.087999999999999901e+01,1.332332102569275950e-02
2.092000000000000171e+01,2.452142690765641425e-02
2.096000000000000085e+01,1.962679888264055525e-02
2.100000000000000000e+01,1.334972438761089161e-02
2.103999999999999915e+01,1.645142040543821904e-02
2.107999999999999829e+01,1.649231500118592333e-02
2.112000000000000099e+01,1.001697152298330548e-02
2.116000000000000014e+01,1.538856757783373629e-02
2.119999999999999929e+01,1.059103537962076576e-02
2.123999999999999844e+01,2.415640895464192875e-02
2.128000000000000114e+01,1.353345415548740799e-02
2.132000000000000028e+01,2.196449244995824987e-02
2.135999999999999943e+01,1.588242497371030598e-02
2.139999999999999858e+01,1.809313359460383228e-02
2.144000000000000128e+01,1.823030836610204861e-02
2.148000000000000043e+01,1.570158871555290409e-02
2.151999999999999957e+01,1.939238316013229546e-02
2.155999999999999872e+01,1.439495073109427377e-02
2.160000000000000142e+01,1.709793380839490229e-02
2.164000000000000057e+01,2.078791261553510419e-02
2.167999999999999972e+01,1.401258283110208558e-02
2.171999999999999886e+01,1.395040092587079318e-02
2.176000000000000156e+01,2.711733314455998592e-02
2.180000000000000071e+01,2.201954261122552464e-02
2.183999999999999986e+01,1.830365483045146360e-02
2.187999999999999901e+01,1.962255996773805758e-02
2.192000000000000171e+01,1.195705790651065137e-02
2.196000000000000085e+01,1.189324454943002478e-02
2.200000000000000000e+01,1.064443813159734673e-02
2.203999999999999915e+01,1.719477393154074732e-02
2.207999999999999829e+01,1.821613916215235676e-02
2.212000000000000099e+01,1.903977893192251164e-02
2.216000000000000014e+01,1.433444812328540929e-02
2.219999999999999929e+01,1.762571303697820640e-02
2.223999999999999844e+01,1.647400173806445878e-02
2.228000000000000114e+01,1.502583819880600087e-02
2.232000000000000028e+01,9.825785767332097242e-03
2.235999999999999943e+01,1.736121358495108444e-02
2.239999999999999858e+01,1.996003136505082598e-02
2.244000000000000128e+01,8.736830581380040581e-03
2.248000000000000043e+01,2.091160025924515553e-02
2.251999999999999957e+01,1.343947244447441479e-02
2.255999999999999872e+01,1.248303889090856753e-02
2.260000000000000142e+01,1.685757845778148092e-02
2.264000000000000057e+01,1.412351921015662232e-02
2.267999999999999972e+01,1.474589784684761894e-02
2.271999999999999886e+01,1.763871998844065980e-02
2.276000000000000156e+01,8.289151711599456254e-03
2.280000000000000071e+01,1.582158761073584191e-02
2.283999999999999986e+01,9.828185184781694853e-03
2.287999999999999901e+01,1.489190800593980825e-02
2.292000000000000171e+01,7.614513629160422382e-03
2.296000000000000085e+01,1.040697687689422050e-02
2.300000000000000000e+01,1.497624979100408565e-02
2.303999999999999915e+01,1.539872668581017574e-02
2.307999999999999829e+01,1.779546676062180449e-02
2.312000000000000099e+01,5.975281149112159074e-03
2.316000000000000014e+01,2.002123495580660981e-02
2.319999999999999929e+01,8.299231988876920249e-03
2.323999999999999844e+01,1.503886132964792066e-02
2.328000000000000114e+01,1.091827485192754278e-02
2.332000000000000028e+01,6.205055731824689509e-03
2.335999999999999943e+01,1.817638720146667192e-02
2.339999999999999858e+01,8.131378806186051814e-03
2.344000000000000128e+01,1.496837451427964968e-02
2.348000000000000043e+01,1.736239386909736726e-02
2.351999999999999957e+01,1.225290726417804267e-02
2.355999999999999872e+01,1.543619651136339706e-02
2.360000000000000142e+01,1.269560797137418880e-02
2.364000000000000057e+01,1.025092760487208987e-02
2.367999999999999972e+01,1.679011040632814172e-02
2.371999999999999886e+01,1.286398438478732545e-02
2.376000000000000156e+01,7.851591864187337788e-03
2.380000000000000071e+01,1.893138931530304048e-02
2.383999999999999986e+01,2.191532020226574437e-02
2.387999999999999901e+01,9.497604180462153670e-03
2.392000000000000171e+01,1.336953163946588176e-02
2.396000000000000085e+01,1.812972780376926121e-02
2.400000000000000000e+01,1.222716159060701149e-02
2.403999999999999915e+01,1.560463878862057736e-02
2.407999999999999829e+01,1.345314519041645833e-02
2.412000000000000099e+01,1.357209493829427890e-02
2.416000000000000014e+01,1.181496405091673162e-02
2.419999999999999929e+01,1.864678922709749054e-02
2.423999999999999844e+01,1.688911398698621918e-02
2.428000000000000114e+01,1.789551588156783682e-02
2.432000000000000028e+01,1.376785399811497786e-02
2.435999999999999943e+01,2.168458480740254740e-02
2.439999999999999858e+01,1.291622075135268402e-02
2.444000000000000128e+01,8.689015516187613072e-03
2.448000000000000043e+01,1.532148182392132664e-02
2.451999999999999957e+01,1.435171529712271112e-02
2.455999999999999872e+01,8.346611726415611998e-03
2.460000000000000142e+01,1.458335434392746960e-02
2.464000000000000057e+01,1.469876553357935857e-02
2.467999999999999972e+01,1.343172983574736704e-02
2.471999999999999886e+01,8.511531734789263420e-03
2.476000000000000156e+01,7.540131850299946169e-03
2.480000000000000071e+01,1.446660063183661908e-02
2.483999999999999986e+01,1.211248159954877134e-02
2.487999999999999901e+01,1.143644525901209991e-02
2.492000000000000171e+01,9.871595810527112810e-03
2.496000000000000085e+01,9.392468476603531985e-03
2.500000000000000000e+01,7.432167457542046725e-03
2.503999999999999915e+01,1.889843371301304364e-02
2.507999999999999829e+01,1.674013462792888277e-02
2.512000000000000099e+01,1.606246468466480601e-02
2.516000000000000014e+01,1.696415064003537268e-02
2.519999999999999929e+01,7.400527604513624548e-03
2.523999999999999844e+01,9.585116877845394762e-03
2.528000000000000114e+01,1.374396908160824445e-02
2.532000000000000028e+01,9.708227791970112583e-03
2.535999999999999943e+01,5.178580389878306191e-03
2.539999999999999858e+01,1.437168050553655485e-02
2.544000000000000128e+01,1.448164626200943578e-02
2.548000000000000043e+01,1.784932282380547255e-02
2.551999999999999957e+01,2.082182001634943005e-02
2.555999999999999872e+01,1.846279976748484847e-02
2.560000000000000142e+01,4.256295823417552242e-03
2.564000000000000057e+01,1.473120987998730383e-02
2.567999999999999972e+01,1.168028528928860207e-02
2.571999999999999886e+01,1.336797289697236324e-02
2.576000000000000156e+01,1.880700508497731155e-02
2.580000000000000071e+01,1.190491974832907918e-02
2.583999999999999986e+01,2.079884386791589629e-02
2.587999999999999901e+01,1.113186448857458877e-02
2.592000000000000171e+01,1.311437057959330930e-02
2.596000000000000085e+01,1.598514514902579092e-02
2.600000000000000000e+01,1.737474591987740041e-02
2.603999999999999915e+01,9.582485502125400248e-03
2.607999999999999829e+01,1.097154150277324970e-02
2.612000000000000099e+01,1.601321528155028387e-02
2.616000000000000014e+01,1.888262791412906316e-02
2.619999999999999929e+01,7.436387749630010008e-03
2.623999999999999844e+01,1.514286688196948491e-02
2.628000000000000114e+01,1.258149042360292777e-02
2.632000000000000028e+01,1.436381905014364607e-02
2.635999999999999943e+01,1.634332878025442082e-02
2.639999999999999858e+01,1.545949000747391666e-02
2.644000000000000128e+01,5.887423807474432072e-03
2.648000000000000043e+01,1.645534449061093404e-02
2.651999999999999957e+01,1.803885745339594768e-02
2.655999999999999872e+01,1.587048104296745130e-02
2.660000000000000142e+01,1.547891389052058822e-02
2.664000000000000057e+01,1.804887712774611019e-02
2.667999999999999972e+01,2.200074256846826573e-02
2.671999999999999886e+01,1.331531009611266504e-02
2.676000000000000156e+01,1.252774606743491809e-02
2.680000000000000071e+01,6.606117979384106692e-03
2.683999999999999986e+01,1.608559218871584429e-02
2.687999999999999901e+01,1.065705295571449558e-02
2.692000000000000171e+01,1.598945822745874087e-02
2.696000000000000085e+01,1.164636839947012434e-02
2.700000000000000000e+01,1.401642585170448548e-02
2.703999999999999915e+01,1.816329251200554662e-02
2.707999999999999829e+01,2.339588104636902699e-02
2.712000000000000099e+01,2.033514912178188694e-02
2.716000000000000014e+01,1.737287144865803934e-02
2.719999999999999929e+01,1.638485648815475940e-02
2.723999999999999844e+01,1.194113236135392261e-02
2.728000000000000114e+01,1.233474701731704024e-02
2.732000000000000028e+01,1.282681590659255459e-02
2.735999999999999943e+01,1.035680942271917544e-02
2.739999999999999858e+01,8.873798015254100516e-03
2.744000000000000128e+01,1.341284650863058814e-02
2.748000000000000043e+01,1.005348154762647668e-02
2.751999999999999957e+01,1.222254267162660619e-02
2.755999999999999872e+01,7.875364991103892681e-03
2.760000000000000142e+01,1.498021906765229991e-02
2.764000000000000057e+01,1.073122302433622902e-02
2.767999999999999972e+01,1.270174037734011878e-02
2.771999999999999886e+01,1.289490345258419678e-02
2.776000000000000156e+01,1.091580520012117549e-02
2.780000000000000071e+01,2.078364572745019373e-02
2.783999999999999986e+01,1.633583327165499463e-02
2.787999999999999901e+01,1.050557356535857488e-02
2.792000000000000171e+01,1.859551461364076369e-02
2.796000000000000085e+01,1.256725618789042258e-02
2.800000000000000000e+01,1.354832521297717578e-02
2.803999999999999915e+01,1.067877793560261489e-02
2.807999999999999829e+01,1.323892991835185981e-02
2.812000000000000099e+01,1.599626280501148523e-02
2.816000000000000014e+01,1.055900187609225445e-02
2.819999999999999929e+01,1.785722053375915497e-02
2.823999999999999844e+01,1.113596644698182717e-02
2.828000000000000114e+01,6.981335518420926818e-03
2.832000000000000028e+01,1.536473064012833928e-02
2.835999999999999943e+01,1.831788124143467200e-02
2.839999999999999858e+01,1.297771123858337469e-02
2.844000000000000128e+01,1.395578130718784157e-02
2.848000000000000043e+01,8.318885705549582121e-03
2.851999999999999957e+01,1.127094567739615749e-02
2.855999999999999872e+01,1.333419212836216110e-02
2.860000000000000142e+01,1.213918278145298402e-02
2.864000000000000057e+01,1.370825007462551058e-02
2.867999999999999972e+01,1.665921934440888971e-02
2.871999999999999886e+01,1.299522291672323797e-02
2.876000000000000156e+01,1.012076788845876069e-02
2.880000000000000071e+01,1.257728527728682079e-02
2.883999999999999986e+01,5.457034114461603753e-03
2.887999999999999901e+01,1.739077518763309377e-02
2.892000000000000171e+01,1.007252508754349213e-02
2.896000000000000085e+01,8.677607954509737251e-03
2.900000000000000000e+01,1.666146043132718524e-02
2.903999999999999915e+01,1.526599785650750891e-02
2.907999999999999829e+01,1.752315272402602334e-02
2.912000000000000099e+01,1.316534184869833264e-02
2.916000000000000014e+01,1.068306670229075654e-02
2.919999999999999929e+01,1.047123432567498291e-02
2.923999999999999844e+01,7.790960169399518270e-03
2.928000000000000114e+01,1.310728093227801240e-02
2.932000000000000028e+01,1.151245564556465165e-02
2.935999999999999943e+01,9.719904076682975638e-03
2.939999999999999858e+01,1.691121502686577030e-02
2.944000000000000128e+01,1.205758832352023767e-02
2.948000000000000043e+01,3.155891631650763890e-03
2.951999999999999957e+01,7.483308183384637484e-03
2.955999999999999872e+01,9.539736441861812813e-03
2.960000000000000142e+01,9.127722879839790873e-03
2.964000000000000057e+01,1.602121686666564682e-02
2.967999999999999972e+01,2.181818173728181879e-03
2.971999999999999886e+01,8.679859519076240162e-03
2.976000000000000156e+01,1.478272101417404255e-02
2.980000000000000071e+01,1.387570964387502097e-02
2.983999999999999986e+01,9.710442335031524777e-03
2.987999999999999901e+01,6.137262775848370024e-03
2.992000000000000171e+01,7.302694938587435403e-03
2.996000000000000085e+01,9.455121887320838692e-03
3.000000000000000000e+01,1.022510134505402908e-02
3.003999999999999915e+01,1.000754035265871700e-02
3.007999999999999829e+01,8.703712144244826754e-03
3.012000000000000099e+01,1.223722239641694860e-02
3.016000000000000014e+01,1.152520906021915065e-02
3.019999999999999929e+01,1.278745809631314477e-02
3.023999999999999844e+01,1.286471313688532757e-02
3.028000000000000114e+01,1.155952065469323733e-02
3.032000000000000028e+01,1.588148070121750063e-02
3.035999999999999943e+01,8.652136796607787922e-03
3.039999999999999858e+01,2.077296523961870769e-02
3.044000000000000128e+01,9.692731882840336863e-03
3.048000000000000043e+01,9.373442626950796025e-03
3.051999999999999957e+01,2.044280423985480721e-03
3.055999999999999872e+01,1.139966799397589686e-02
3.060000000000000142e+01,1.275791499429139442e-02
3.064000000000000057e+01,6.908835511213188424e-03
3.067999999999999972e+01,6.489454993307216396e-03
3.071999999999999886e+01,1.357303542443549435e-02
3.076000000000000156e+01,9.006585097700234299e-03
3.080000000000000071e+01,1.293036332444755937e-02
3.083999999999999986e+01,1.211498407892187303e-02
3.087999999999999901e+01,8.238802299575884863e-03
3.092000000000000171e+01,1.147067440116604845e-02
3.096000000000000085e+01,1.549208765260294551e-02
3.100000000000000000e+01,1.625524483390158870e-02
3.103999999999999915e+01,1.800539667867621582e-02
3.107999999999999829e+01,7.216976877114242295e-03
3.112000000000000099e+01,1.005257718305638780e-02
3.116000000000000014e+01,8.642653787185686567e-03
3.119999999999999929e+01,3.777020775783420433e-03
3.123999999999999844e+01,1.095577967663418500e-02
3.128000000000000114e+01,7.471775374154811244e-03
3.132000000000000028e+01,1.445253479321511464e-02
3.135999999999999943e+01,6.821460545774937941e-03
3.139999999999999858e+01,1.330804018083675717e-02
3.144000000000000128e+01,8.638222787655689891e-03
3.148000000000000043e+01,1.255736063216835070e-02
3.151999999999999957e+01,5.715008484772208207e-03
3.155999999999999872e+01,1.259540315631767736e-02
3.160000000000000142e+01,1.858698396211602363e-02
3.164000000000000057e+01,5.129119763383691022e-03
3.167999999999999972e+01,3.913100949694285104e-03
3.171999999999999886e+01,1.089113030106281764e-02
3.176000000000000156e+01,3.849686508667921753e-03
3.180000000000000071e+01,1.556605433695932607e-02
3.183999999999999986e+01,7.536796853974356628e-03
3.187999999999999901e+01,7.997767801953532471e-03
3.192000000000000171e+01,1.892350240340663972e-02
3.196000000000000085e+01,6.154541225875322270e-03
3.200000000000000000e+01,0.000000000000000000e+00
3.203999999999999915e+01,9.838921049718243883e-03
3.207999999999999829e+01,1.869030141788437932e-02
3.211999999999999744e+01,1.993944808935183693e-02
3.215999999999999659e+01,1.348763429823050287e-02
3.220000000000000284e+01,1.009607702739117110e-02
3.224000000000000199e+01,1.134440445393409755e-02
3.228000000000000114e+01,2.324875609113402630e-03
3.232000000000000028e+01,1.107589071246494958e-02
3.235999999999999943e+01,1.883936510250036958e-02
3.239999999999999858e+01,1.238591275346420315e-02
3.243999999999999773e+01,1.412650848780704592e-02
3.247999999999999687e+01,8.659777530021233946e-03
3.252000000000000313e+01,9.017652374082080549e-03
3.256000000000000227e+01,8.684166766195362472e-03
3.260000000000000142e+01,1.160839115591823234e-02
3.264000000000000057e+01,8.115102926180525408e-03
3.267999999999999972e+01,1.676493320669041748e-02
3.271999999999999886e+01,1.307364517752199716e-02
3.275999999999999801e+01,1.500950940026919353e-02
3.279999999999999716e+01,1.783364132548048708e-02
3.284000000000000341e+01,1.275935918825705194e-02
3.288000000000000256e+01,1.321350252798368305e-02
3.292000000000000171e+01,1.386482622709466275e-02
3.296000000000000085e+01,2.833762334767953028e-02
3.300000000000000000e+01,1.173488521169091248e-01
3.303999999999999915e+01,1.387319761828305353e-01
3.307999999999999829e+01,3.058531617296906743e-02
3.311999999999999744e+01,7.639578024195325598e-03
3.315999999999999659e+01,4.735099239406271275e-03
3.320000000000000284e+01,1.950243754160733631e-02
3.324000000000000199e+01,1.422797008965473106e-02
3.328000000000000114e+01,1.566664920550354251e-02
3.332000000000000028e+01,1.671014806724527291e-02
3.335999999999999943e+01,2.199862445390361743e-02
3.339999999999999858e+01,1.316890074939981552e-02
3.343999999999999773e+01,1.588993490081275564e-02
3.347999999999999687e+01,1.584634650751079454e-02
3.352000000000000313e+01,1.550630459876551834e-02
3.356000000000000227e+01,1.437617536327739053e-02
3.360000000000000142e+01,1.235723203515626950e-02
3.364000000000000057e+01,1.487944648424490042e-02
3.367999999999999972e+01,9.207066491549668885e-03
3.371999999999999886e+01,9.063111880512434229e-03
3.375999999999999801e+01,9.807424863034045620e-03
3.379999999999999716e+01,1.489544208190981232e-02
3.384000000000000341e+01,8.925788761632002730e-03
3.388000000000000256e+01,1.391453267924181759e-02
3.392000000000000171e+01,9.425234230260599866e-03
3.396000000000000085e+01,1.283380340816802148e-02
3.400000000000000000e+01,9.035045721513503686e-03
3.403999999999999915e+01,5.433468267187222325e-03
3.407999999999999829e+01,9.532304903431718449e-03
3.411999999999999744e+01,6.621268184205833345e-03
3.415999999999999659e+01,5.684493388037737023e-03
3.420000000000000284e+01,1.560738903210313021e-02
3.424000000000000199e+01,1.299171267135222629e-02
3.428000000000000114e+01,9.191041856770030410e-03
3.432000000000000028e+01,9.240441412789800885e-03
3.435999999999999943e+01,1.126410286917872705e-02
3.439999999999999858e+01,1.091804872189478144e-02
3.443999999999999773e+01,1.402715788619015268e-02
3.447999999999999687e+01,1.486527819908956514e-02
3.452000000000000313e+01,2.113309704154027815e-02
3.456000000000000227e+01,1.120945367283520192e-02
3.460000000000000142e+01,9.084951097062921033e-03
3.464000000000000057e+01,7.749989253667363687e-03
3.467999999999999972e+01,9.475283649215309259e-03
3.471999999999999886e+01,6.066513086922224567e-03
3.475999999999999801e+01,1.568940165108675261e-02
3.479999999999999716e+01,1.692024212370656436e-02
3.484000000000000341e+01,1.815080921519549376e-02
3.488000000000000256e+01,1.977600996642533276e-02
3.492000000000000171e+01,1.024481329463086329e-02
3.496000000000000085e+01,1.216564754496751374e-02
3.500000000000000000e+01,1.615947038442222192e-02
3.503999999999999915e+01,1.541413527514363252e-02
3.507999999999999829e+01,1.111436334882247301e-02
3.511999999999999744e+01,7.110498293663582853e-03
3.515999999999999659e+01,1.564465851282323752e-02
3.520000000000000284e+01,1.716894525399424373e-02
3.524000000000000199e+01,1.869295856865716560e-02
3.528000000000000114e+01,1.113383640785615449e-02
3.532000000000000028e+01,9.399319731261575328e-03
3.535999999999999943e+01,1.763593251113537014e-02
3.539999999999999858e+01,1.560468866570361053e-02
3.543999999999999773e+01,1.762096858652242859e-02
3.547999999999999687e+01,1.776116658791184952e-02
3.552000000000000313e+01,1.740745732426736414e-02
3.556000000000000227e+01,1.043878158720419093e-02
3.560000000000000142e+01,1.482340993831627284e-02
3.564000000000000057e+01,1.279052532963895900e-02
3.567999999999999972e+01,1.766824053920473467e-02
3.571999999999999886e+01,1.780679772289602350e-02
3.575999999999999801e+01,1.113293488777532952e-02
3.579999999999999716e+01,1.818181839059818117e-02
3.584000000000000341e+01,1.772719453606697027e-02
3.588000000000000256e+01,1.835829155730036091e-02
3.592000000000000171e+01,2.244455172221751504e-02
3.596000000000000085e+01,1.132661713068249150e-02
3.600000000000000000e+01,1.452378942251667492e-02
3.603999999999999915e+01,1.317925717487936077e-02
3.607999999999999829e+01,1.390771339384175298e-02
3.611999999999999744e+01,1.720279188162798442e-02
3.615999999999999659e+01,1.556125877092011042e-02
3.620000000000000284e+01,2.576666348708354926e-02
3.624000000000000199e+01,2.363094949424956667e-02
3.628000000000000114e+01,1.715098445742256963e-02
3.632000000000000028e+01,1.787779945029224077e-02
3.635999999999999943e+01,1.722216623066462338e-02
3.639999999999999858e+01,1.893570172539204080e-02
3.643999999999999773e+01,2.153750450965126115e-02
3.647999999999999687e+01,2.117723088616206215e-02
3.652000000000000313e+01,1.775615408903432127e-02
3.656000000000000227e+01,2.233167138519596626e-02
3.660000000000000142e+01,2.641328129380535183e-02
3.664000000000000057e+01,2.664427392434406267e-02
3.667999999999999972e+01,2.549281830608371435e-02
3.671999999999999886e+01,2.759907221804804717e-02
3.675999999999999801e+01,2.526234827021433399e-02
3.679999999999999716e+01,2.845404935463444196e-02
3.684000000000000341e+01,2.572187114989548870e-02
3.688000000000000256e+01,1.963270944662149492e-02
3.692000000000000171e+01,2.568666577259698727e-02
3.696000000000000085e+01,2.789000478420011753e-02
3.700000000000000000e+01,2.594654619283602581e-02
3.703999999999999915e+01,3.091368726543261211e-02
3.707999999999999829e+01,3.913853782741444354e-02
3.711999999999999744e+01,3.521972310327378675e-02
3.715999999999999659e+01,4.245675876763265605e-02
3.720000000000000284e+01,3.705649533003175372e-02
3.724000000000000199e+01,4.291080903320731305e-02
3.728000000000000114e+01,4.116288845431863297e-02
3.732000000000000028e+01,4.148795620136041390e-02
3.735999999999999943e+01,4.892107709876585692e-02
3.739999999999999858e+01,4.973923131401764008e-02
3.743999999999999773e+01,5.342018793240569524e-02
3.747999999999999687e+01,6.371556388078244981e-02
3.752000000000000313e+01,6.729724637204000104e-02
3.756000000000000227e+01,7.364300449146829464e-02
3.760000000000000142e+01,8.551718755239602621e-02
3.764000000000000057e+01,9.748982367590508513e-02
3.767999999999999972e+01,9.988569024492520432e-02
3.771999999999999886e+01,1.309120438982866175e-01
3.775999999999999801e+01,1.393296954895707485e-01
3.779999999999999716e+01,1.609764593851506498e-01
3.784000000000000341e+01,1.951612482510221291e-01
3.788000000000000256e+01,2.293457633908962123e-01
3.792000000000000171e+01,2.783390190030908817e-01
3.796000000000000085e+01,3.614914603081333944e-01
3.800000000000000000e+01,4.499748729865933328e-01
3.803999999999999915e+01,5.686684008947308078e-01
3.807999999999999829e+01,7.110560777787514608e-01
3.811999999999999744e+01,8.812844276109172981e-01
3.815999999999999659e+01,9.876362890903372938e-01
3.820000000000000284e+01,1.000000000000000000e+00
3.824000000000000199e+01,9.546082817516887697e-01
3.828000000000000114e+01,8.425757258191520771e-01
3.832000000000000028e+01,7.128708058286287175e-01
3.835999999999999943e+01,5.776369134219223600e-01
3.839999999999999858e+01,4.539537783084557909e-01
3.843999999999999773e+01,3.618629330382225340e-01
3.847999999999999687e+01,2.986987550501712385e-01
3.852000000000000313e+01,2.479738751939178365e-01
3.856000000000000227e+01,1.951754595461260844e-01
3.860000000000000142e+01,1.780171309388641765e-01
3.864000000000000057e+01,1.498998580092749389e-01
3.867999999999999972e+01,1.287919113189524289e-01
3.871999999999999886e+01,1.142983838179493228e-01
3.875999999999999801e+01,1.036549261838615316e-01
3.879999999999999716e+01,8.392833267499065497e-02
3.884000000000000341e+01,7.624613021620652020e-02
3.888000000000000256e+01,7.557325397400044276e-02
3.892000000000000171e+01,6.009108968496058856e-02
3.896000000000000085e+01,6.198456154542236057e-02
3.900000000000000000e+01,6.012614262144055227e-02
3.903999999999999915e+01,4.977694836356357649e-02
3.907999999999999829e+01,4.969506342420434292e-02
3.911999999999999744e+01,3.835805382400808011e-02
3.915999999999999659e+01,4.291577893033934193e-02
3.920000000000000284e+01,3.611965260540577621e-02
3.924000000000000199e+01,3.732012006973454976e-02
3.928000000000000114e+01,3.545978404732227224e-02
3.932000000000000028e+01,3.409280794231667883e-02
3.935999999999999943e+01,3.312046498882759843e-02
3.939999999999999858e+01,3.135803404608891037e-02
3.943999999999999773e+01,3.078005033661028803e-02
3.947999999999999687e+01,3.089288004909217233e-02
3.952000000000000313e+01,2.942580766789233346e-02
3.956000000000000227e+01,2.558901909765403521e-02
3.960000000000000142e+01,2.668829467391509863e-02
3.964000000000000057e+01,2.837965689263340779e-02
3.967999999999999972e+01,2.473950006812899310e-02
3.971999999999999886e+01,2.643031442192023822e-02
3.975999999999999801e+01,1.903799279202318326e-02
3.979999999999999716e+01,3.010730159121181859e-02
3.984000000000000341e+01,1.827172780830465734e-02
3.988000000000000256e+01,2.302197597971268606e-02
3.992000000000000171e+01,2.421778678501435370e-02
3.996000000000000085e+01,2.087189260614822836e-02
4.000000000000000000e+01,2.473277803950882717e-02
4.003999999999999915e+01,2.405195847962618427e-02
4.007999999999999829e+01,2.110014943306712590e-02
4.011999999999999744e+01,1.923406078127462560e-02
4.015999999999999659e+01,1.489952911102553762e-02
4.020000000000000284e+01,1.204562487187702154e-02
4.024000000000000199e+01,2.113738476264272539e-02
4.028000000000000114e+01,1.670330434987310833e-02
4.032000000000000028e+01,2.293144016036146801e-02
4.035999999999999943e+01,2.017516668044811237e-02
4.039999999999999858e+01,1.781352623407068611e-02
4.043999999999999773e+01,1.426689063505350019e-02
4.047999999999999687e+01,9.140352833449312195e-03
4.052000000000000313e+01,1.980982282273785824e-02
4.056000000000000227e+01,1.409037639750825889e-02
4.060000000000000142e+01,2.604274621979099646e-02
4.064000000000000057e+01,1.933548410737559800e-02
4.067999999999999972e+01,2.457388607495954863e-02
4.071999999999999886e+01,1.697753501855988126e-02
4.075999999999999801e+01,1.451470149977049720e-02
4.079999999999999716e+01,2.044336863868189552e-02
4.084000000000000341e+01,1.936216165978645737e-02
4.088000000000000256e+01,1.719468623968872789e-02
4.092000000000000171e+01,1.700147197577451044e-02
4.096000000000000085e+01,1.809143153403952251e-02
4.100000000000000000e+01,2.628944382973590413e-02
4.103999999999999915e+01,1.750617908834730535e-02
4.107999999999999829e+01,2.106348542699035958e-02
4.111999999999999744e+01,1.968417960446233739e-02
4.115999999999999659e+01,1.563897712733006151e-02
4.120000000000000284e+01,1.919546117170248256e-02
4.124000000000000199e+01,1.633443162100507370e-02
4.128000000000000114e+01,1.228840682237581500e-02
4.132000000000000028e+01,1.317844597512408608e-02
4.135999999999999943e+01,8.835692655417825073e-03
4.139999999999999858e+01,1.594496952727015790e-02
4.143999999999999773e+01,1.406983698620241016e-02
4.147999999999999687e+01,1.466259934455200857e-02
4.152000000000000313e+01,1.762452983642886009e-02
4.156000000000000227e+01,1.871037771914325215e-02
4.160000000000000142e+01,1.505706690893866134e-02
4.164000000000000057e+01,1.663600029786697215e-02
4.167999999999999972e+01,1.406813555291510330e-02
4.171999999999999886e+01,1.692996852072543162e-02
4.175999999999999801e+01,1.919916675426553559e-02
4.179999999999999716e+01,1.899992178330264792e-02
4.184000000000000341e+01,1.623350684194667035e-02
4.188000000000000256e+01,1.168973601647887127e-02
4.192000000000000171e+01,1.682091361923665138e-02
4.196000000000000085e+01,1.899001419257871984e-02
4.200000000000000000e+01,1.819703773196733668e-02
4.203999999999999915e+01,1.424453071016004713e-02
4.207999999999999829e+01,1.769625658732294771e-02
4.211999999999999744e+01,1.344702087200536945e-02
4.215999999999999659e+01,1.729310537604914627e-02
4.220000000000000284e+01,1.403058884665127001e-02
4.224000000000000199e+01,1.540795588020627514e-02
4.228000000000000114e+01,1.431687965480570902e-02
4.232000000000000028e+01,1.381788976783530042e-02
4.235999999999999943e+01,2.032822570266155579e-02
4.239999999999999858e+01,2.022359438811946117e-02
4.243999999999999773e+01,1.923014797810882262e-02
4.247999999999999687e+01,2.179059072894866389e-02
4.252000000000000313e+01,2.089532258008288540e-02
4.256000000000000227e+01,2.088832102647811620e-02
4.260000000000000142e+01,2.009123112060634889e-02
4.264000000000000057e+01,2.304548388013892904e-02
4.267999999999999972e+01,1.859495526772014795e-02
4.271999999999999886e+01,1.483523970970675350e-02
4.275999999999999801e+01,2.292246123437906985e-02
4.279999999999999716e+01,1.610166751070658819e-02
4.284000000000000341e+01,1.895582211089221272e-02
4.288000000000000256e+01,2.062498128163727310e-02
4.292000000000000171e+01,1.883842950729956028e-02
4.296000000000000085e+01,1.724905695337908274e-02
4.300000000000000000e+01,1.595559037669051078e-02
4.303999999999999915e+01,1.801855937461959573e-02
4.307999999999999829e+01,2.156215547693362405e-02
4.311999999999999744e+01,2.016913919119069781e-02
4.315999999999999659e+01,2.736507681812802920e-02
4.320000000000000284e+01,2.113390057162897046e-02
4.324000000000000199e+01,2.408403879684894999e-02
4.328000000000000114e+01,2.476318717237514788e-02
4.332000000000000028e+01,2.573824148883150156e-02
4.335999999999999943e+01,3.085954543442276030e-02
4.339999999999999858e+01,3.084678343748830862e-02
4.343999999999999773e+01,3.438791049249912551e-02
4.347999999999999687e+01,3.338733216402301612e-02
4.352000000000000313e+01,3.416356117407403498e-02
4.356000000000000227e+01,3.800004541569533545e-02
4.360000000000000142e+01,3.907190596455921427e-02
4.364000000000000057e+01,3.520715406637582590e-02
4.367999999999999972e+01,3.953644897647286272e-02
4.371999999999999886e+01,4.248329483913256682e-02
4.375999999999999801e+01,4.947766352419763480e-02
4.379999999999999716e+01,4.561181406292223045e-02
4.384000000000000341e+01,5.615979735697583519e-02
4.388000000000000256e+01,6.285716255163191490e-02
4.392000000000000171e+01,6.116247862014369957e-02
4.396000000000000085e+01,7.733706407770429836e-02
4.400000000000000000e+01,7.445711017398902454e-02
4.403999999999999915e+01,9.714711303573210499e-02
4.407999999999999829e+01,1.071998160150280655e-01
4.411999999999999744e+01,1.197204135942519371e-01
4.415999999999999659e+01,1.278967592355524929e-01
4.420000000000000284e+01,1.354804698657820494e-01
4.424000000000000199e+01,1.587614611035442214e-01
4.428000000000000114e+01,1.799689159008744377e-01
4.432000000000000028e+01,2.024595441392155748e-01
4.435999999999999943e+01,2.084625287706030061e-01
4.439999999999999858e+01,2.125894304706500149e-01
4.443999999999999773e+01,2.088179167923242541e-01
4.447999999999999687e+01,2.053423089233349375e-01
4.452000000000000313e+01,1.892294011219834704e-01
4.456000000000000227e+01,1.709442300870836762e-01
4.460000000000000142e+01,1.520664239957356667e-01
4.464000000000000057e+01,1.338794307409826578e-01
4.467999999999999972e+01,1.264533799762288246e-01
4.471999999999999886e+01,1.062913024950719459e-01
4.475999999999999801e+01,1.001481506194670662e-01
4.479999999999999716e+01,8.581040304059278645e-02
4.484000000000000341e+01,7.818580071811961907e-02
4.488000000000000256e+01,7.372018023882437321e-02
4.492000000000000171e+01,5.701216682719937451e-02
4.496000000000000085e+01,5.007782826028577688e-02
4.500000000000000000e+01,4.610501800023224239e-02
4.503999999999999915e+01,4.390901490627260872e-02
4.507999999999999829e+01,3.825730062219341587e-02
4.511999999999999744e+01,3.882509775598941976e-02
4.515999999999999659e+01,2.951994420268623520e-02
4.520000000000000284e+01,3.216045421662040715e-02
4.524000000000000199e+01,3.391214881744580162e-02
4.528000000000000114e+01,2.588961947891127782e-02
4.532000000000000028e+01,2.665349733072498034e-02
4.535999999999999943e+01,3.255089219831148323e-02
4.539999999999999858e+01,1.919629402309725244e-02
4.543999999999999773e+01,2.864730313665487735e-02
4.547999999999999687e+01,2.319029669784067327e-02
4.552000000000000313e+01,1.990500441607722520e-02
4.556000000000000227e+01,1.928506009358866430e-02
4.560000000000000142e+01,1.353104957899993639e-02
4.564000000000000057e+01,1.962397582038120925e-02
4.567999999999999972e+01,1.949684148571079884e-02
4.571999999999999886e+01,1.551908884290787750e-02
4.575999999999999801e+01,2.141373771541439652e-02
4.579999999999999716e+01,1.664562173739932496e-02
4.584000000000000341e+01,1.750465652746627243e-02
4.588000000000000256e+01,2.122649276321113276e-02
4.592000000000000171e+01,1.606264583916395400e-02
4.596000000000000085e+01,1.425523415848108273e-02
4.600000000000000000e+01,1.402717601228213942e-02
4.603999999999999915e+01,1.705682633901969142e-02
4.607999999999999829e+01,1.199060757863331522e-02
4.611999999999999744e+01,1.028082404346040979e-02
4.615999999999999659e+01,1.301347010383927492e-02
4.620000000000000284e+01,1.061204990405224639e-02
4.624000000000000199e+01,1.492377480184613192e-02
4.628000000000000114e+01,1.341034610093204231e-02
4.632000000000000028e+01,1.485844555713333390e-02
4.635999999999999943e+01,1.275210691665574006e-02
4.639999999999999858e+01,1.479201756044656521e-02
4.643999999999999773e+01,1.317876333713071356e-02
4.647999999999999687e+01,1.492194429818885851e-02
4.652000000000000313e+01,1.587503646228368218e-02
4.656000000000000227e+01,1.238514965483969270e-02
4.660000000000000142e+01,1.205424449545181714e-02
4.664000000000000057e+01,9.452349105201847748e-03
4.667999999999999972e+01,1.000943535393257304e-02
4.671999999999999886e+01,1.234332857817304306e-02
4.675999999999999801e+01,1.181387098982407229e-02
4.679999999999999716e+01,9.803237243281128985e-03
4.684000000000000341e+01,1.657901051465317244e-02
4.688000000000000256e+01,9.039128642947532460e-03
4.692000000000000171e+01,1.462963127958577872e-02
4.696000000000000085e+01,1.627078870606989136e-02
4.700000000000000000e+01,1.277787978163373410e-02
4.703999999999999915e+01,9.185969330710516689e-03
4.707999999999999829e+01,1.082630246179057745e-02
4.711999999999999744e+01,1.552689042058404828e-02
4.715999999999999659e+01,1.213160916973520832e-02
4.720000000000000284e+01,1.169785597617195583e-02
4.724000000000000199e+01,1.067146742667121964e-02
4.728000000000000114e+01,1.142188578915217037e-02
4.732000000000000028e+01,8.914046230106151270e-03
4.735999999999999943e+01,8.380467096671138927e-03
4.739999999999999858e+01,8.833880770785711850e-03
4.743999999999999773e+01,5.239222418941177732e-03
4.747999999999999687e+01,8.851342830770190379e-03
4.752000000000000313e+01,8.711571491621805316e-03
4.756000000000000227e+01,1.024988027133870959e-02
4.760000000000000142e+01,1.178791422239290620e-02
4.764000000000000057e+01,9.574056408856520747e-03
4.767999999999999972e+01,1.081536040491496570e-02
4.771999999999999886e+01,1.225384308140229327e-02
4.775999999999999801e+01,9.940433979685877816e-03
4.779999999999999716e+01,5.059854231456518796e-03
4.784000000000000341e+01,6.991146160651743810e-03
4.788000000000000256e+01,8.922163229420210576e-03
4.792000000000000171e+01,6.607654695072253358e-03
4.796000000000000085e+01,9.525389642897780576e-03
4.800000000000000000e+01,1.826772863647335363e-02
4.803999999999999915e+01,1.457022082107248262e-02
4.807999999999999829e+01,9.983897270384898756e-03
4.811999999999999744e+01,1.062981718371997820e-02
4.815999999999999659e+01,1.324999743191170552e-02
4.820000000000000284e+01,1.498136193120361108e-02
4.824000000000000199e+01,1.365192192730579034e-02
4.828000000000000114e+01,6.990961904575970082e-03
4.832000000000000028e+01,5.858425607237316424e-03
4.835999999999999943e+01,1.153776092833292723e-02
4.839999999999999858e+01,1.395883820538321683e-02
4.843999999999999773e+01,1.164075601356487008e-02
4.847999999999999687e+01,1.040839326813008600e-02
4.852000000000000313e+01,6.707586555855802983e-03
4.856000000000000227e+01,7.547935928222665805e-03
4.860000000000000142e+01,1.273198785798819802e-02
4.864000000000000057e+01,1.021507745562536332e-02
4.867999999999999972e+01,1.372022454457610258e-02
4.871999999999999886e+01,1.455947412129400716e-02
4.875999999999999801e+01,1.065956419284152558e-02
4.879999999999999716e+01,1.258425821938471099e-02
4.884000000000000341e+01,1.431122375389118351e-02
4.888000000000000256e+01,1.090412272420465331e-02
4.892000000000000171e+01,5.818391773120405383e-03
4.896000000000000085e+01,8.531799985928383706e-03
4.900000000000000000e+01,1.331819519965332481e-02
4.903999999999999915e+01,1.109471536533932282e-02
4.907999999999999829e+01,1.133912956827634252e-02
4.911999999999999744e+01,8.127832122784377916e-03
4.915999999999999659e+01,1.597365694312431403e-02
4.920000000000000284e+01,1.098472777748450355e-02
4.924000000000000199e+01,1.112931518745888422e-02
4.928000000000000114e+01,1.147108110089112634e-02
4.932000000000000028e+01,1.043039733160562067e-02
4.935999999999999943e+01,1.008052586346439711e-02
4.939999999999999858e+01,5.188948340254058954e-03
4.943999999999999773e+01,7.602876119721505010e-03
4.947999999999999687e+01,1.149743027753908839e-02
4.952000000000000313e+01,1.094900512802676577e-02
4.956000000000000227e+01,1.089393873426542682e-02
4.960000000000000142e+01,6.198439501393990594e-03
4.964000000000000057e+01,8.907172309864163501e-03
4.967999999999999972e+01,1.299780471264344595e-02
4.971999999999999886e+01,1.402763244433748516e-02
4.975999999999999801e+01,9.725939989303992311e-03
4.979999999999999716e+01,7.201054160375978258e-03
4.984000000000000341e+01,9.019870748177427275e-03
4.988000000000000256e+01,7.679155885390340913e-03
4.992000000000000171e+01,1.097832371431440614e-02
4.996000000000000085e+01,1.368485587873618375e-02
5.000000000000000000e+01,1.155350163596595425e-02
5.003999999999999915e+01,1.001423285584647320e-02
5.007999999999999829e+01,9.461956579249478777e-03
5.011999999999999744e+01,2.065788978904580311e-02
5.015999999999999659e+01,9.245119530072383116e-03
5.020000000000000284e+01,4.644220680798210460e-03
5.024000000000000199e+01,1.100171721348525318e-02
5.028000000000000114e+01,9.756977989349850319e-03
5.032000000000000028e+01,1.433684254777687316e-02
5.035999999999999943e+01,1.170937838571554403e-02
5.039999999999999858e+01,1.224089544062713017e-02
5.043999999999999773e+01,1.721484160555478149e-02
5.047999999999999687e+01,9.551487162000486808e-03
5.052000000000000313e+01,1.403124920487180786e-02
5.056000000000000227e+01,5.972437391538101999e-03
5.060000000000000142e+01,1.005674205555456141e-02
5.064000000000000057e+01,1.423949830739415327e-02
5.067999999999999972e+01,1.338691455219580100e-02
5.071999999999999886e+01,1.095442743275483292e-02
5.075999999999999801e+01,1.020002006916178108e-02
5.079999999999999716e+01,1.586257700179273533e-02
5.084000000000000341e+01,1.204708964837819356e-02
5.088000000000000256e+01,1.859763703620709654e-02
5.092000000000000171e+01,6.784731607201601941e-03
5.096000000000000085e+01,8.694570796344797819e-03
5.100000000000000000e+01,1.623156016820444594e-02
5.103999999999999915e+01,1.379687142456811899e-02
5.107999999999999829e+01,1.669315257051573118e-02
5.111999999999999744e+01,1.287573871652018982e-02
5.115999999999999659e+01,1.498165531114738214e-02
5.120000000000000284e+01,1.175605155568920646e-02
5.124000000000000199e+01,1.583595289871150835e-02
5.128000000000000114e+01,9.549269053602057675e-03
5.132000000000000028e+01,8.396101548145469551e-03
5.135999999999999943e+01,9.809554582642409856e-03
5.139999999999999858e+01,7.372388664650934668e-03
5.143999999999999773e+01,8.587837652413618864e-03
5.147999999999999687e+01,1.375208182544987098e-02
5.152000000000000313e+01,9.240828112594615465e-03
5.156000000000000227e+01,8.184735769175643591e-03
5.160000000000000142e+01,1.226215973364554006e-02
5.164000000000000057e+01,1.258769147975309123e-02
5.167999999999999972e+01,1.054350566189381048e-02
5.171999999999999886e+01,1.155957414991046206e-02
5.175999999999999801e+01,1.277282086004648785e-02
5.179999999999999716e+01,1.250489084477389608e-02
5.184000000000000341e+01,7.004167168164825326e-03
5.188000000000000256e+01,1.107966402853729354e-02
5.192000000000000171e+01,1.327907710447849554e-02
5.196000000000000085e+01,1.123296411899377470e-02
5.200000000000000000e+01,1.254328569167807370e-02
5.203999999999999915e+01,1.138516289820368232e-02
5.207999999999999829e+01,1.111530562001356894e-02
5.211999999999999744e+01,1.380697584096982761e-02
5.215999999999999659e+01,8.402776285069064530e-03
5.220000000000000284e+01,1.524041978636214538e-02
5.224000000000000199e+01,1.131657094520879814e-02
5.228000000000000114e+01,1.045297634640328377e-02
5.232000000000000028e+01,1.126746132647469742e-02
5.235999999999999943e+01,1.474729349440903094e-02
5.239999999999999858e+01,9.341441767441133887e-03
5.243999999999999773e+01,6.995844264670182666e-03
5.247999999999999687e+01,1.323919961729129631e-02
5.252000000000000313e+01,1.099177810680651221e-02
5.256000000000000227e+01,7.756813591458305499e-03
5.260000000000000142e+01,1.340698220194611566e-02
5.264000000000000057e+01,1.303454296952416894e-02
5.267999999999999972e+01,1.246437480944460191e-02
5.271999999999999886e+01,1.584300169396935659e-02
5.275999999999999801e+01,1.675318413065652115e-02
5.279999999999999716e+01,1.015985728599748915e-02
5.284000000000000341e+01,1.353765791482424048e-02
5.288000000000000256e+01,1.316356618461943934e-02
5.292000000000000171e+01,1.120957084059756408e-02
5.296000000000000085e+01,1.330309727530604516e-02
5.300000000000000000e+01,1.766706377986448917e-02
5.303999999999999915e+01,1.136826461257450793e-02
5.307999999999999829e+01,1.523804641424877059e-02
5.311999999999999744e+01,1.318394707991299951e-02
5.315999999999999659e+01,1.567100330838090000e-02
5.320000000000000284e+01,9.667282596601642353e-03
5.324000000000000199e+01,9.290711813426675084e-03
5.328000000000000114e+01,1.315911629538508813e-02
5.332000000000000028e+01,1.228836075487336511e-02
5.335999999999999943e+01,1.082496916415335783e-02
5.339999999999999858e+01,1.331037254089643442e-02
5.343999999999999773e+01,1.204388349507994928e-02
5.347999999999999687e+01,9.691124578680159959e-03
5.352000000000000313e+01,9.411352150435261035e-03
5.356000000000000227e+01,1.396891552367395851e-02
5.360000000000000142e+01,1.289877799050712266e-02
5.364000000000000057e+01,1.113727761401562752e-02
5.367999999999999972e+01,8.289507344252241075e-03
5.371999999999999886e+01,1.235233484622141366e-02
5.375999999999999801e+01,1.286072341203397217e-02
5.379999999999999716e+01,1.050576036661880763e-02
5.384000000000000341e+01,7.459434455190415772e-03
5.388000000000000256e+01,8.559356979477255115e-03
5.392000000000000171e+01,1.410170821899870731e-02
5.396000000000000085e+01,1.194309652287541858e-02
5.400000000000000000e+01,6.822406431483423253e-03
5.403999999999999915e+01,1.305501833637894363e-02
5.407999999999999829e+01,8.229957406035878081e-03
5.411999999999999744e+01,1.278366323585746617e-02
5.415999999999999659e+01,7.760597641650597393e-03
5.420000000000000284e+01,1.527555516180880736e-02
5.424000000000000199e+01,1.607681732808197844e-02
5.428000000000000114e+01,1.105292498810364621e-02
5.432000000000000028e+01,1.244599654503019195e-02
5.435999999999999943e+01,1.156807699531524521e-02
5.439999999999999858e+01,1.621858048125838017e-02
5.443999999999999773e+01,1.494520268144684284e-02
5.447999999999999687e+01,1.357282251113277154e-02
5.452000000000000313e+01,1.772886536286370079e-02
5.456000000000000227e+01,1.161704941572238962e-02
5.460000000000000142e+01,8.368033925036570328e-03
5.464000000000000057e+01,1.479396541958221019e-02
5.467999999999999972e+01,1.529601560114680729e-02
5.471999999999999886e+01,1.579779014633497444e-02
5.475999999999999801e+01,1.422602706220920180e-02
5.479999999999999716e+01,1.196290100316494721e-02
5.484000000000000341e+01,1.098294719171192223e-02
5.488000000000000256e+01,8.719269828150790977e-03
5.492000000000000171e+01,1.366237038424775521e-02
5.496000000000000085e+01,1.100323465260935260e-02
5.500000000000000000e+01,1.150307961610639793e-02
5.503999999999999915e+01,1.318737004315375522e-02
5.507999999999999829e+01,1.171212842970928772e-02
5.511999999999999744e+01,1.606149005430115503e-02
5.515999999999999659e+01,1.073535338006928117e-02
5.520000000000000284e+01,8.666924139636638519e-03
5.524000000000000199e+01,1.380527278256035023e-02
5.528000000000000114e+01,1.084775129468512796e-02
5.532000000000000028e+01,1.114793722699595167e-02
5.535999999999999943e+01,1.618673199524070863e-02
5.539999999999999858e+01,1.243856928960674485e-02
5.543999999999999773e+01,1.431755626300266343e-02
5.547999999999999687e+01,1.116120268483451750e-02
5.552000000000000313e+01,1.136128326551623380e-02
5.556000000000000227e+01,8.895465558015444585e-03
5.560000000000000142e+01,1.304406512491731486e-02
5.564000000000000057e+01,1.511912696267543946e-02
5.567999999999999972e+01,1.818118066867567550e-02
5.571999999999999886e+01,1.077792192150509379e-02
5.575999999999999801e+01,1.512287202090967057e-02
5.579999999999999716e+01,1.166813221458206512e-02
5.584000000000000341e+01,1.255709414432632301e-02
5.588000000000000256e+01,1.403814087421454727e-02
5.592000000000000171e+01,9.694032911804881594e-03
5.596000000000000085e+01,1.285288303512981296e-02
5.600000000000000000e+01,1.275347425224307267e-02
5.603999999999999915e+01,1.097543474024489409e-02
5.607999999999999829e+01,8.999665914883174869e-03
5.611999999999999744e+01,1.225613964600060293e-02
5.615999999999999659e+01,1.324162206627920065e-02
5.620000000000000284e+01,1.442428220499060269e-02
5.624000000000000199e+01,1.442194539866381749e-02
5.628000000000000114e+01,1.599896096062755971e-02
5.632000000000000028e+01,1.451517110278266291e-02
5.635999999999999943e+01,1.490691388820999594e-02
5.639999999999999858e+01,1.737164283507654228e-02
5.643999999999999773e+01,9.667239531150511808e-03
5.647999999999999687e+01,1.242759709453991265e-02
5.652000000000000313e+01,1.380550415842236173e-02
5.656000000000000227e+01,1.301114662744120784e-02
5.660000000000000142e+01,1.458595551926783820e-02
5.664000000000000057e+01,1.448213361391726198e-02
5.667999999999999972e+01,1.803092601987986432e-02
5.671999999999999886e+01,1.644565097225681241e-02
5.675999999999999801e+01,1.732826909064306281e-02
5.679999999999999716e+01,1.742079724587256712e-02
5.684000000000000341e+01,1.237925793390328572e-02
5.688000000000000256e+01,1.444576955789161725e-02
5.692000000000000171e+01,1.424128978482448390e-02
5.696000000000000085e+01,1.522125525749719842e-02
5.700000000000000000e+01,1.452258989215328595e-02
5.703999999999999915e+01,1.283638101372160459e-02
5.707999999999999829e+01,2.033148503695872758e-02
5.711999999999999744e+01,1.203003133517688283e-02
5.715999999999999659e+01,1.281116376463607535e-02
5.720000000000000284e+01,1.635636959424674117e-02
5.724000000000000199e+01,1.684076989968124813e-02
5.728000000000000114e+01,1.653508018750644848e-02
5.732000000000000028e+01,1.109532295368022628e-02
5.735999999999999943e+01,1.345470393082557996e-02
5.739999999999999858e+01,1.887433856949099348e-02
5.743999999999999773e+01,1.600064930961592885e-02
5.747999999999999687e+01,1.490376580460463229e-02
5.752000000000000313e+01,2.081620640159508040e-02
5.756000000000000227e+01,1.497988643909891129e-02
5.760000000000000142e+01,1.842360608063358871e-02
5.764000000000000057e+01,1.722689197097700478e-02
5.767999999999999972e+01,1.800443711620034609e-02
5.771999999999999886e+01,1.601735696685199772e-02
5.775999999999999801e+01,1.639944310871761790e-02
5.779999999999999716e+01,1.855833496914528064e-02
5.784000000000000341e+01,1.252262964700767700e-02
5.788000000000000256e+01,1.280516105656575275e-02
5.792000000000000171e+01,1.575303902324404898e-02
5.796000000000000085e+01,1.593629166812437700e-02
5.800000000000000000e+01,1.671162887264967395e-02
5.803999999999999915e+01,1.294525904195887971e-02
5.807999999999999829e+01,1.529967239757046467e-02
5.811999999999999744e+01,1.656781535622353640e-02
5.815999999999999659e+01,1.605860058391376383e-02
5.820000000000000284e+01,1.821473233696020710e-02
5.824000000000000199e+01,1.760623873644464460e-02
5.828000000000000114e+01,1.502293386864836724e-02
5.832000000000000028e+01,1.461134170583328583e-02
5.835999999999999943e+01,1.321220588018574664e-02
5.839999999999999858e+01,1.655167854560560953e-02
5.843999999999999773e+01,1.702779907342254553e-02
5.847999999999999687e+01,1.839218439048895953e-02
5.852000000000000313e+01,1.294414710678212788e-02
5.856000000000000227e+01,1.282707886410604237e-02
5.860000000000000142e+01,1.636262471493274417e-02
5.864000000000000057e+01,1.900935363251531410e-02
5.867999999999999972e+01,1.464620640846902959e-02
5.871999999999999886e+01,1.502166763918842858e-02
5.875999999999999801e+01,1.559430629792666299e-02
5.879999999999999716e+01,1.488322095986044542e-02
5.884000000000000341e+01,1.515912713155661944e-02
5.888000000000000256e+01,1.889019384228677115e-02
5.892000000000000171e+01,1.590756466821885776e-02
5.896000000000000085e+01,1.865081153521403259e-02
5.900000000000000000e+01,1.665489773538319715e-02
5.903999999999999915e+01,1.939759235401624857e-02
5.907999999999999829e+01,1.779603334215731567e-02
5.911999999999999744e+01,1.609547143342068484e-02
5.915999999999999659e+01,1.715898270248737700e-02
5.920000000000000284e+01,1.377951356609653788e-02
5.924000000000000199e+01,1.602719367765240155e-02
5.928000000000000114e+01,1.669496945389407558e-02
5.932000000000000028e+01,1.459811975405541501e-02
5.935999999999999943e+01,1.477170940256965041e-02
5.939999999999999858e+01,1.721573839489906957e-02
5.943999999999999773e+01,1.650023485212549074e-02
5.947999999999999687e+01,1.756153683732978796e-02
5.952000000000000313e+01,1.408113161942249961e-02
5.956000000000000227e+01,1.770877703344568913e-02
5.960000000000000142e+01,1.709089551933893822e-02
5.964000000000000057e+01,1.726255190153551389e-02
5.967999999999999972e+01,1.624921094845019343e-02
5.971999999999999886e+01,1.582795435988799265e-02
5.975999999999999801e+01,1.767713707430151188e-02
5.979999999999999716e+01,1.370116465625859439e-02
5.984000000000000341e+01,1.821541749731532545e-02
5.988000000000000256e+01,1.591724758331647394e-02
5.992000000000000171e+01,1.430988877250452020e-02
5.996000000000000085e+01,1.329461429898933129e-02
