5.0400,0.024
5.0800,-0.002
5.1200,-0.117
5.1600,0.343
5.2000,0.166
5.2400,0.132
5.2800,0.194
5.3200,0.155
5.3600,0.063
5.4000,0.190
5.4400,0.115
5.4800,0.464
5.5200,-0.020
5.5600,0.412
5.6000,0.398
5.6400,0.249
5.6800,0.180
5.7200,-0.047
5.7600,0.094
5.8000,0.070
5.8400,0.291
5.8800,0.323
5.9200,0.012
5.9600,0.069
6.0000,0.063
6.0400,0.194
6.0800,0.182
6.1200,0.050
6.1600,-0.095
6.2000,-0.123
6.2400,0.000
6.2800,0.128
6.3200,0.218
6.3600,0.187
6.4000,-0.029
6.4400,-0.018
6.4800,0.071
6.5200,-0.092
6.5600,-0.116
6.6000,-0.077
6.6400,-0.049
6.6800,-0.027
6.7200,-0.117
6.7600,-0.036
6.8000,-0.031
6.8400,0.027
6.8800,-0.021
6.9200,-0.331
6.9600,0.054
7.0000,-0.002
7.0400,-0.100
7.0800,0.039
7.1200,-0.046
7.1600,-0.093
7.2000,-0.102
7.2400,-0.112
7.2800,-0.030
7.3200,-0.072
7.3600,-0.041
7.4000,0.071
7.4400,0.040
7.4800,0.072
7.5200,0.108
7.5600,0.110
7.6000,0.026
7.6400,0.006
7.6800,-0.106
7.7200,0.179
7.7600,-0.073
7.8000,-0.106
7.8400,-0.091
7.8800,-0.106
7.9200,-0.066
7.9600,0.025
8.0000,0.092
8.0400,0.121
8.0800,0.216
8.1200,0.046
8.1600,0.057
8.2000,0.037
8.2400,0.021
8.2800,-0.041
8.3200,-0.091
8.3600,-0.026
8.4000,-0.066
8.4400,-0.100
8.4800,0.034
8.5200,-0.069
8.5600,0.048
8.6000,0.023
8.6400,-0.082
8.6800,0.003
8.7200,-0.101
8.7600,-0.078
8.8000,-0.008
8.8400,0.066
8.8800,0.032
8.9200,0.022
8.9600,-0.073
9.0000,0.125
9.0400,0.066
9.0800,0.084
9.1200,0.010
9.1600,0.149
9.2000,0.159
9.2400,-0.204
9.2800,-0.072
9.3200,0.074
9.3600,0.008
9.4000,-0.128
9.4400,-0.010
9.4800,-0.060
9.5200,-0.014
9.5600,0.017
9.6000,0.155
9.6400,0.070
9.6800,-0.038
9.7200,0.011
9.7600,-0.091
9.8000,0.060
9.8400,0.143
9.8800,-0.046
9.9200,0.093
9.9600,-0.038
10.0000,-0.132
10.0400,0.029
10.0800,0.095
10.1200,0.101
10.1600,-0.028
10.2000,0.095
10.2400,-0.123
10.2800,0.100
10.3200,-0.107
10.3600,0.122
10.4000,0.121
10.4400,0.150
10.4800,-0.046
10.5200,-0.095
10.5600,0.013
10.6000,0.063
10.6400,0.129
10.6800,0.138
10.7200,-0.060
10.7600,0.114
10.8000,0.074
10.8400,0.249
10.8800,-0.034
10.9200,-0.038
10.9600,-0.001
11.0000,-0.043
11.0400,0.004
11.0800,-0.065
11.1200,-0.063
11.1600,-0.019
11.2000,-0.009
11.2400,0.093
11.2800,0.207
11.3200,0.175
11.3600,0.042
11.4000,0.070
11.4400,0.062
11.4800,-0.194
11.5200,-0.077
11.5600,0.147
11.6000,0.153
11.6400,0.112
11.6800,0.026
11.7200,0.022
11.7600,0.044
11.8000,-0.090
11.8400,0.077
11.8800,0.173
11.9200,0.023
11.9600,-0.016
12.0000,-0.010
12.0400,-0.051
12.0800,0.045
12.1200,-0.143
12.1600,0.025
12.2000,0.024
12.2400,-0.032
12.2800,-0.105
12.3200,0.033
12.3600,0.085
12.4000,0.006
12.4400,0.103
12.4800,0.096
12.5200,-0.035
12.5600,-0.158
12.6000,0.037
12.6400,-0.001
12.6800,0.060
12.7200,0.080
12.7600,0.068
12.8000,0.000
12.8400,-0.034
12.8800,-0.060
12.9200,-0.041
12.9600,-0.044
13.0000,-0.009
13.0400,-0.218
13.0800,0.007
13.1200,-0.027
13.1600,0.023
13.2000,0.000
13.2400,-0.019
13.2800,0.095
13.3200,-0.077
13.3600,-0.022
13.4000,0.055
13.4400,-0.028
13.4800,0.025
13.5200,-0.060
13.5600,-0.089
13.6000,-0.003
13.6400,0.132
13.6800,-0.018
13.7200,0.136
13.7600,0.052
13.8000,0.035
13.8400,0.020
13.8800,0.032
13.9200,-0.083
13.9600,0.100
14.0000,0.083
14.0400,0.148
14.0800,-0.002
14.1200,0.188
14.1600,0.256
14.2000,-0.101
14.2400,0.000
14.2800,0.095
14.3200,-0.013
14.3600,0.092
14.4000,-0.014
14.4400,0.022
14.4800,0.297
14.5200,0.110
14.5600,0.056
14.6000,0.186
14.6400,0.005
14.6800,-0.171
14.7200,-0.019
14.7600,0.095
14.8000,0.190
14.8400,0.037
14.8800,-0.046
14.9200,0.018
14.9600,0.016
15.0000,0.191
15.0400,0.204
15.0800,0.184
15.1200,-0.030
15.1600,0.185
15.2000,0.105
15.2400,0.112
15.2800,0.022
15.3200,0.252
15.3600,0.118
15.4000,-0.017
15.4400,-0.004
15.4800,-0.035
15.5200,0.039
15.5600,0.017
15.6000,0.125
15.6400,-0.012
15.6800,0.149
15.7200,-0.031
15.7600,0.037
15.8000,-0.032
15.8400,-0.091
15.8800,0.024
15.9200,0.053
15.9600,0.099
16.0000,-0.011
16.0400,0.160
16.0800,0.175
16.1200,0.045
16.1600,0.060
16.2000,0.055
16.2400,-0.032
16.2800,0.021
16.3200,0.029
16.3600,0.046
16.4000,-0.054
16.4400,0.108
16.4800,-0.010
16.5200,-0.091
16.5600,0.010
16.6000,0.019
16.6400,0.006
16.6800,-0.072
16.7200,0.102
16.7600,0.165
16.8000,-0.038
16.8400,-0.031
16.8800,0.029
16.9200,0.095
16.9600,0.058
17.0000,0.052
17.0400,-0.035
17.0800,0.057
17.1200,-0.177
17.1600,0.097
17.2000,-0.092
17.2400,-0.104
17.2800,0.154
17.3200,-0.015
17.3600,0.041
17.4000,0.045
17.4400,-0.036
17.4800,-0.031
17.5200,-0.055
17.5600,0.119
17.6000,0.035
17.6400,-0.036
17.6800,0.004
17.7200,-0.023
17.7600,0.020
17.8000,0.049
17.8400,0.056
17.8800,-0.068
17.9200,-0.082
17.9600,0.182
18.0000,-0.049
18.0400,0.087
18.0800,-0.075
18.1200,0.023
18.1600,0.009
18.2000,0.001
18.2400,-0.038
18.2800,-0.156
18.3200,0.041
18.3600,-0.227
18.4000,0.019
18.4400,-0.020
18.4800,-0.092
18.5200,0.014
18.5600,0.007
18.6000,-0.039
18.6400,-0.012
18.6800,0.038
18.7200,-0.032
18.7600,0.001
18.8000,-0.034
18.8400,0.101
18.8800,-0.062
18.9200,-0.053
18.9600,-0.067
19.0000,-0.051
19.0400,-0.082
19.0800,-0.005
19.1200,0.008
19.1600,-0.080
19.2000,-0.082
19.2400,-0.012
19.2800,-0.083
19.3200,0.037
19.3600,0.051
19.4000,0.001
19.4400,0.002
19.4800,0.018
19.5200,0.077
19.5600,-0.038
19.6000,0.052
19.6400,0.097
19.6800,-0.008
19.7200,-0.098
19.7600,0.005
19.8000,0.145
19.8400,0.006
19.8800,0.009
19.9200,0.004
19.9600,0.034
20.0000,0.004
20.0400,0.042
20.0800,-0.067
20.1200,0.073
20.1600,-0.076
20.2000,-0.035
20.2400,-0.095
20.2800,0.034
20.3200,0.012
20.3600,0.046
20.4000,0.063
20.4400,0.001
20.4800,0.062
20.5200,0.168
20.5600,0.003
20.6000,-0.043
20.6400,-0.079
20.6800,0.006
20.7200,0.038
20.7600,0.005
20.8000,0.013
20.8400,0.042
20.8800,0.106
20.9200,0.098
20.9600,0.014
21.0000,0.133
21.0400,0.104
21.0800,-0.056
21.1200,0.101
21.1600,0.152
21.2000,-0.039
21.2400,0.113
21.2800,0.055
21.3200,-0.070
21.3600,-0.018
21.4000,0.014
21.4400,-0.078
21.4800,-0.074
21.5200,0.091
21.5600,0.083
21.6000,0.116
21.6400,0.016
21.6800,0.028
21.7200,-0.076
21.7600,-0.008
21.8000,-0.010
21.8400,0.089
21.8800,0.103
21.9200,0.019
21.9600,0.058
22.0000,0.047
22.0400,-0.057
22.0800,0.011
22.1200,-0.027
22.1600,0.070
22.2000,-0.117
22.2400,0.073
22.2800,-0.033
22.3200,0.057
22.3600,-0.078
22.4000,-0.103
22.4400,0.077
22.4800,0.000
22.5200,0.015
22.5600,0.036
22.6000,0.156
22.6400,0.057
22.6800,0.086
22.7200,0.091
22.7600,0.158
22.8000,0.072
22.8400,-0.046
22.8800,0.040
22.9200,-0.007
22.9600,-0.012
23.0000,-0.020
23.0400,0.172
23.0800,0.123
23.1200,0.034
23.1600,-0.025
23.2000,-0.002
23.2400,0.165
23.2800,0.131
23.3200,0.150
23.3600,-0.077
23.4000,0.019
23.4400,0.093
23.4800,0.115
23.5200,0.061
23.5600,0.113
23.6000,0.064
23.6400,-0.179
23.6800,-0.076
23.7200,0.123
23.7600,-0.080
23.8000,0.224
23.8400,0.147
23.8800,0.106
23.9200,-0.037
23.9600,0.047
24.0000,0.158
24.0400,0.089
24.0800,-0.079
24.1200,-0.029
24.1600,0.014
24.2000,-0.064
24.2400,-0.069
24.2800,0.012
24.3200,0.132
24.3600,-0.033
24.4000,-0.125
24.4400,0.143
24.4800,-0.049
24.5200,0.049
24.5600,-0.115
24.6000,0.196
24.6400,-0.036
24.6800,0.004
24.7200,-0.049
24.7600,-0.102
24.8000,0.047
24.8400,0.064
24.8800,-0.040
24.9200,0.011
24.9600,-0.014
25.0000,0.045
25.0400,-0.051
25.0800,-0.123
25.1200,0.050
25.1600,-0.019
25.2000,-0.076
25.2400,-0.010
25.2800,-0.014
25.3200,-0.048
25.3600,-0.019
25.4000,-0.021
25.4400,0.061
25.4800,0.075
25.5200,0.051
25.5600,-0.074
25.6000,-0.076
25.6400,0.031
25.6800,0.034
25.7200,0.023
25.7600,-0.067
25.8000,0.122
25.8400,0.064
25.8800,-0.039
25.9200,0.167
25.9600,0.231
26.0000,0.232
26.0400,0.216
26.0800,0.422
26.1200,0.453
26.1600,0.493
26.2000,0.399
26.2400,0.360
26.2800,0.065
26.3200,0.147
26.3600,0.034
26.4000,-0.002
26.4400,0.007
26.4800,0.054
26.5200,-0.141
26.5600,-0.051
26.6000,-0.018
26.6400,-0.004
26.6800,0.096
26.7200,0.082
26.7600,0.014
26.8000,-0.073
26.8400,-0.034
26.8800,0.087
26.9200,0.013
26.9600,0.097
27.0000,-0.036
27.0400,0.039
27.0800,0.048
27.1200,-0.065
27.1600,0.024
27.2000,-0.137
27.2400,0.031
27.2800,0.025
27.3200,-0.024
27.3600,0.027
27.4000,0.122
27.4400,0.007
27.4800,-0.067
27.5200,-0.019
27.5600,0.003
27.6000,-0.080
27.6400,-0.002
27.6800,-0.121
27.7200,0.038
27.7600,0.049
27.8000,-0.004
27.8400,-0.001
27.8800,0.070
27.9200,-0.051
27.9600,0.049
28.0000,0.108
28.0400,0.057
28.0800,-0.018
28.1200,0.036
28.1600,0.080
28.2000,0.097
28.2400,-0.138
28.2800,0.095
28.3200,-0.015
28.3600,0.092
28.4000,-0.053
28.4400,-0.089
28.4800,0.042
28.5200,0.105
28.5600,0.110
28.6000,-0.015
28.6400,-0.061
28.6800,0.049
28.7200,0.105
28.7600,0.039
28.8000,-0.059
28.8400,-0.045
28.8800,0.014
28.9200,0.037
28.9600,0.124
29.0000,0.154
29.0400,-0.048
29.0800,0.035
29.1200,-0.145
29.1600,0.023
29.2000,-0.095
29.2400,0.064
29.2800,-0.121
29.3200,-0.047
29.3600,-0.063
29.4000,-0.092
29.4400,0.059
29.4800,-0.041
29.5200,-0.026
29.5600,-0.011
29.6000,-0.023
29.6400,-0.154
29.6800,0.025
29.7200,0.037
29.7600,0.034
29.8000,-0.068
29.8400,0.020
29.8800,-0.021
29.9200,0.072
29.9600,0.029
30.0000,-0.069
30.0400,0.073
30.0800,0.068
30.1200,-0.008
30.1600,0.042
30.2000,0.062
30.2400,-0.041
30.2800,-0.010
30.3200,0.076
30.3600,0.028
30.4000,-0.027
30.4400,-0.021
30.4800,-0.067
30.5200,-0.019
30.5600,0.032
30.6000,-0.048
30.6400,0.097
30.6800,0.023
30.7200,0.017
30.7600,-0.066
30.8000,-0.009
30.8400,0.059
30.8800,0.034
30.9200,-0.053
30.9600,0.004
31.0000,-0.025
31.0400,-0.049
31.0800,-0.035
31.1200,-0.065
31.1600,-0.017
31.2000,0.005
31.2400,-0.007
31.2800,-0.034
31.3200,-0.006
31.3600,0.068
31.4000,0.060
31.4400,0.069
31.4800,-0.021
31.5200,0.089
31.5600,0.099
31.6000,0.075
31.6400,0.043
31.6800,0.063
31.7200,0.129
31.7600,0.005
31.8000,0.020
31.8400,-0.064
31.8800,-0.024
31.9200,0.018
31.9600,0.019
32.0000,0.057
32.0400,-0.066
32.0800,-0.063
32.1200,0.017
32.1600,-0.063
32.2000,0.046
32.2400,0.023
32.2800,0.114
32.3200,-0.002
32.3600,-0.041
32.4000,0.076
32.4400,-0.041
32.4800,0.135
32.5200,-0.007
32.5600,0.154
32.6000,-0.021
32.6400,0.115
32.6800,0.126
32.7200,0.018
32.7600,0.068
32.8000,0.076
32.8400,-0.108
32.8800,-0.052
32.9200,-0.062
32.9600,0.000
33.0000,0.066
33.0400,0.257
33.0800,0.712
33.1200,0.540
33.1600,0.002
33.2000,0.066
33.2400,-0.062
33.2800,-0.175
33.3200,0.143
33.3600,0.155
33.4000,0.042
33.4400,-0.023
33.4800,0.078
33.5200,-0.029
33.5600,0.074
33.6000,0.011
33.6400,0.130
33.6800,0.081
33.7200,-0.071
33.7600,0.017
33.8000,0.041
33.8400,0.057
33.8800,-0.057
33.9200,0.001
33.9600,0.041
34.0000,-0.062
34.0400,-0.064
34.0800,0.066
34.1200,0.010
34.1600,-0.043
34.2000,0.088
34.2400,0.001
34.2800,-0.012
34.3200,0.013
34.3600,0.009
34.4000,0.012
34.4400,0.058
34.4800,0.024
34.5200,0.104
34.5600,-0.020
34.6000,0.056
34.6400,0.041
34.6800,-0.059
34.7200,-0.055
34.7600,0.096
34.8000,0.087
34.8400,0.011
34.8800,-0.007
34.9200,0.062
34.9600,-0.006
35.0000,0.080
35.0400,0.056
35.0800,0.036
35.1200,0.014
35.1600,-0.014
35.2000,0.008
35.2400,0.111
35.2800,-0.047
35.3200,0.005
35.3600,-0.084
35.4000,0.147
35.4400,0.049
35.4800,-0.063
35.5200,0.010
35.5600,0.039
35.6000,0.042
35.6400,-0.030
35.6800,0.003
35.7200,0.048
35.7600,-0.007
35.8000,-0.025
35.8400,-0.003
35.8800,-0.080
35.9200,0.064
35.9600,0.172
36.0000,0.046
36.0400,-0.101
36.0800,-0.054
36.1200,-0.046
36.1600,-0.058
36.2000,0.010
36.2400,-0.038
36.2800,-0.005
36.3200,-0.091
36.3600,0.054
36.4000,-0.061
36.4400,-0.038
36.4800,-0.052
36.5200,-0.018
36.5600,-0.026
36.6000,0.004
36.6400,-0.069
36.6800,0.028
36.7200,0.085
36.7600,-0.007
36.8000,0.058
36.8400,0.034
36.8800,-0.006
36.9200,0.072
36.9600,0.007
37.0000,0.022
37.0400,-0.092
37.0800,0.035
37.1200,-0.010
37.1600,0.156
37.2000,0.062
37.2400,-0.054
37.2800,-0.078
37.3200,0.050
37.3600,0.035
37.4000,-0.086
37.4400,0.053
37.4800,0.090
37.5200,0.053
37.5600,0.034
37.6000,0.080
37.6400,-0.036
37.6800,0.081
37.7200,-0.109
37.7600,-0.037
37.8000,-0.033
37.8400,-0.056
37.8800,-0.048
37.9200,-0.029
37.9600,-0.093
38.0000,0.021
38.0400,-0.024
38.0800,-0.040
38.1200,-0.050
38.1600,0.062
38.2000,0.049
38.2400,0.015
38.2800,-0.034
38.3200,0.114
38.3600,0.006
38.4000,-0.035
38.4400,0.010
38.4800,-0.037
38.5200,-0.050
38.5600,0.024
38.6000,0.028
38.6400,0.042
38.6800,-0.017
38.7200,-0.029
38.7600,-0.023
38.8000,0.016
38.8400,0.039
38.8800,-0.040
38.9200,-0.019
38.9600,-0.066
39.0000,0.014
39.0400,-0.020
39.0800,0.037
39.1200,0.123
39.1600,-0.070
39.2000,0.026
39.2400,0.015
39.2800,-0.016
39.3200,-0.011
39.3600,-0.016
39.4000,0.007
39.4400,-0.033
39.4800,0.002
39.5200,0.033
39.5600,-0.042
39.6000,0.019
39.6400,0.074
39.6800,-0.075
39.7200,-0.062
39.7600,0.068
39.8000,-0.041
39.8400,-0.048
39.8800,0.057
39.9200,0.102
39.9600,-0.055
40.0000,0.016
40.0400,-0.077
40.0800,-0.016
40.1200,-0.013
40.1600,0.017
40.2000,0.051
40.2400,0.056
40.2800,0.071
40.3200,0.048
40.3600,-0.010
40.4000,-0.036
40.4400,0.017
40.4800,0.013
40.5200,0.049
40.5600,0.064
40.6000,0.087
40.6400,0.071
40.6800,0.175
40.7200,-0.016
40.7600,0.061
40.8000,0.079
40.8400,-0.041
40.8800,0.010
40.9200,0.056
40.9600,0.093
41.0000,0.045
41.0400,-0.017
41.0800,0.011
41.1200,-0.035
41.1600,0.050
41.2000,-0.059
41.2400,-0.052
41.2800,-0.010
41.3200,0.084
41.3600,-0.075
41.4000,-0.005
41.4400,-0.051
41.4800,-0.011
41.5200,-0.070
41.5600,0.022
41.6000,-0.056
41.6400,0.048
41.6800,-0.005
41.7200,0.005
41.7600,0.069
41.8000,-0.014
41.8400,-0.014
41.8800,-0.035
41.9200,-0.033
41.9600,0.046
42.0000,-0.054
42.0400,-0.047
42.0800,0.056
42.1200,-0.065
42.1600,-0.050
42.2000,-0.051
42.2400,-0.032
42.2800,-0.054
42.3200,0.038
42.3600,-0.016
42.4000,-0.029
42.4400,-0.031
42.4800,-0.045
42.5200,-0.019
42.5600,-0.021
42.6000,-0.040
42.6400,0.012
42.6800,0.068
42.7200,-0.041
42.7600,-0.040
42.8000,-0.003
42.8400,-0.009
42.8800,-0.007
42.9200,-0.014
42.9600,0.062
43.0000,0.048
43.0400,0.022
43.0800,-0.028
43.1200,0.010
43.1600,0.018
43.2000,-0.050
43.2400,-0.022
43.2800,0.040
43.3200,-0.019
43.3600,0.008
43.4000,0.065
43.4400,0.033
43.4800,0.011
43.5200,-0.041
43.5600,0.047
43.6000,0.078
43.6400,-0.009
43.6800,-0.109
43.7200,0.003
43.7600,0.028
43.8000,0.100
43.8400,-0.008
43.8800,-0.001
43.9200,0.008
43.9600,-0.039
44.0000,0.022
44.0400,-0.013
44.0800,-0.047
44.1200,0.031
44.1600,-0.052
44.2000,0.022
44.2400,-0.043
44.2800,-0.048
44.3200,0.007
44.3600,-0.058
44.4000,-0.003
44.4400,0.000
44.4800,-0.048
44.5200,0.000
44.5600,-0.036
44.6000,-0.006
44.6400,-0.029
44.6800,0.049
44.7200,-0.026
44.7600,-0.051
44.8000,0.021
44.8400,0.059
44.8800,0.040
44.9200,0.052
44.9600,0.065
45.0000,-0.082
45.0400,0.025
45.0800,0.052
45.1200,0.023
45.1600,-0.054
45.2000,-0.012
45.2400,0.042
45.2800,0.058
45.3200,-0.043
45.3600,-0.022
45.4000,-0.018
45.4400,-0.021
45.4800,0.083
45.5200,0.024
45.5600,0.089
45.6000,0.014
45.6400,-0.047
45.6800,-0.022
45.7200,-0.074
45.7600,0.046
45.8000,-0.048
45.8400,0.014
45.8800,0.030
45.9200,-0.049
45.9600,-0.021
46.0000,-0.005
46.0400,-0.037
46.0800,0.041
46.1200,0.072
46.1600,-0.063
46.2000,-0.047
46.2400,-0.023
46.2800,-0.005
46.3200,0.029
46.3600,-0.007
46.4000,-0.029
46.4400,-0.043
46.4800,0.061
46.5200,0.020
46.5600,0.008
46.6000,0.004
46.6400,-0.017
46.6800,0.021
46.7200,0.099
46.7600,-0.060
46.8000,-0.046
46.8400,-0.004
46.8800,0.022
46.9200,0.047
46.9600,0.060
47.0000,0.021
47.0400,0.048
47.0800,0.026
47.1200,0.032
47.1600,0.006
47.2000,-0.050
47.2400,-0.005
47.2800,-0.031
47.3200,0.035
47.3600,0.002
47.4000,-0.068
47.4400,0.023
47.4800,0.035
47.5200,-0.076
47.5600,-0.025
47.6000,-0.045
47.6400,0.051
47.6800,-0.071
47.7200,0.101
47.7600,0.048
47.8000,0.006
47.8400,0.037
47.8800,-0.003
47.9200,0.070
47.9600,-0.009
48.0000,-0.013
48.0400,0.083
48.0800,-0.012
48.1200,-0.044
48.1600,-0.001
48.2000,-0.012
48.2400,0.043
48.2800,0.017
48.3200,0.006
48.3600,0.002
48.4000,-0.018
48.4400,-0.015
48.4800,0.039
48.5200,0.055
48.5600,0.019
48.6000,-0.059
48.6400,-0.017
48.6800,-0.032
48.7200,-0.013
48.7600,0.001
48.8000,-0.081
48.8400,0.052
48.8800,-0.104
48.9200,-0.014
48.9600,-0.025
49.0000,0.008
49.0400,-0.131
49.0800,0.012
49.1200,0.030
49.1600,-0.102
49.2000,-0.007
49.2400,-0.015
49.2800,-0.008
49.3200,-0.045
49.3600,-0.016
49.4000,0.011
49.4400,-0.004
49.4800,-0.044
49.5200,-0.004
49.5600,0.019
49.6000,0.071
49.6400,-0.044
49.6800,-0.009
49.7200,0.032
49.7600,0.058
49.8000,-0.016
49.8400,-0.055
49.8800,0.055
49.9200,0.038
49.9600,0.046
50.0000,0.009
50.0400,-0.071
50.0800,-0.015
50.1200,0.064
50.1600,-0.003
50.2000,-0.056
50.2400,0.052
50.2800,0.049
50.3200,0.013
50.3600,0.029
50.4000,0.019
50.4400,0.017
50.4800,-0.006
50.5200,-0.043
50.5600,0.051
50.6000,0.020
50.6400,0.052
50.6800,0.073
50.7200,-0.007
50.7600,-0.043
50.8000,-0.011
50.8400,0.024
50.8800,0.006
50.9200,0.045
50.9600,0.039
51.0000,-0.073
51.0400,-0.018
51.0800,0.002
51.1200,-0.034
51.1600,0.007
51.2000,-0.004
51.2400,0.011
51.2800,0.072
51.3200,0.114
51.3600,0.029
51.4000,-0.018
51.4400,0.025
51.4800,-0.080
51.5200,-0.031
51.5600,-0.084
51.6000,0.078
51.6400,-0.007
51.6800,0.009
51.7200,0.106
51.7600,0.108
51.8000,-0.002
51.8400,-0.042
51.8800,-0.022
51.9200,-0.009
51.9600,0.011
52.0000,0.071
52.0400,-0.023
52.0800,0.008
52.1200,0.034
52.1600,-0.027
52.2000,0.008
52.2400,-0.042
52.2800,-0.010
52.3200,-0.031
52.3600,-0.012
52.4000,-0.023
52.4400,-0.042
52.4800,-0.002
52.5200,0.044
52.5600,0.046
52.6000,0.058
52.6400,0.019
52.6800,0.012
52.7200,0.008
52.7600,-0.009
52.8000,0.019
52.8400,0.081
52.8800,0.041
52.9200,-0.010
52.9600,-0.042
53.0000,0.004
53.0400,-0.095
53.0800,0.050
53.1200,0.024
53.1600,-0.041
53.2000,0.057
53.2400,0.013
53.2800,0.030
53.3200,0.104
53.3600,-0.015
53.4000,0.044
53.4400,0.011
53.4800,0.042
53.5200,0.087
53.5600,0.042
53.6000,0.009
53.6400,0.032
53.6800,0.007
53.7200,0.038
53.7600,0.122
53.8000,0.015
53.8400,0.052
53.8800,0.023
53.9200,-0.026
53.9600,-0.032
54.0000,-0.037
54.0400,-0.062
54.0800,0.033
54.1200,-0.013
54.1600,-0.001
54.2000,-0.043
54.2400,0.002
54.2800,-0.002
54.3200,-0.047
54.3600,0.060
54.4000,-0.010
54.4400,0.107
54.4800,0.043
54.5200,0.003
54.5600,0.023
54.6000,0.008
54.6400,-0.058
54.6800,0.006
54.7200,-0.026
54.7600,0.018
54.8000,-0.022
54.8400,0.006
54.8800,-0.018
54.9200,-0.035
54.9600,0.048
55.0000,-0.027
55.0400,-0.007
55.0800,0.059
55.1200,-0.018
55.1600,-0.059
55.2000,0.009
55.2400,0.007
55.2800,0.002
55.3200,0.008
55.3600,0.004
55.4000,-0.015
55.4400,0.006
55.4800,0.043
55.5200,0.008
55.5600,0.070
55.6000,-0.007
55.6400,0.042
55.6800,-0.016
55.7200,-0.039
55.7600,0.001
55.8000,-0.058
55.8400,0.001
55.8800,-0.005
55.9200,-0.003
55.9600,-0.060
56.0000,0.025
56.0400,-0.049
56.0800,0.000
56.1200,-0.004
56.1600,-0.003
56.2000,0.044
56.2400,0.033
56.2800,-0.046
56.3200,-0.037
56.3600,0.013
56.4000,-0.007
56.4400,0.001
56.4800,-0.002
56.5200,0.048
56.5600,0.029
56.6000,0.028
56.6400,-0.012
56.6800,0.025
56.7200,-0.034
56.7600,0.007
56.8000,-0.036
56.8400,-0.038
56.8800,0.002
56.9200,0.053
56.9600,0.041
57.0000,-0.084
57.0400,-0.018
57.0800,-0.033
57.1200,-0.013
57.1600,0.055
57.2000,0.034
57.2400,0.037
57.2800,0.015
57.3200,-0.001
57.3600,-0.001
57.4000,0.020
57.4400,0.045
57.4800,0.008
57.5200,-0.017
57.5600,-0.011
57.6000,0.075
57.6400,0.003
57.6800,-0.047
57.7200,-0.009
57.7600,0.035
57.8000,-0.013
57.8400,0.001
57.8800,0.013
57.9200,-0.016
57.9600,0.058
58.0000,0.006
58.0400,0.058
58.0800,-0.026
58.1200,0.001
58.1600,0.021
58.2000,-0.005
58.2400,0.036
58.2800,-0.008
58.3200,-0.026
58.3600,-0.008
58.4000,0.008
58.4400,-0.038
58.4800,-0.030
58.5200,0.008
58.5600,0.012
58.6000,0.041
58.6400,0.010
58.6800,0.042
58.7200,0.026
58.7600,-0.016
58.8000,-0.008
58.8400,-0.022
58.8800,0.007
58.9200,-0.072
58.9600,0.010
59.0000,-0.050
59.0400,0.042
59.0800,-0.001
59.1200,-0.038
59.1600,-0.009
59.2000,-0.023
59.2400,-0.019
59.2800,-0.038
59.3200,0.014
59.3600,-0.024
59.4000,-0.017
59.4400,0.017
59.4800,-0.060
59.5200,-0.018
59.5600,0.045
59.6000,-0.004
59.6400,-0.014
59.6800,-0.095
59.7200,0.012
59.7600,-0.022
59.8000,-0.028
59.8400,-0.024
59.8800,-0.067
59.9200,0.033
59.9600,0.013
60.0000,0.006
60.0400,-0.065
60.0800,-0.001
60.1200,0.034
60.1600,-0.014
60.2000,-0.020
60.2400,-0.037
60.2800,0.010
60.3200,-0.022
60.3600,0.005
60.4000,0.009
60.4400,-0.037
60.4800,-0.011
60.5200,0.003
60.5600,0.038
60.6000,-0.042
60.6400,-0.033
60.6800,-0.010
60.7200,-0.033
60.7600,0.008
60.8000,0.025
60.8400,-0.055
60.8800,0.073
60.9200,-0.020
60.9600,-0.001
61.0000,0.036
61.0400,-0.020
61.0800,-0.033
61.1200,0.069
61.1600,0.028
61.2000,0.003
61.2400,-0.001
61.2800,0.025
61.3200,0.070
61.3600,0.020
61.4000,-0.035
61.4400,-0.035
61.4800,0.019
61.5200,0.025
61.5600,0.009
61.6000,0.038
61.6400,0.097
61.6800,0.143
61.7200,0.068
61.7600,0.033
61.8000,-0.006
61.8400,-0.015
61.8800,-0.036
61.9200,-0.027
61.9600,0.000
62.0000,0.011
62.0400,-0.033
62.0800,-0.015
62.1200,-0.025
62.1600,-0.032
62.2000,0.026
62.2400,-0.026
62.2800,0.040
62.3200,-0.024
62.3600,0.004
62.4000,-0.036
62.4400,-0.039
62.4800,0.046
62.5200,-0.009
62.5600,0.051
62.6000,-0.014
62.6400,-0.036
62.6800,0.012
62.7200,-0.049
62.7600,-0.006
62.8000,0.010
62.8400,0.007
62.8800,-0.081
62.9200,-0.004
62.9600,-0.043
63.0000,0.043
63.0400,-0.001
63.0800,-0.044
63.1200,0.000
63.1600,-0.037
63.2000,0.015
63.2400,0.042
63.2800,0.005
63.3200,-0.036
63.3600,-0.036
63.4000,-0.004
63.4400,0.021
63.4800,0.037
63.5200,0.001
63.5600,0.047
63.6000,-0.020
63.6400,-0.007
63.6800,-0.057
63.7200,0.060
63.7600,-0.011
63.8000,0.029
63.8400,0.043
63.8800,-0.016
63.9200,0.046
63.9600,0.012
64.0000,-0.018
64.0400,-0.035
64.0800,-0.003
64.1200,0.065
64.1600,-0.019
64.2000,0.031
64.2400,0.000
64.2800,-0.051
64.3200,0.004
64.3600,0.027
64.4000,-0.036
64.4400,-0.036
64.4800,0.033
64.5200,0.013
64.5600,0.027
64.6000,0.006
64.6400,-0.044
64.6800,-0.005
64.7200,-0.009
64.7600,-0.023
64.8000,-0.011
64.8400,-0.033
64.8800,-0.030
64.9200,0.005
64.9600,-0.023
65.0000,-0.044
65.0400,0.022
65.0800,0.008
65.1200,0.040
65.1600,0.042
65.2000,0.071
65.2400,0.032
65.2800,0.023
65.3200,-0.075
65.3600,-0.025
65.4000,0.018
65.4400,-0.012
65.4800,-0.032
65.5200,-0.006
65.5600,0.000
65.6000,0.016
65.6400,0.039
65.6800,0.017
65.7200,-0.048
65.7600,-0.016
65.8000,-0.029
65.8400,0.037
65.8800,0.039
65.9200,0.002
65.9600,-0.041
66.0000,-0.011
66.0400,-0.027
66.0800,-0.039
66.1200,-0.002
66.1600,0.002
66.2000,-0.056
66.2400,0.026
66.2800,-0.018
66.3200,-0.043
66.3600,-0.006
66.4000,-0.044
66.4400,-0.001
66.4800,0.015
66.5200,0.072
66.5600,0.008
66.6000,-0.011
66.6400,0.059
66.6800,0.010
66.7200,0.011
66.7600,0.041
66.8000,0.066
66.8400,0.037
66.8800,0.035
66.9200,0.066
66.9600,0.006
67.0000,-0.013
67.0400,-0.052
67.0800,0.008
67.1200,-0.022
67.1600,0.028
67.2000,0.106
67.2400,0.089
67.2800,0.126
67.3200,0.078
67.3600,0.123
67.4000,-0.036
67.4400,-0.005
67.4800,0.034
67.5200,0.054
67.5600,-0.008
67.6000,-0.001
67.6400,0.013
67.6800,0.099
67.7200,0.075
67.7600,0.079
67.8000,0.176
67.8400,0.205
67.8800,0.177
67.9200,0.238
67.9600,0.294
68.0000,0.135
68.0400,0.421
68.0800,0.531
68.1200,0.412
68.1600,0.470
68.2000,0.461
68.2400,0.514
68.2800,0.687
68.3200,0.681
68.3600,0.849
68.4000,0.848
68.4400,0.871
68.4800,1.109
68.5200,1.200
68.5600,1.450
68.6000,1.638
68.6400,1.837
68.6800,2.218
68.7200,3.126
68.7600,4.738
68.8000,6.365
68.8400,6.725
68.8800,6.535
68.9200,7.233
68.9600,9.108
69.0000,13.907
69.0400,26.736
69.0800,88.847
69.1200,400.859
69.1600,581.219
69.2000,258.741
69.2400,63.274
69.2800,69.622
69.3200,220.181
69.3600,287.438
69.4000,124.119
69.4400,29.446
69.4800,13.204
69.5200,8.555
69.5600,6.279
69.6000,4.902
69.6400,3.847
69.6800,3.548
69.7200,3.033
69.7600,2.459
69.8000,2.132
69.8400,1.918
69.8800,1.662
69.9200,1.329
69.9600,1.446
70.0000,1.120
70.0400,1.114
70.0800,1.091
70.1200,0.860
70.1600,0.861
70.2000,0.742
70.2400,0.672
70.2800,0.733
70.3200,0.596
70.3600,0.509
70.4000,0.537
70.4400,0.342
70.4800,0.369
70.5200,0.314
70.5600,0.330
70.6000,0.209
70.6400,0.122
70.6800,0.207
70.7200,0.139
70.7600,0.137
70.8000,0.122
70.8400,0.044
70.8800,0.095
70.9200,0.003
70.9600,0.064
71.0000,0.010
71.0400,0.048
71.0800,0.118
71.1200,-0.066
71.1600,-0.028
71.2000,0.049
71.2400,0.084
71.2800,0.016
71.3200,-0.101
71.3600,-0.021
71.4000,0.032
71.4400,-0.030
71.4800,0.051
71.5200,-0.079
71.5600,-0.035
71.6000,0.021
71.6400,-0.037
71.6800,-0.046
71.7200,-0.039
71.7600,-0.013
71.8000,-0.020
71.8400,-0.019
71.8800,-0.001
71.9200,0.018
71.9600,-0.035
72.0000,-0.042
72.0400,-0.026
72.0800,-0.020
72.1200,-0.003
72.1600,-0.012
72.2000,-0.041
72.2400,-0.019
72.2800,0.044
72.3200,-0.021
72.3600,-0.040
72.4000,0.024
72.4400,-0.001
72.4800,-0.038
72.5200,-0.028
72.5600,-0.013
72.6000,-0.035
72.6400,-0.021
72.6800,-0.047
72.7200,0.035
72.7600,-0.024
72.8000,0.030
72.8400,0.003
72.8800,-0.036
72.9200,-0.016
72.9600,0.012
73.0000,0.014
73.0400,-0.072
73.0800,0.004
73.1200,-0.025
73.1600,0.013
73.2000,-0.031
73.2400,-0.035
73.2800,-0.012
73.3200,-0.020
73.3600,-0.010
73.4000,-0.004
73.4400,0.056
73.4800,-0.051
73.5200,-0.034
73.5600,-0.021
73.6000,0.019
73.6400,0.033
73.6800,-0.009
73.7200,-0.014
73.7600,-0.043
73.8000,0.008
73.8400,0.006
73.8800,0.002
73.9200,0.046
73.9600,-0.036
74.0000,-0.022
74.0400,-0.032
74.0800,-0.027
74.1200,-0.010
74.1600,0.003
74.2000,0.004
74.2400,-0.018
74.2800,0.009
74.3200,0.062
74.3600,-0.031
74.4000,-0.003
74.4400,-0.012
74.4800,-0.010
74.5200,0.015
74.5600,-0.056
74.6000,-0.017
74.6400,-0.013
74.6800,0.007
74.7200,-0.032
74.7600,-0.007
74.8000,-0.023
74.8400,-0.014
74.8800,-0.013
74.9200,-0.058
74.9600,0.043
75.0000,0.025
75.0400,-0.047
75.0800,-0.025
75.1200,0.040
75.1600,-0.005
75.2000,0.011
75.2400,-0.025
75.2800,-0.009
75.3200,-0.029
75.3600,-0.012
75.4000,0.010
75.4400,-0.014
75.4800,0.027
75.5200,-0.035
75.5600,-0.026
75.6000,-0.015
75.6400,0.029
75.6800,0.022
75.7200,-0.032
75.7600,0.002
75.8000,-0.004
75.8400,0.005
75.8800,-0.014
75.9200,-0.018
75.9600,-0.020
76.0000,-0.009
76.0400,-0.035
76.0800,0.011
76.1200,-0.035
76.1600,-0.013
76.2000,0.001
76.2400,0.012
76.2800,0.011
76.3200,-0.006
76.3600,-0.017
76.4000,0.010
76.4400,-0.034
76.4800,-0.004
76.5200,-0.019
76.5600,-0.006
76.6000,0.015
76.6400,0.015
76.6800,-0.021
76.7200,-0.015
76.7600,-0.017
76.8000,-0.002
76.8400,-0.027
76.8800,-0.036
76.9200,0.024
76.9600,-0.002
77.0000,0.040
77.0400,0.026
77.0800,0.023
77.1200,0.043
77.1600,0.028
77.2000,0.036
77.2400,0.020
77.2800,-0.038
77.3200,-0.023
77.3600,0.049
77.4000,0.043
77.4400,0.007
77.4800,0.033
77.5200,0.043
77.5600,0.004
77.6000,-0.035
77.6400,-0.006
77.6800,0.013
77.7200,0.024
77.7600,0.052
77.8000,-0.024
77.8400,0.008
77.8800,0.029
77.9200,-0.023
77.9600,0.012
78.0000,-0.019
78.0400,-0.017
78.0800,0.013
78.1200,0.017
78.1600,-0.043
78.2000,0.028
78.2400,0.011
78.2800,0.016
78.3200,0.039
78.3600,0.002
78.4000,-0.026
78.4400,-0.005
78.4800,0.017
78.5200,0.026
78.5600,0.052
78.6000,0.015
78.6400,-0.011
78.6800,0.059
78.7200,-0.006
78.7600,-0.040
78.8000,0.004
78.8400,0.013
78.8800,-0.006
78.9200,-0.008
78.9600,-0.022
79.0000,0.030
79.0400,0.012
79.0800,0.032
79.1200,0.041
79.1600,0.028
79.2000,0.026
79.2400,0.006
79.2800,0.007
79.3200,0.041
79.3600,-0.048
79.4000,-0.042
79.4400,0.062
79.4800,-0.005
79.5200,-0.018
79.5600,0.027
79.6000,0.002
79.6400,-0.016
79.6800,-0.025
79.7200,-0.004
79.7600,0.018
79.8000,0.016
79.8400,0.047
79.8800,0.006
79.9200,0.025
79.9600,0.011
80.0000,0.037
80.0400,-0.006
80.0800,-0.069
80.1200,0.011
80.1600,0.009
80.2000,-0.008
80.2400,-0.018
80.2800,0.039
80.3200,-0.021
80.3600,-0.026
80.4000,0.006
80.4400,-0.025
80.4800,-0.019
80.5200,-0.009
80.5600,0.005
80.6000,0.009
80.6400,-0.015
80.6800,-0.026
80.7200,-0.001
80.7600,-0.011
80.8000,0.022
80.8400,0.017
80.8800,0.042
80.9200,-0.030
80.9600,0.023
81.0000,0.011
81.0400,0.009
81.0800,-0.040
81.1200,-0.008
81.1600,-0.007
81.2000,-0.016
81.2400,-0.007
81.2800,-0.007
81.3200,-0.035
81.3600,0.006
81.4000,-0.003
81.4400,0.032
81.4800,-0.007
81.5200,0.006
81.5600,0.013
81.6000,-0.016
81.6400,0.028
81.6800,0.015
81.7200,-0.032
81.7600,0.004
81.8000,-0.028
81.8400,-0.009
81.8800,0.023
81.9200,0.020
81.9600,-0.019
82.0000,-0.015
82.0400,0.022
82.0800,-0.008
82.1200,-0.007
82.1600,-0.025
82.2000,0.001
82.2400,0.035
82.2800,-0.035
82.3200,-0.007
82.3600,-0.007
82.4000,-0.016
82.4400,-0.019
82.4800,0.000
82.5200,0.019
82.5600,-0.045
82.6000,-0.006
82.6400,-0.001
82.6800,0.006
82.7200,-0.069
82.7600,0.047
82.8000,0.015
82.8400,-0.002
82.8800,-0.015
82.9200,-0.036
82.9600,0.016
83.0000,-0.008
83.0400,-0.039
83.0800,0.008
83.1200,0.019
83.1600,0.006
83.2000,-0.014
83.2400,-0.024
83.2800,0.010
83.3200,0.039
83.3600,0.014
83.4000,-0.026
83.4400,0.029
83.4800,-0.036
83.5200,0.036
83.5600,0.013
83.6000,-0.020
83.6400,0.004
83.6800,-0.005
83.7200,-0.008
83.7600,0.025
83.8000,-0.021
83.8400,-0.008
83.8800,-0.025
83.9200,-0.037
83.9600,0.026
84.0000,0.042
84.0400,-0.007
84.0800,0.007
84.1200,0.014
84.1600,-0.002
84.2000,-0.021
84.2400,-0.025
84.2800,0.006
84.3200,-0.033
84.3600,0.009
84.4000,-0.006
84.4400,-0.017
84.4800,0.044
84.5200,0.022
84.5600,-0.002
84.6000,-0.015
84.6400,-0.024
84.6800,0.012
84.7200,0.017
84.7600,-0.016
84.8000,0.012
84.8400,0.030
84.8800,-0.028
84.9200,0.008
84.9600,-0.032
85.0000,-0.013
85.0400,0.002
85.0800,0.031
85.1200,0.012
85.1600,0.008
85.2000,0.005
85.2400,0.012
85.2800,-0.032
85.3200,-0.004
85.3600,-0.004
85.4000,-0.023
85.4400,-0.005
85.4800,-0.005
85.5200,-0.017
85.5600,-0.007
85.6000,0.017
85.6400,-0.017
85.6800,-0.043
85.7200,0.018
85.7600,0.000
85.8000,0.017
85.8400,0.004
85.8800,-0.030
85.9200,0.015
85.9600,0.022
86.0000,-0.023
86.0400,-0.023
86.0800,0.009
86.1200,-0.021
86.1600,0.027
86.2000,-0.009
86.2400,0.041
86.2800,-0.010
86.3200,-0.010
86.3600,-0.013
86.4000,0.013
86.4400,-0.009
86.4800,-0.015
86.5200,0.009
86.5600,-0.026
86.6000,0.022
86.6400,0.003
86.6800,0.026
86.7200,-0.011
86.7600,0.002
86.8000,-0.048
86.8400,-0.006
86.8800,-0.022
86.9200,0.015
86.9600,0.016
87.0000,-0.008
87.0400,-0.007
87.0800,-0.051
87.1200,0.010
87.1600,-0.055
87.2000,-0.005
87.2400,0.000
87.2800,0.005
87.3200,0.009
87.3600,0.003
87.4000,-0.002
87.4400,-0.023
87.4800,-0.008
87.5200,0.037
87.5600,0.019
87.6000,-0.010
87.6400,-0.021
87.6800,-0.028
87.7200,0.018
87.7600,0.000
87.8000,0.046
87.8400,0.000
87.8800,0.026
87.9200,0.009
87.9600,0.015
88.0000,0.004
88.0400,-0.015
88.0800,-0.017
88.1200,0.007
88.1600,-0.004
88.2000,-0.020
88.2400,-0.018
88.2800,-0.023
88.3200,-0.010
88.3600,0.001
88.4000,0.042
88.4400,0.009
88.4800,-0.001
88.5200,-0.026
88.5600,0.022
88.6000,-0.013
88.6400,0.026
88.6800,-0.013
88.7200,0.006
88.7600,0.056
88.8000,-0.016
88.8400,0.018
88.8800,0.007
88.9200,-0.028
88.9600,-0.012
89.0000,-0.010
89.0400,0.017
89.0800,0.036
89.1200,0.028
89.1600,0.000
89.2000,0.056
89.2400,0.027
89.2800,0.030
89.3200,0.010
89.3600,-0.022
89.4000,-0.023
89.4400,0.018
89.4800,-0.037
89.5200,0.011
89.5600,-0.011
89.6000,-0.009
89.6400,-0.007
89.6800,0.000
89.7200,-0.024
89.7600,-0.013
89.8000,-0.011
89.8400,-0.016
89.8800,-0.015
89.9200,-0.024
89.9600,-0.025
90.0000,0.000
