5.0400,0.007
5.0800,-0.125
5.1200,-0.118
5.1600,0.002
5.2000,0.034
5.2400,-0.010
5.2800,0.019
5.3200,0.274
5.3600,0.152
5.4000,0.390
5.4400,0.127
5.4800,0.096
5.5200,0.101
5.5600,0.143
5.6000,0.114
5.6400,0.281
5.6800,0.326
5.7200,0.216
5.7600,-0.019
5.8000,0.120
5.8400,0.155
5.8800,0.067
5.9200,-0.152
5.9600,-0.104
6.0000,-0.067
6.0400,-0.077
6.0800,-0.102
6.1200,0.068
6.1600,-0.005
6.2000,-0.024
6.2400,0.069
6.2800,-0.082
6.3200,0.015
6.3600,-0.192
6.4000,-0.018
6.4400,0.047
6.4800,0.038
6.5200,0.177
6.5600,0.109
6.6000,0.107
6.6400,-0.100
6.6800,-0.141
6.7200,0.096
6.7600,0.159
6.8000,-0.037
6.8400,-0.037
6.8800,0.001
6.9200,-0.102
6.9600,-0.064
7.0000,0.187
7.0400,-0.053
7.0800,0.068
7.1200,0.189
7.1600,0.170
7.2000,0.275
7.2400,0.078
7.2800,0.030
7.3200,0.058
7.3600,-0.052
7.4000,0.165
7.4400,0.062
7.4800,0.032
7.5200,0.079
7.5600,-0.101
7.6000,-0.149
7.6400,0.129
7.6800,-0.014
7.7200,0.006
7.7600,-0.126
7.8000,-0.007
7.8400,0.103
7.8800,-0.041
7.9200,-0.101
7.9600,-0.082
8.0000,0.090
8.0400,-0.110
8.0800,0.214
8.1200,0.018
8.1600,-0.049
8.2000,-0.079
8.2400,0.000
8.2800,-0.040
8.3200,-0.114
8.3600,0.116
8.4000,-0.123
8.4400,-0.015
8.4800,-0.057
8.5200,0.040
8.5600,-0.132
8.6000,0.129
8.6400,0.103
8.6800,-0.022
8.7200,0.019
8.7600,-0.051
8.8000,0.089
8.8400,-0.068
8.8800,0.052
8.9200,-0.185
8.9600,-0.052
9.0000,-0.092
9.0400,-0.035
9.0800,-0.075
9.1200,-0.009
9.1600,0.120
9.2000,-0.103
9.2400,0.028
9.2800,0.036
9.3200,0.104
9.3600,-0.056
9.4000,0.048
9.4400,0.225
9.4800,-0.033
9.5200,0.056
9.5600,0.076
9.6000,-0.097
9.6400,-0.079
9.6800,0.009
9.7200,0.131
9.7600,0.034
9.8000,0.039
9.8400,-0.096
9.8800,-0.096
9.9200,-0.047
9.9600,0.136
10.0000,-0.008
10.0400,0.026
10.0800,0.141
10.1200,0.125
10.1600,0.138
10.2000,-0.021
10.2400,0.137
10.2800,-0.211
10.3200,-0.095
10.3600,-0.094
10.4000,-0.009
10.4400,-0.056
10.4800,0.169
10.5200,-0.048
10.5600,0.064
10.6000,0.069
10.6400,0.139
10.6800,0.131
10.7200,-0.068
10.7600,-0.094
10.8000,-0.094
10.8400,-0.049
10.8800,0.104
10.9200,0.142
10.9600,0.107
11.0000,-0.040
11.0400,0.035
11.0800,-0.041
11.1200,0.038
11.1600,0.061
11.2000,-0.164
11.2400,-0.065
11.2800,0.190
11.3200,0.028
11.3600,-0.212
11.4000,0.118
11.4400,0.175
11.4800,-0.036
11.5200,-0.013
11.5600,0.012
11.6000,0.036
11.6400,-0.051
11.6800,0.109
11.7200,-0.035
11.7600,-0.004
11.8000,-0.062
11.8400,-0.003
11.8800,0.026
11.9200,0.136
11.9600,0.043
12.0000,0.121
12.0400,0.049
12.0800,0.010
12.1200,-0.170
12.1600,-0.019
12.2000,0.048
12.2400,0.131
12.2800,0.008
12.3200,0.140
12.3600,0.102
12.4000,0.085
12.4400,0.029
12.4800,0.057
12.5200,0.097
12.5600,-0.071
12.6000,0.003
12.6400,0.218
12.6800,0.128
12.7200,-0.062
12.7600,0.051
12.8000,-0.091
12.8400,-0.010
12.8800,0.026
12.9200,0.037
12.9600,-0.099
13.0000,0.005
13.0400,0.195
13.0800,0.009
13.1200,0.067
13.1600,-0.090
13.2000,-0.087
13.2400,0.000
13.2800,0.020
13.3200,0.079
13.3600,-0.015
13.4000,0.060
13.4400,-0.053
13.4800,0.097
13.5200,0.036
13.5600,0.184
13.6000,0.186
13.6400,-0.053
13.6800,0.007
13.7200,-0.095
13.7600,-0.013
13.8000,-0.033
13.8400,0.074
13.8800,0.022
13.9200,-0.089
13.9600,-0.041
14.0000,0.023
14.0400,0.029
14.0800,0.051
14.1200,0.106
14.1600,-0.016
14.2000,0.054
14.2400,0.112
14.2800,0.001
14.3200,-0.051
14.3600,-0.088
14.4000,0.006
14.4400,0.158
14.4800,0.164
14.5200,0.097
14.5600,0.035
14.6000,-0.091
14.6400,0.059
14.6800,0.037
14.7200,0.159
14.7600,0.032
14.8000,0.006
14.8400,-0.055
14.8800,0.078
14.9200,-0.078
14.9600,-0.015
15.0000,0.066
15.0400,0.034
15.0800,-0.032
15.1200,0.245
15.1600,0.145
15.2000,0.035
15.2400,-0.145
15.2800,0.165
15.3200,0.122
15.3600,0.028
15.4000,-0.119
15.4400,-0.039
15.4800,0.029
15.5200,0.160
15.5600,0.067
15.6000,0.138
15.6400,-0.013
15.6800,-0.033
15.7200,0.007
15.7600,0.118
15.8000,0.145
15.8400,-0.020
15.8800,0.043
15.9200,-0.045
15.9600,0.024
16.0000,0.046
16.0400,0.001
16.0800,-0.086
16.1200,-0.037
16.1600,0.113
16.2000,-0.012
16.2400,0.061
16.2800,-0.006
16.3200,0.012
16.3600,-0.172
16.4000,0.011
16.4400,0.092
16.4800,-0.097
16.5200,-0.027
16.5600,0.065
16.6000,0.077
16.6400,-0.017
16.6800,0.028
16.7200,-0.038
16.7600,0.017
16.8000,0.063
16.8400,-0.048
16.8800,-0.081
16.9200,-0.027
16.9600,0.014
17.0000,-0.003
17.0400,-0.121
17.0800,0.004
17.1200,-0.064
17.1600,-0.021
17.2000,-0.106
17.2400,0.041
17.2800,-0.058
17.3200,0.032
17.3600,0.007
17.4000,0.146
17.4400,-0.100
17.4800,-0.008
17.5200,-0.084
17.5600,-0.060
17.6000,-0.070
17.6400,-0.056
17.6800,-0.011
17.7200,-0.023
17.7600,0.114
17.8000,-0.100
17.8400,-0.055
17.8800,0.004
17.9200,0.118
17.9600,0.062
18.0000,0.164
18.0400,-0.148
18.0800,0.023
18.1200,-0.006
18.1600,-0.082
18.2000,-0.010
18.2400,0.062
18.2800,0.017
18.3200,0.187
18.3600,0.115
18.4000,0.054
18.4400,0.076
18.4800,0.192
18.5200,0.159
18.5600,0.039
18.6000,0.008
18.6400,0.036
18.6800,0.094
18.7200,0.046
18.7600,0.035
18.8000,-0.038
18.8400,-0.092
18.8800,0.030
18.9200,-0.064
18.9600,0.134
19.0000,0.139
19.0400,0.021
19.0800,-0.053
19.1200,0.151
19.1600,-0.013
19.2000,0.132
19.2400,0.072
19.2800,0.067
19.3200,0.111
19.3600,-0.002
19.4000,-0.003
19.4400,-0.086
19.4800,0.051
19.5200,0.205
19.5600,-0.064
19.6000,-0.002
19.6400,0.076
19.6800,0.001
19.7200,-0.025
19.7600,-0.129
19.8000,0.021
19.8400,0.040
19.8800,0.096
19.9200,-0.004
19.9600,0.189
20.0000,-0.079
20.0400,-0.020
20.0800,-0.012
20.1200,0.010
20.1600,-0.098
20.2000,0.131
20.2400,0.015
20.2800,-0.044
20.3200,-0.109
20.3600,0.043
20.4000,-0.018
20.4400,-0.052
20.4800,-0.017
20.5200,0.051
20.5600,-0.020
20.6000,-0.058
20.6400,0.051
20.6800,-0.070
20.7200,0.007
20.7600,0.041
20.8000,0.016
20.8400,0.019
20.8800,0.023
20.9200,0.101
20.9600,0.095
21.0000,-0.029
21.0400,-0.080
21.0800,0.004
21.1200,0.051
21.1600,0.067
21.2000,0.003
21.2400,-0.049
21.2800,-0.141
21.3200,0.086
21.3600,0.110
21.4000,0.072
21.4400,-0.059
21.4800,-0.020
21.5200,-0.091
21.5600,0.018
21.6000,0.113
21.6400,0.061
21.6800,-0.060
21.7200,0.090
21.7600,0.045
21.8000,-0.008
21.8400,-0.043
21.8800,0.011
21.9200,0.032
21.9600,0.070
22.0000,0.026
22.0400,-0.077
22.0800,-0.049
22.1200,0.001
22.1600,-0.057
22.2000,0.048
22.2400,-0.173
22.2800,-0.047
22.3200,-0.045
22.3600,-0.079
22.4000,-0.021
22.4400,0.062
22.4800,-0.099
22.5200,-0.030
22.5600,0.128
22.6000,0.112
22.6400,0.006
22.6800,-0.016
22.7200,-0.119
22.7600,0.069
22.8000,-0.008
22.8400,-0.012
22.8800,0.019
22.9200,-0.024
22.9600,-0.074
23.0000,0.036
23.0400,-0.049
23.0800,-0.094
23.1200,0.045
23.1600,-0.046
23.2000,-0.134
23.2400,0.043
23.2800,0.111
23.3200,0.129
23.3600,-0.028
23.4000,0.156
23.4400,0.026
23.4800,-0.005
23.5200,0.065
23.5600,0.096
23.6000,-0.047
23.6400,-0.126
23.6800,0.087
23.7200,-0.096
23.7600,0.023
23.8000,-0.037
23.8400,-0.093
23.8800,0.099
23.9200,-0.007
23.9600,0.008
24.0000,0.139
24.0400,0.111
24.0800,-0.061
24.1200,-0.077
24.1600,-0.041
24.2000,-0.085
24.2400,0.232
24.2800,-0.199
24.3200,-0.023
24.3600,-0.009
24.4000,0.087
24.4400,0.071
24.4800,0.023
24.5200,0.018
24.5600,0.046
24.6000,-0.096
24.6400,-0.040
24.6800,-0.040
24.7200,0.086
24.7600,0.059
24.8000,-0.095
24.8400,-0.057
24.8800,0.002
24.9200,0.006
24.9600,0.097
25.0000,-0.106
25.0400,-0.025
25.0800,0.103
25.1200,-0.019
25.1600,0.105
25.2000,0.015
25.2400,-0.076
25.2800,-0.057
25.3200,-0.003
25.3600,-0.144
25.4000,0.008
25.4400,0.167
25.4800,0.024
25.5200,-0.001
25.5600,0.018
25.6000,0.083
25.6400,0.131
25.6800,-0.015
25.7200,-0.030
25.7600,0.106
25.8000,0.100
25.8400,-0.008
25.8800,0.050
25.9200,0.061
25.9600,0.221
26.0000,0.026
26.0400,0.239
26.0800,0.080
26.1200,0.282
26.1600,0.203
26.2000,0.167
26.2400,0.012
26.2800,0.095
26.3200,-0.019
26.3600,0.007
26.4000,-0.075
26.4400,-0.014
26.4800,-0.069
26.5200,-0.024
26.5600,-0.007
26.6000,0.026
26.6400,-0.010
26.6800,0.105
26.7200,0.116
26.7600,0.068
26.8000,0.047
26.8400,0.042
26.8800,0.057
26.9200,0.003
26.9600,0.014
27.0000,0.095
27.0400,0.037
27.0800,-0.002
27.1200,-0.038
27.1600,-0.037
27.2000,-0.130
27.2400,0.033
27.2800,-0.004
27.3200,-0.111
27.3600,0.085
27.4000,-0.016
27.4400,-0.149
27.4800,0.022
27.5200,0.054
27.5600,-0.058
27.6000,0.041
27.6400,-0.040
27.6800,0.063
27.7200,0.120
27.7600,0.028
27.8000,0.047
27.8400,0.046
27.8800,-0.041
27.9200,0.070
27.9600,-0.115
28.0000,-0.072
28.0400,-0.044
28.0800,-0.014
28.1200,0.068
28.1600,0.069
28.2000,-0.006
28.2400,0.049
28.2800,-0.154
28.3200,0.025
28.3600,0.008
28.4000,-0.082
28.4400,0.057
28.4800,-0.009
28.5200,-0.051
28.5600,0.119
28.6000,-0.029
28.6400,-0.024
28.6800,-0.033
28.7200,-0.071
28.7600,-0.007
28.8000,-0.004
28.8400,0.020
28.8800,0.077
28.9200,-0.014
28.9600,0.036
29.0000,0.007
29.0400,-0.015
29.0800,0.029
29.1200,-0.021
29.1600,-0.120
29.2000,0.040
29.2400,0.122
29.2800,0.015
29.3200,-0.015
29.3600,-0.042
29.4000,-0.049
29.4400,-0.001
29.4800,-0.026
29.5200,0.020
29.5600,0.048
29.6000,-0.149
29.6400,-0.017
29.6800,-0.027
29.7200,-0.069
29.7600,-0.034
29.8000,-0.022
29.8400,-0.095
29.8800,0.022
29.9200,-0.028
29.9600,-0.009
30.0000,0.019
30.0400,0.023
30.0800,-0.104
30.1200,0.016
30.1600,0.076
30.2000,0.056
30.2400,-0.072
30.2800,-0.056
30.3200,-0.014
30.3600,0.041
30.4000,0.045
30.4400,-0.072
30.4800,-0.016
30.5200,0.003
30.5600,0.028
30.6000,-0.117
30.6400,0.081
30.6800,-0.028
30.7200,0.053
30.7600,-0.002
30.8000,0.074
30.8400,0.044
30.8800,-0.038
30.9200,-0.066
30.9600,0.018
31.0000,0.068
31.0400,0.084
31.0800,-0.008
31.1200,0.086
31.1600,0.062
31.2000,-0.010
31.2400,0.040
31.2800,-0.068
31.3200,-0.002
31.3600,0.053
31.4000,0.063
31.4400,0.060
31.4800,-0.035
31.5200,-0.034
31.5600,-0.066
31.6000,0.022
31.6400,0.039
31.6800,-0.050
31.7200,-0.023
31.7600,0.066
31.8000,0.195
31.8400,0.173
31.8800,0.065
31.9200,0.018
31.9600,-0.043
32.0000,-0.064
32.0400,-0.061
32.0800,0.019
32.1200,0.075
32.1600,0.034
32.2000,0.048
32.2400,0.083
32.2800,-0.025
32.3200,-0.022
32.3600,0.002
32.4000,0.045
32.4400,-0.063
32.4800,-0.053
32.5200,0.066
32.5600,0.052
32.6000,0.017
32.6400,0.119
32.6800,-0.106
32.7200,0.060
32.7600,0.090
32.8000,-0.020
32.8400,-0.081
32.8800,0.019
32.9200,0.196
32.9600,0.115
33.0000,0.038
33.0400,0.252
33.0800,0.633
33.1200,0.427
33.1600,0.010
33.2000,0.005
33.2400,-0.096
33.2800,-0.004
33.3200,-0.095
33.3600,0.026
33.4000,0.063
33.4400,-0.036
33.4800,-0.006
33.5200,0.020
33.5600,0.130
33.6000,-0.020
33.6400,-0.017
33.6800,-0.062
33.7200,-0.024
33.7600,0.040
33.8000,0.046
33.8400,-0.009
33.8800,0.018
33.9200,0.004
33.9600,0.031
34.0000,0.070
34.0400,-0.090
34.0800,-0.062
34.1200,0.044
34.1600,-0.063
34.2000,-0.031
34.2400,-0.007
34.2800,0.002
34.3200,0.042
34.3600,-0.007
34.4000,-0.001
34.4400,-0.124
34.4800,0.026
34.5200,-0.029
34.5600,0.091
34.6000,-0.063
34.6400,-0.001
34.6800,-0.061
34.7200,-0.022
34.7600,0.064
34.8000,0.000
34.8400,-0.083
34.8800,0.025
34.9200,-0.051
34.9600,-0.018
35.0000,0.099
35.0400,0.019
35.0800,-0.039
35.1200,-0.061
35.1600,0.009
35.2000,-0.046
35.2400,0.034
35.2800,-0.030
35.3200,-0.003
35.3600,-0.052
35.4000,0.000
35.4400,0.007
35.4800,-0.122
35.5200,0.023
35.5600,-0.046
35.6000,-0.060
35.6400,0.006
35.6800,-0.037
35.7200,-0.060
35.7600,0.013
35.8000,-0.048
35.8400,0.009
35.8800,0.029
35.9200,-0.108
35.9600,0.045
36.0000,0.009
36.0400,-0.080
36.0800,-0.008
36.1200,-0.010
36.1600,-0.009
36.2000,-0.115
36.2400,0.009
36.2800,0.009
36.3200,-0.037
36.3600,-0.030
36.4000,-0.004
36.4400,-0.013
36.4800,0.006
36.5200,0.053
36.5600,0.107
36.6000,-0.033
36.6400,-0.058
36.6800,-0.009
36.7200,0.135
36.7600,0.135
36.8000,0.110
36.8400,0.001
36.8800,-0.161
36.9200,-0.005
36.9600,-0.084
37.0000,0.042
37.0400,0.018
37.0800,0.023
37.1200,-0.066
37.1600,-0.010
37.2000,-0.058
37.2400,-0.012
37.2800,-0.032
37.3200,-0.030
37.3600,0.114
37.4000,-0.031
37.4400,0.049
37.4800,0.089
37.5200,-0.080
37.5600,-0.041
37.6000,-0.043
37.6400,0.024
37.6800,0.008
37.7200,-0.054
37.7600,0.048
37.8000,-0.087
37.8400,-0.036
37.8800,0.027
37.9200,0.031
37.9600,-0.056
38.0000,-0.076
38.0400,0.050
38.0800,0.020
38.1200,-0.020
38.1600,0.093
38.2000,-0.037
38.2400,-0.056
38.2800,-0.026
38.3200,0.116
38.3600,0.031
38.4000,0.014
38.4400,0.133
38.4800,0.008
38.5200,0.017
38.5600,0.033
38.6000,0.057
38.6400,0.059
38.6800,0.024
38.7200,0.016
38.7600,0.007
38.8000,0.007
38.8400,0.024
38.8800,0.003
38.9200,-0.012
38.9600,-0.001
39.0000,-0.042
39.0400,-0.118
39.0800,0.034
39.1200,0.019
39.1600,0.022
39.2000,0.010
39.2400,0.097
39.2800,-0.071
39.3200,0.052
39.3600,0.137
39.4000,0.010
39.4400,0.021
39.4800,-0.003
39.5200,-0.043
39.5600,0.065
39.6000,0.002
39.6400,-0.113
39.6800,0.023
39.7200,-0.029
39.7600,0.027
39.8000,-0.004
39.8400,0.024
39.8800,-0.036
39.9200,0.034
39.9600,0.065
40.0000,0.005
40.0400,0.126
40.0800,-0.035
40.1200,-0.129
40.1600,0.027
40.2000,0.024
40.2400,0.069
40.2800,0.128
40.3200,0.028
40.3600,0.089
40.4000,0.141
40.4400,0.018
40.4800,0.052
40.5200,0.188
40.5600,0.135
40.6000,0.078
40.6400,0.060
40.6800,0.088
40.7200,0.098
40.7600,0.005
40.8000,0.098
40.8400,-0.017
40.8800,0.066
40.9200,-0.064
40.9600,0.134
41.0000,0.089
41.0400,0.003
41.0800,-0.014
41.1200,-0.084
41.1600,0.012
41.2000,-0.053
41.2400,-0.011
41.2800,-0.051
41.3200,-0.012
41.3600,0.023
41.4000,0.026
41.4400,0.035
41.4800,-0.064
41.5200,0.008
41.5600,-0.035
41.6000,0.104
41.6400,0.007
41.6800,0.072
41.7200,0.028
41.7600,0.036
41.8000,0.059
41.8400,-0.063
41.8800,0.027
41.9200,0.073
41.9600,-0.066
42.0000,0.103
42.0400,0.008
42.0800,0.064
42.1200,0.042
42.1600,-0.007
42.2000,-0.050
42.2400,-0.033
42.2800,0.048
42.3200,0.074
42.3600,0.084
42.4000,0.019
42.4400,-0.050
42.4800,-0.019
42.5200,-0.011
42.5600,0.008
42.6000,0.016
42.6400,0.014
42.6800,0.008
42.7200,0.004
42.7600,-0.085
42.8000,-0.003
42.8400,0.049
42.8800,0.099
42.9200,-0.034
42.9600,0.014
43.0000,-0.009
43.0400,0.058
43.0800,0.006
43.1200,-0.022
43.1600,0.119
43.2000,-0.031
43.2400,-0.027
43.2800,-0.001
43.3200,0.011
43.3600,-0.054
43.4000,-0.018
43.4400,0.042
43.4800,0.068
43.5200,0.024
43.5600,-0.013
43.6000,0.019
43.6400,-0.052
43.6800,0.094
43.7200,0.052
43.7600,0.012
43.8000,0.001
43.8400,0.004
43.8800,-0.032
43.9200,-0.049
43.9600,-0.012
44.0000,0.016
44.0400,0.037
44.0800,0.046
44.1200,0.028
44.1600,0.015
44.2000,0.133
44.2400,0.031
44.2800,0.016
44.3200,-0.025
44.3600,0.019
44.4000,-0.116
44.4400,-0.018
44.4800,-0.002
44.5200,-0.025
44.5600,0.007
44.6000,-0.053
44.6400,-0.013
44.6800,0.031
44.7200,0.017
44.7600,0.039
44.8000,0.023
44.8400,0.024
44.8800,-0.072
44.9200,0.000
44.9600,0.003
45.0000,0.054
45.0400,-0.007
45.0800,0.047
45.1200,-0.042
45.1600,0.026
45.2000,0.039
45.2400,-0.032
45.2800,-0.019
45.3200,0.039
45.3600,0.048
45.4000,-0.001
45.4400,-0.006
45.4800,-0.047
45.5200,-0.029
45.5600,-0.034
45.6000,0.000
45.6400,0.087
45.6800,0.034
45.7200,-0.112
45.7600,0.012
45.8000,-0.042
45.8400,0.032
45.8800,0.033
45.9200,0.017
45.9600,0.025
46.0000,-0.002
46.0400,-0.070
46.0800,-0.001
46.1200,0.038
46.1600,-0.009
46.2000,0.098
46.2400,0.031
46.2800,0.026
46.3200,0.088
46.3600,-0.041
46.4000,0.004
46.4400,0.007
46.4800,-0.061
46.5200,-0.008
46.5600,-0.002
46.6000,-0.012
46.6400,-0.040
46.6800,-0.010
46.7200,-0.017
46.7600,0.007
46.8000,0.059
46.8400,0.035
46.8800,0.083
46.9200,-0.022
46.9600,-0.003
47.0000,0.033
47.0400,0.039
47.0800,-0.066
47.1200,-0.041
47.1600,-0.039
47.2000,0.012
47.2400,0.004
47.2800,-0.080
47.3200,0.002
47.3600,-0.020
47.4000,-0.036
47.4400,0.074
47.4800,0.059
47.5200,0.035
47.5600,0.052
47.6000,0.067
47.6400,-0.044
47.6800,-0.021
47.7200,0.071
47.7600,0.005
47.8000,-0.042
47.8400,-0.045
47.8800,0.013
47.9200,-0.067
47.9600,-0.013
48.0000,0.031
48.0400,0.074
48.0800,-0.067
48.1200,-0.035
48.1600,0.004
48.2000,-0.062
48.2400,0.005
48.2800,0.030
48.3200,0.040
48.3600,0.046
48.4000,-0.041
48.4400,-0.045
48.4800,-0.030
48.5200,0.050
48.5600,-0.010
48.6000,0.052
48.6400,0.025
48.6800,0.068
48.7200,-0.049
48.7600,-0.072
48.8000,0.068
48.8400,0.008
48.8800,-0.005
48.9200,-0.025
48.9600,-0.003
49.0000,-0.059
49.0400,0.032
49.0800,0.039
49.1200,-0.045
49.1600,-0.015
49.2000,-0.043
49.2400,0.031
49.2800,-0.051
49.3200,0.013
49.3600,0.095
49.4000,-0.032
49.4400,0.019
49.4800,-0.015
49.5200,0.036
49.5600,-0.035
49.6000,0.024
49.6400,0.043
49.6800,-0.016
49.7200,0.040
49.7600,0.034
49.8000,-0.043
49.8400,-0.067
49.8800,0.073
49.9200,0.015
49.9600,0.032
50.0000,0.062
50.0400,0.043
50.0800,0.103
50.1200,-0.086
50.1600,0.021
50.2000,0.030
50.2400,0.006
50.2800,0.061
50.3200,0.007
50.3600,-0.017
50.4000,-0.060
50.4400,0.017
50.4800,0.043
50.5200,0.057
50.5600,0.048
50.6000,-0.011
50.6400,0.060
50.6800,-0.043
50.7200,0.078
50.7600,-0.015
50.8000,-0.013
50.8400,0.018
50.8800,-0.096
50.9200,-0.008
50.9600,0.035
51.0000,-0.053
51.0400,-0.035
51.0800,0.015
51.1200,0.040
51.1600,0.022
51.2000,0.057
51.2400,-0.073
51.2800,0.014
51.3200,-0.019
51.3600,-0.027
51.4000,-0.042
51.4400,-0.004
51.4800,0.005
51.5200,0.055
51.5600,-0.049
51.6000,-0.021
51.6400,-0.027
51.6800,-0.043
51.7200,-0.035
51.7600,0.005
51.8000,0.025
51.8400,0.009
51.8800,0.016
51.9200,-0.050
51.9600,0.031
52.0000,0.025
52.0400,-0.011
52.0800,-0.033
52.1200,-0.040
52.1600,-0.024
52.2000,0.038
52.2400,-0.044
52.2800,-0.037
52.3200,0.020
52.3600,0.000
52.4000,0.028
52.4400,-0.042
52.4800,-0.031
52.5200,-0.031
52.5600,0.065
52.6000,-0.017
52.6400,-0.034
52.6800,0.062
52.7200,0.023
52.7600,-0.046
52.8000,-0.021
52.8400,-0.041
52.8800,-0.009
52.9200,0.010
52.9600,0.073
53.0000,0.015
53.0400,-0.040
53.0800,-0.007
53.1200,-0.021
53.1600,0.002
53.2000,0.008
53.2400,0.008
53.2800,-0.011
53.3200,-0.015
53.3600,0.011
53.4000,0.021
53.4400,-0.004
53.4800,0.009
53.5200,-0.073
53.5600,-0.010
53.6000,0.009
53.6400,0.017
53.6800,0.046
53.7200,0.055
53.7600,0.103
53.8000,-0.029
53.8400,-0.010
53.8800,-0.050
53.9200,0.033
53.9600,0.044
54.0000,0.044
54.0400,0.009
54.0800,-0.031
54.1200,0.065
54.1600,0.032
54.2000,-0.075
54.2400,-0.026
54.2800,-0.006
54.3200,0.051
54.3600,-0.014
54.4000,-0.025
54.4400,-0.020
54.4800,-0.032
54.5200,-0.040
54.5600,-0.017
54.6000,0.006
54.6400,0.000
54.6800,0.049
54.7200,0.043
54.7600,0.053
54.8000,-0.008
54.8400,-0.058
54.8800,0.008
54.9200,0.113
54.9600,0.038
55.0000,0.056
55.0400,-0.110
55.0800,-0.040
55.1200,-0.002
55.1600,0.002
55.2000,0.018
55.2400,-0.033
55.2800,-0.030
55.3200,-0.040
55.3600,0.022
55.4000,-0.002
55.4400,0.076
55.4800,0.065
55.5200,-0.060
55.5600,-0.024
55.6000,-0.031
55.6400,-0.014
55.6800,0.048
55.7200,-0.029
55.7600,0.022
55.8000,-0.003
55.8400,0.028
55.8800,0.002
55.9200,-0.021
55.9600,-0.039
56.0000,-0.063
56.0400,0.040
56.0800,-0.007
56.1200,-0.033
56.1600,-0.040
56.2000,-0.021
56.2400,0.031
56.2800,-0.048
56.3200,0.025
56.3600,0.026
56.4000,-0.082
56.4400,-0.026
56.4800,0.003
56.5200,-0.002
56.5600,0.002
56.6000,-0.046
56.6400,0.029
56.6800,-0.079
56.7200,-0.006
56.7600,0.079
56.8000,0.055
56.8400,0.028
56.8800,0.004
56.9200,-0.027
56.9600,-0.039
57.0000,0.020
57.0400,-0.001
57.0800,0.037
57.1200,0.009
57.1600,-0.012
57.2000,-0.030
57.2400,-0.047
57.2800,0.048
57.3200,0.049
57.3600,-0.021
57.4000,-0.075
57.4400,0.018
57.4800,0.070
57.5200,-0.090
57.5600,-0.028
57.6000,0.041
57.6400,0.068
57.6800,0.037
57.7200,0.021
57.7600,-0.045
57.8000,0.068
57.8400,-0.004
57.8800,-0.021
57.9200,-0.015
57.9600,0.024
58.0000,-0.013
58.0400,-0.038
58.0800,-0.014
58.1200,-0.038
58.1600,0.004
58.2000,-0.016
58.2400,0.013
58.2800,0.014
58.3200,-0.036
58.3600,-0.039
58.4000,-0.032
58.4400,-0.010
58.4800,-0.029
58.5200,0.032
58.5600,0.035
58.6000,0.031
58.6400,0.026
58.6800,0.045
58.7200,-0.027
58.7600,-0.051
58.8000,0.035
58.8400,-0.019
58.8800,-0.077
58.9200,0.020
58.9600,-0.033
59.0000,0.045
59.0400,0.003
59.0800,-0.048
59.1200,0.032
59.1600,-0.016
59.2000,0.048
59.2400,-0.038
59.2800,-0.114
59.3200,0.067
59.3600,0.075
59.4000,0.005
59.4400,0.024
59.4800,0.023
59.5200,-0.005
59.5600,0.057
59.6000,-0.055
59.6400,-0.036
59.6800,0.007
59.7200,-0.037
59.7600,0.026
59.8000,0.046
59.8400,-0.046
59.8800,-0.038
59.9200,0.051
59.9600,0.031
60.0000,-0.002
60.0400,-0.005
60.0800,-0.028
60.1200,-0.005
60.1600,-0.038
60.2000,-0.006
60.2400,-0.026
60.2800,-0.014
60.3200,-0.033
60.3600,0.026
60.4000,-0.002
60.4400,-0.015
60.4800,0.071
60.5200,0.008
60.5600,-0.069
60.6000,-0.008
60.6400,-0.001
60.6800,-0.032
60.7200,-0.030
60.7600,-0.006
60.8000,-0.034
60.8400,-0.036
60.8800,0.036
60.9200,0.018
60.9600,-0.041
61.0000,-0.017
61.0400,0.061
61.0800,0.003
61.1200,-0.028
61.1600,-0.003
61.2000,-0.037
61.2400,-0.020
61.2800,0.029
61.3200,0.015
61.3600,0.005
61.4000,0.023
61.4400,-0.025
61.4800,0.009
61.5200,-0.037
61.5600,-0.014
61.6000,0.048
61.6400,0.050
61.6800,0.102
61.7200,0.038
61.7600,0.023
61.8000,0.013
61.8400,0.001
61.8800,-0.036
61.9200,-0.004
61.9600,0.002
62.0000,-0.036
62.0400,-0.019
62.0800,-0.013
62.1200,0.003
62.1600,-0.005
62.2000,-0.036
62.2400,0.003
62.2800,-0.039
62.3200,0.004
62.3600,0.039
62.4000,0.016
62.4400,0.044
62.4800,0.020
62.5200,0.008
62.5600,-0.058
62.6000,0.044
62.6400,0.024
62.6800,0.013
62.7200,-0.010
62.7600,0.007
62.8000,0.093
62.8400,0.001
62.8800,-0.054
62.9200,-0.003
62.9600,0.016
63.0000,0.059
63.0400,0.032
63.0800,-0.007
63.1200,0.018
63.1600,-0.033
63.2000,0.019
63.2400,0.012
63.2800,-0.039
63.3200,-0.017
63.3600,0.001
63.4000,0.010
63.4400,0.000
63.4800,0.012
63.5200,-0.034
63.5600,0.089
63.6000,0.007
63.6400,-0.005
63.6800,0.027
63.7200,0.027
63.7600,0.059
63.8000,0.004
63.8400,0.048
63.8800,0.090
63.9200,0.041
63.9600,0.063
64.0000,0.013
64.0400,0.015
64.0800,-0.043
64.1200,-0.015
64.1600,0.026
64.2000,0.007
64.2400,0.031
64.2800,-0.036
64.3200,-0.036
64.3600,0.035
64.4000,0.015
64.4400,0.037
64.4800,-0.042
64.5200,0.037
64.5600,-0.032
64.6000,-0.021
64.6400,-0.008
64.6800,0.004
64.7200,-0.009
64.7600,-0.006
64.8000,0.024
64.8400,-0.038
64.8800,-0.003
64.9200,-0.017
64.9600,-0.015
65.0000,-0.014
65.0400,-0.029
65.0800,0.013
65.1200,0.080
65.1600,-0.025
65.2000,-0.011
65.2400,0.000
65.2800,0.060
65.3200,-0.040
65.3600,-0.065
65.4000,0.045
65.4400,0.026
65.4800,0.057
65.5200,0.030
65.5600,0.038
65.6000,-0.004
65.6400,0.003
65.6800,-0.039
65.7200,-0.019
65.7600,0.095
65.8000,-0.011
65.8400,-0.014
65.8800,-0.021
65.9200,0.037
65.9600,0.001
66.0000,-0.045
66.0400,-0.001
66.0800,-0.005
66.1200,-0.075
66.1600,0.033
66.2000,-0.036
66.2400,-0.028
66.2800,-0.072
66.3200,0.028
66.3600,-0.017
66.4000,0.026
66.4400,-0.005
66.4800,0.035
66.5200,0.051
66.5600,-0.014
66.6000,-0.024
66.6400,0.019
66.6800,0.027
66.7200,0.077
66.7600,0.020
66.8000,-0.047
66.8400,-0.034
66.8800,-0.034
66.9200,0.028
66.9600,0.010
67.0000,-0.066
67.0400,0.086
67.0800,0.149
67.1200,-0.027
67.1600,0.033
67.2000,0.025
67.2400,-0.024
67.2800,-0.045
67.3200,0.025
67.3600,0.068
67.4000,0.012
67.4400,-0.032
67.4800,0.058
67.5200,0.153
67.5600,0.031
67.6000,0.088
67.6400,0.125
67.6800,0.165
67.7200,0.077
67.7600,0.205
67.8000,0.143
67.8400,0.286
67.8800,0.235
67.9200,0.215
67.9600,0.303
68.0000,0.301
68.0400,0.311
68.0800,0.407
68.1200,0.392
68.1600,0.515
68.2000,0.508
68.2400,0.638
68.2800,0.709
68.3200,0.614
68.3600,0.783
68.4000,0.876
68.4400,1.038
68.4800,1.015
68.5200,1.180
68.5600,1.319
68.6000,1.521
68.6400,1.860
68.6800,2.410
68.7200,3.251
68.7600,4.596
68.8000,6.071
68.8400,6.540
68.8800,6.513
68.9200,7.381
68.9600,9.496
69.0000,14.829
69.0400,29.276
69.0800,108.857
69.1200,446.680
69.1600,562.381
69.2000,218.636
69.2400,56.817
69.2800,80.179
69.3200,238.911
69.3600,275.428
69.4000,105.393
69.4400,25.778
69.4800,12.032
69.5200,7.899
69.5600,5.811
69.6000,4.669
69.6400,3.861
69.6800,3.246
69.7200,2.896
69.7600,2.362
69.8000,2.019
69.8400,1.851
69.8800,1.672
69.9200,1.391
69.9600,1.311
70.0000,1.166
70.0400,1.171
70.0800,1.005
70.1200,0.826
70.1600,0.779
70.2000,0.844
70.2400,0.832
70.2800,0.821
70.3200,0.637
70.3600,0.478
70.4000,0.565
70.4400,0.496
70.4800,0.336
70.5200,0.396
70.5600,0.261
70.6000,0.241
70.6400,0.313
70.6800,0.180
70.7200,0.220
70.7600,0.183
70.8000,0.203
70.8400,0.046
70.8800,0.174
70.9200,0.095
70.9600,0.079
71.0000,-0.005
71.0400,0.032
71.0800,0.035
71.1200,0.089
71.1600,-0.020
71.2000,-0.005
71.2400,0.000
71.2800,-0.003
71.3200,-0.074
71.3600,0.002
71.4000,-0.039
71.4400,-0.062
71.4800,0.040
71.5200,0.079
71.5600,-0.064
71.6000,-0.046
71.6400,0.002
71.6800,-0.024
71.7200,0.022
71.7600,-0.027
71.8000,-0.042
71.8400,-0.001
71.8800,-0.041
71.9200,0.023
71.9600,0.015
72.0000,-0.120
72.0400,-0.020
72.0800,-0.004
72.1200,0.024
72.1600,-0.080
72.2000,-0.013
72.2400,-0.018
72.2800,0.074
72.3200,-0.029
72.3600,-0.038
72.4000,0.011
72.4400,-0.001
72.4800,-0.013
72.5200,0.039
72.5600,-0.016
72.6000,-0.057
72.6400,0.027
72.6800,0.054
72.7200,-0.026
72.7600,0.044
72.8000,-0.021
72.8400,0.004
72.8800,-0.036
72.9200,-0.012
72.9600,-0.012
73.0000,0.046
73.0400,0.029
73.0800,0.029
73.1200,-0.018
73.1600,-0.013
73.2000,0.012
73.2400,-0.021
73.2800,-0.088
73.3200,0.027
73.3600,0.016
73.4000,0.029
73.4400,0.035
73.4800,-0.076
73.5200,-0.005
73.5600,-0.044
73.6000,0.006
73.6400,0.038
73.6800,0.026
73.7200,-0.052
73.7600,-0.023
73.8000,-0.033
73.8400,-0.050
73.8800,0.074
73.9200,-0.045
73.9600,-0.032
74.0000,-0.007
74.0400,-0.012
74.0800,-0.030
74.1200,0.017
74.1600,0.005
74.2000,0.001
74.2400,0.007
74.2800,0.002
74.3200,0.000
74.3600,0.010
74.4000,0.011
74.4400,-0.032
74.4800,-0.018
74.5200,0.076
74.5600,0.015
74.6000,-0.045
74.6400,0.017
74.6800,0.028
74.7200,0.032
74.7600,0.035
74.8000,-0.086
74.8400,-0.003
74.8800,-0.022
74.9200,0.019
74.9600,-0.015
75.0000,0.005
75.0400,-0.005
75.0800,0.000
75.1200,-0.038
75.1600,0.039
75.2000,0.018
75.2400,-0.004
75.2800,-0.029
75.3200,-0.027
75.3600,0.083
75.4000,0.074
75.4400,-0.006
75.4800,-0.035
75.5200,0.007
75.5600,0.001
75.6000,-0.003
75.6400,0.031
75.6800,0.002
75.7200,-0.061
75.7600,0.041
75.8000,0.009
75.8400,0.043
75.8800,0.009
75.9200,-0.028
75.9600,-0.014
76.0000,0.006
76.0400,0.008
76.0800,0.015
76.1200,0.020
76.1600,-0.048
76.2000,-0.018
76.2400,0.007
76.2800,0.026
76.3200,0.010
76.3600,-0.031
76.4000,0.043
76.4400,-0.023
76.4800,-0.032
76.5200,0.022
76.5600,-0.050
76.6000,-0.020
76.6400,-0.020
76.6800,-0.027
76.7200,-0.001
76.7600,-0.029
76.8000,-0.002
76.8400,-0.029
76.8800,-0.001
76.9200,0.058
76.9600,0.004
77.0000,0.001
77.0400,0.007
77.0800,-0.023
77.1200,-0.028
77.1600,-0.007
77.2000,-0.017
77.2400,-0.028
77.2800,0.001
77.3200,0.016
77.3600,0.001
77.4000,0.000
77.4400,-0.063
77.4800,-0.003
77.5200,0.001
77.5600,0.014
77.6000,-0.050
77.6400,0.005
77.6800,-0.052
77.7200,0.020
77.7600,-0.002
77.8000,-0.011
77.8400,0.039
77.8800,0.039
77.9200,-0.030
77.9600,0.009
78.0000,0.007
78.0400,-0.030
78.0800,-0.012
78.1200,0.001
78.1600,0.003
78.2000,-0.011
78.2400,-0.017
78.2800,-0.010
78.3200,-0.036
78.3600,0.013
78.4000,0.037
78.4400,-0.033
78.4800,-0.001
78.5200,0.024
78.5600,0.025
78.6000,-0.012
78.6400,0.006
78.6800,0.038
78.7200,0.010
78.7600,0.014
78.8000,-0.036
78.8400,-0.015
78.8800,-0.011
78.9200,-0.004
78.9600,-0.020
79.0000,0.007
79.0400,-0.015
79.0800,0.018
79.1200,0.016
79.1600,-0.037
79.2000,-0.013
79.2400,0.032
79.2800,-0.010
79.3200,0.027
79.3600,-0.020
79.4000,-0.026
79.4400,0.005
79.4800,0.018
79.5200,0.025
79.5600,-0.028
79.6000,-0.023
79.6400,0.005
79.6800,0.019
79.7200,-0.010
79.7600,0.042
79.8000,0.008
79.8400,-0.011
79.8800,0.045
79.9200,0.012
79.9600,-0.039
80.0000,-0.009
80.0400,-0.026
80.0800,-0.001
80.1200,0.029
80.1600,-0.026
80.2000,0.006
80.2400,-0.048
80.2800,0.005
80.3200,0.003
80.3600,-0.030
80.4000,-0.002
80.4400,-0.010
80.4800,0.015
80.5200,-0.010
80.5600,-0.027
80.6000,-0.018
80.6400,-0.040
80.6800,0.046
80.7200,-0.057
80.7600,-0.025
80.8000,-0.024
80.8400,0.008
80.8800,-0.042
80.9200,-0.006
80.9600,-0.013
81.0000,-0.030
81.0400,0.013
81.0800,0.004
81.1200,-0.026
81.1600,-0.008
81.2000,0.001
81.2400,0.038
81.2800,0.022
81.3200,-0.023
81.3600,-0.010
81.4000,0.012
81.4400,0.003
81.4800,-0.019
81.5200,-0.025
81.5600,0.016
81.6000,-0.019
81.6400,-0.013
81.6800,-0.012
81.7200,0.008
81.7600,-0.020
81.8000,-0.025
81.8400,0.017
81.8800,-0.010
81.9200,0.002
81.9600,0.019
82.0000,0.001
82.0400,0.015
82.0800,0.007
82.1200,0.013
82.1600,-0.016
82.2000,0.001
82.2400,0.012
82.2800,-0.021
82.3200,-0.015
82.3600,0.031
82.4000,-0.019
82.4400,0.010
82.4800,-0.013
82.5200,0.054
82.5600,0.008
82.6000,-0.029
82.6400,-0.003
82.6800,-0.024
82.7200,0.001
82.7600,0.014
82.8000,0.051
82.8400,0.010
82.8800,-0.027
82.9200,-0.012
82.9600,0.021
83.0000,0.003
83.0400,-0.004
83.0800,0.033
83.1200,-0.001
83.1600,0.001
83.2000,0.013
83.2400,-0.018
83.2800,0.012
83.3200,-0.002
83.3600,0.001
83.4000,-0.014
83.4400,-0.016
83.4800,0.030
83.5200,-0.008
83.5600,-0.048
83.6000,0.008
83.6400,-0.006
83.6800,0.051
83.7200,0.000
83.7600,0.009
83.8000,-0.036
83.8400,-0.011
83.8800,-0.024
83.9200,-0.007
83.9600,0.008
84.0000,0.033
84.0400,0.000
84.0800,0.033
84.1200,-0.018
84.1600,0.010
84.2000,-0.021
84.2400,-0.012
84.2800,-0.025
84.3200,0.006
84.3600,0.001
84.4000,0.024
84.4400,-0.037
84.4800,-0.022
84.5200,-0.024
84.5600,0.001
84.6000,0.002
84.6400,-0.024
84.6800,-0.009
84.7200,0.020
84.7600,0.021
84.8000,-0.003
84.8400,0.040
84.8800,-0.021
84.9200,0.015
84.9600,-0.042
85.0000,-0.016
85.0400,0.031
85.0800,0.019
85.1200,-0.017
85.1600,0.012
85.2000,-0.003
85.2400,0.001
85.2800,0.028
85.3200,0.001
85.3600,-0.042
85.4000,-0.004
85.4400,-0.018
85.4800,-0.025
85.5200,0.064
85.5600,-0.028
85.6000,0.018
85.6400,0.017
85.6800,0.029
85.7200,0.039
85.7600,0.020
85.8000,0.010
85.8400,-0.033
85.8800,-0.010
85.9200,0.003
85.9600,-0.005
86.0000,-0.023
86.0400,-0.024
86.0800,-0.020
86.1200,0.007
86.1600,0.018
86.2000,0.021
86.2400,-0.008
86.2800,0.022
86.3200,-0.033
86.3600,-0.018
86.4000,-0.024
86.4400,-0.002
86.4800,0.035
86.5200,-0.018
86.5600,-0.009
86.6000,0.015
86.6400,0.044
86.6800,-0.015
86.7200,-0.013
86.7600,0.080
86.8000,0.038
86.8400,0.004
86.8800,-0.026
86.9200,-0.010
86.9600,0.035
87.0000,0.010
87.0400,-0.029
87.0800,-0.002
87.1200,-0.002
87.1600,-0.042
87.2000,0.003
87.2400,-0.012
87.2800,-0.004
87.3200,0.003
87.3600,-0.003
87.4000,-0.015
87.4400,0.004
87.4800,-0.048
87.5200,0.019
87.5600,0.002
87.6000,-0.024
87.6400,-0.018
87.6800,0.002
87.7200,-0.026
87.7600,-0.004
87.8000,0.007
87.8400,0.030
87.8800,0.029
87.9200,0.006
87.9600,-0.017
88.0000,-0.024
88.0400,0.011
88.0800,0.017
88.1200,-0.014
88.1600,-0.008
88.2000,-0.012
88.2400,-0.024
88.2800,0.003
88.3200,0.012
88.3600,-0.014
88.4000,0.009
88.4400,-0.058
88.4800,0.023
88.5200,0.006
88.5600,0.018
88.6000,-0.013
88.6400,-0.027
88.6800,0.014
88.7200,0.039
88.7600,0.013
88.8000,-0.021
88.8400,0.023
88.8800,0.005
88.9200,0.009
88.9600,0.008
89.0000,0.000
89.0400,-0.024
89.0800,-0.003
89.1200,-0.032
89.1600,0.003
89.2000,0.033
89.2400,0.005
89.2800,-0.023
89.3200,0.005
89.3600,-0.010
89.4000,-0.004
89.4400,-0.002
89.4800,0.011
89.5200,0.007
89.5600,-0.019
89.6000,-0.023
89.6400,-0.022
89.6800,-0.002
89.7200,-0.021
89.7600,-0.017
89.8000,0.003
89.8400,0.011
89.8800,0.022
89.9200,-0.019
89.9600,-0.022
90.0000,0.000
