5.0400,-0.141
5.0800,-0.122
5.1200,0.001
5.1600,0.021
5.2000,0.079
5.2400,-0.011
5.2800,0.012
5.3200,0.100
5.3600,-0.171
5.4000,0.144
5.4400,0.020
5.4800,0.021
5.5200,0.061
5.5600,0.059
5.6000,0.186
5.6400,0.171
5.6800,0.221
5.7200,-0.028
5.7600,-0.219
5.8000,0.000
5.8400,0.210
5.8800,-0.159
5.9200,-0.191
5.9600,0.109
6.0000,-0.087
6.0400,-0.065
6.0800,0.095
6.1200,-0.035
6.1600,-0.053
6.2000,0.037
6.2400,-0.138
6.2800,-0.035
6.3200,-0.002
6.3600,-0.043
6.4000,-0.101
6.4400,-0.049
6.4800,-0.086
6.5200,0.050
6.5600,0.185
6.6000,-0.010
6.6400,0.023
6.6800,-0.094
6.7200,-0.241
6.7600,0.095
6.8000,-0.110
6.8400,0.059
6.8800,-0.100
6.9200,-0.065
6.9600,-0.059
7.0000,0.058
7.0400,-0.005
7.0800,0.034
7.1200,0.065
7.1600,-0.025
7.2000,-0.090
7.2400,-0.016
7.2800,-0.124
7.3200,0.068
7.3600,0.152
7.4000,0.103
7.4400,0.074
7.4800,0.018
7.5200,0.075
7.5600,0.109
7.6000,-0.110
7.6400,-0.098
7.6800,-0.098
7.7200,-0.008
7.7600,-0.007
7.8000,-0.109
7.8400,0.002
7.8800,0.041
7.9200,0.027
7.9600,0.185
8.0000,0.077
8.0400,-0.020
8.0800,0.047
8.1200,0.006
8.1600,-0.044
8.2000,0.003
8.2400,-0.097
8.2800,-0.083
8.3200,-0.039
8.3600,0.054
8.4000,0.080
8.4400,0.126
8.4800,0.059
8.5200,0.125
8.5600,-0.146
8.6000,-0.085
8.6400,0.128
8.6800,0.017
8.7200,-0.001
8.7600,0.075
8.8000,0.073
8.8400,0.056
8.8800,-0.001
8.9200,-0.093
8.9600,0.080
9.0000,-0.103
9.0400,-0.079
9.0800,0.045
9.1200,0.080
9.1600,0.055
9.2000,-0.029
9.2400,-0.075
9.2800,-0.093
9.3200,-0.095
9.3600,0.041
9.4000,-0.019
9.4400,0.060
9.4800,0.041
9.5200,-0.033
9.5600,0.002
9.6000,0.037
9.6400,-0.094
9.6800,0.144
9.7200,0.069
9.7600,0.032
9.8000,0.001
9.8400,0.042
9.8800,-0.101
9.9200,0.006
9.9600,0.005
10.0000,0.049
10.0400,0.054
10.0800,0.007
10.1200,0.043
10.1600,-0.048
10.2000,0.008
10.2400,0.069
10.2800,-0.138
10.3200,-0.021
10.3600,-0.029
10.4000,0.040
10.4400,-0.103
10.4800,-0.042
10.5200,0.028
10.5600,-0.023
10.6000,0.108
10.6400,-0.122
10.6800,-0.008
10.7200,-0.154
10.7600,0.006
10.8000,-0.028
10.8400,0.067
10.8800,-0.092
10.9200,0.080
10.9600,0.024
11.0000,-0.022
11.0400,0.008
11.0800,-0.027
11.1200,0.100
11.1600,-0.155
11.2000,-0.045
11.2400,-0.003
11.2800,-0.037
11.3200,0.067
11.3600,-0.038
11.4000,-0.001
11.4400,-0.136
11.4800,0.003
11.5200,0.032
11.5600,-0.125
11.6000,0.028
11.6400,-0.156
11.6800,-0.030
11.7200,-0.058
11.7600,-0.023
11.8000,0.126
11.8400,0.072
11.8800,0.042
11.9200,0.064
11.9600,-0.101
12.0000,0.042
12.0400,0.022
12.0800,0.120
12.1200,0.102
12.1600,0.050
12.2000,-0.098
12.2400,0.034
12.2800,-0.250
12.3200,-0.040
12.3600,0.111
12.4000,-0.028
12.4400,-0.030
12.4800,-0.155
12.5200,0.079
12.5600,0.098
12.6000,-0.038
12.6400,-0.046
12.6800,0.101
12.7200,0.066
12.7600,0.003
12.8000,-0.085
12.8400,-0.014
12.8800,-0.039
12.9200,0.102
12.9600,0.084
13.0000,0.022
13.0400,-0.024
13.0800,-0.060
13.1200,-0.024
13.1600,-0.090
13.2000,-0.024
13.2400,-0.066
13.2800,-0.090
13.3200,0.025
13.3600,-0.084
13.4000,0.110
13.4400,-0.037
13.4800,0.072
13.5200,0.085
13.5600,-0.110
13.6000,0.133
13.6400,0.080
13.6800,0.036
13.7200,0.099
13.7600,0.013
13.8000,-0.032
13.8400,-0.115
13.8800,0.049
13.9200,-0.086
13.9600,0.077
14.0000,0.069
14.0400,-0.049
14.0800,-0.142
14.1200,0.074
14.1600,-0.020
14.2000,-0.032
14.2400,0.087
14.2800,0.069
14.3200,0.035
14.3600,-0.088
14.4000,-0.046
14.4400,0.023
14.4800,0.055
14.5200,-0.076
14.5600,-0.024
14.6000,0.078
14.6400,-0.088
14.6800,-0.040
14.7200,0.050
14.7600,0.095
14.8000,0.016
14.8400,-0.176
14.8800,0.058
14.9200,0.003
14.9600,-0.031
15.0000,0.006
15.0400,-0.155
15.0800,-0.004
15.1200,-0.035
15.1600,0.060
15.2000,-0.071
15.2400,0.080
15.2800,-0.052
15.3200,0.075
15.3600,0.126
15.4000,-0.018
15.4400,-0.168
15.4800,0.017
15.5200,-0.011
15.5600,-0.108
15.6000,0.049
15.6400,-0.014
15.6800,0.019
15.7200,0.042
15.7600,-0.054
15.8000,-0.061
15.8400,0.039
15.8800,0.019
15.9200,-0.091
15.9600,0.079
16.0000,-0.035
16.0400,-0.065
16.0800,-0.116
16.1200,0.064
16.1600,0.108
16.2000,-0.013
16.2400,-0.016
16.2800,-0.045
16.3200,-0.030
16.3600,0.087
16.4000,-0.009
16.4400,0.293
16.4800,0.034
16.5200,0.047
16.5600,-0.030
16.6000,0.045
16.6400,0.133
16.6800,0.037
16.7200,-0.003
16.7600,-0.085
16.8000,-0.007
16.8400,0.105
16.8800,-0.051
16.9200,-0.102
16.9600,0.167
17.0000,0.279
17.0400,0.073
17.0800,-0.020
17.1200,-0.084
17.1600,-0.009
17.2000,0.128
17.2400,0.085
17.2800,0.098
17.3200,0.268
17.3600,0.061
17.4000,0.101
17.4400,0.019
17.4800,-0.150
17.5200,-0.020
17.5600,0.038
17.6000,0.045
17.6400,-0.057
17.6800,0.052
17.7200,0.195
17.7600,-0.129
17.8000,-0.026
17.8400,-0.052
17.8800,0.113
17.9200,-0.123
17.9600,-0.042
18.0000,-0.049
18.0400,-0.050
18.0800,-0.004
18.1200,-0.101
18.1600,0.067
18.2000,0.002
18.2400,-0.049
18.2800,0.022
18.3200,-0.009
18.3600,0.033
18.4000,-0.059
18.4400,-0.061
18.4800,-0.084
18.5200,-0.106
18.5600,0.089
18.6000,0.070
18.6400,-0.027
18.6800,-0.005
18.7200,-0.077
18.7600,0.000
18.8000,-0.029
18.8400,-0.049
18.8800,-0.005
18.9200,-0.222
18.9600,0.042
19.0000,-0.098
19.0400,0.078
19.0800,-0.073
19.1200,-0.018
19.1600,-0.020
19.2000,-0.139
19.2400,0.020
19.2800,-0.122
19.3200,-0.004
19.3600,0.049
19.4000,-0.005
19.4400,0.009
19.4800,0.054
19.5200,-0.027
19.5600,-0.083
19.6000,0.028
19.6400,-0.049
19.6800,0.009
19.7200,0.153
19.7600,0.070
19.8000,0.098
19.8400,0.000
19.8800,-0.011
19.9200,-0.092
19.9600,0.001
20.0000,-0.025
20.0400,0.049
20.0800,0.078
20.1200,0.134
20.1600,0.122
20.2000,0.016
20.2400,-0.056
20.2800,0.025
20.3200,-0.043
20.3600,-0.006
20.4000,0.015
20.4400,0.074
20.4800,-0.018
20.5200,-0.044
20.5600,-0.022
20.6000,0.055
20.6400,0.143
20.6800,-0.034
20.7200,-0.024
20.7600,0.009
20.8000,-0.077
20.8400,0.023
20.8800,-0.066
20.9200,0.051
20.9600,-0.128
21.0000,-0.053
21.0400,0.008
21.0800,0.096
21.1200,-0.114
21.1600,-0.047
21.2000,-0.032
21.2400,0.028
21.2800,0.064
21.3200,-0.017
21.3600,0.022
21.4000,-0.106
21.4400,0.040
21.4800,-0.105
21.5200,-0.024
21.5600,-0.079
21.6000,0.017
21.6400,-0.011
21.6800,0.048
21.7200,0.004
21.7600,-0.088
21.8000,0.006
21.8400,-0.044
21.8800,0.054
21.9200,-0.064
21.9600,0.003
22.0000,-0.076
22.0400,0.091
22.0800,0.044
22.1200,0.014
22.1600,0.073
22.2000,0.055
22.2400,-0.050
22.2800,-0.072
22.3200,-0.078
22.3600,-0.107
22.4000,0.095
22.4400,-0.098
22.4800,-0.020
22.5200,-0.031
22.5600,-0.153
22.6000,0.036
22.6400,-0.035
22.6800,0.085
22.7200,-0.077
22.7600,-0.014
22.8000,-0.161
22.8400,0.011
22.8800,-0.117
22.9200,0.031
22.9600,-0.006
23.0000,-0.003
23.0400,-0.027
23.0800,0.115
23.1200,-0.058
23.1600,-0.031
23.2000,0.002
23.2400,0.014
23.2800,0.036
23.3200,0.014
23.3600,0.026
23.4000,0.086
23.4400,-0.086
23.4800,-0.021
23.5200,0.091
23.5600,-0.012
23.6000,-0.072
23.6400,-0.002
23.6800,0.083
23.7200,0.115
23.7600,0.049
23.8000,-0.060
23.8400,-0.076
23.8800,-0.073
23.9200,-0.014
23.9600,0.000
24.0000,0.109
24.0400,0.049
24.0800,-0.151
24.1200,-0.049
24.1600,0.018
24.2000,0.047
24.2400,0.028
24.2800,0.119
24.3200,-0.001
24.3600,0.027
24.4000,-0.114
24.4400,0.062
24.4800,-0.011
24.5200,-0.043
24.5600,0.104
24.6000,-0.167
24.6400,-0.064
24.6800,0.031
24.7200,0.033
24.7600,0.014
24.8000,-0.061
24.8400,0.018
24.8800,-0.005
24.9200,-0.074
24.9600,-0.031
25.0000,0.073
25.0400,-0.044
25.0800,0.068
25.1200,-0.006
25.1600,-0.035
25.2000,0.107
25.2400,-0.150
25.2800,0.005
25.3200,-0.013
25.3600,-0.045
25.4000,0.006
25.4400,0.039
25.4800,0.146
25.5200,0.002
25.5600,-0.009
25.6000,0.014
25.6400,0.118
25.6800,0.105
25.7200,0.087
25.7600,0.165
25.8000,0.062
25.8400,0.014
25.8800,0.049
25.9200,-0.072
25.9600,-0.115
26.0000,0.104
26.0400,-0.005
26.0800,0.018
26.1200,0.053
26.1600,0.035
26.2000,0.002
26.2400,0.144
26.2800,0.097
26.3200,-0.019
26.3600,-0.072
26.4000,-0.053
26.4400,0.006
26.4800,-0.045
26.5200,0.077
26.5600,0.009
26.6000,0.103
26.6400,-0.054
26.6800,0.002
26.7200,0.112
26.7600,0.004
26.8000,-0.037
26.8400,0.102
26.8800,0.003
26.9200,0.031
26.9600,-0.094
27.0000,0.123
27.0400,0.027
27.0800,0.036
27.1200,0.086
27.1600,-0.142
27.2000,0.137
27.2400,-0.022
27.2800,-0.095
27.3200,0.019
27.3600,0.050
27.4000,-0.082
27.4400,-0.020
27.4800,-0.047
27.5200,0.014
27.5600,0.100
27.6000,0.025
27.6400,0.052
27.6800,0.030
27.7200,0.084
27.7600,0.039
27.8000,-0.020
27.8400,-0.039
27.8800,-0.031
27.9200,0.102
27.9600,0.025
28.0000,-0.047
28.0400,-0.078
28.0800,0.042
28.1200,0.022
28.1600,-0.069
28.2000,-0.045
28.2400,-0.115
28.2800,0.045
28.3200,-0.085
28.3600,0.006
28.4000,-0.070
28.4400,-0.050
28.4800,0.044
28.5200,-0.011
28.5600,-0.041
28.6000,0.034
28.6400,-0.124
28.6800,0.059
28.7200,-0.001
28.7600,-0.020
28.8000,0.068
28.8400,-0.088
28.8800,0.004
28.9200,0.123
28.9600,-0.038
29.0000,0.037
29.0400,-0.034
29.0800,-0.106
29.1200,0.035
29.1600,-0.031
29.2000,0.021
29.2400,-0.041
29.2800,0.013
29.3200,-0.050
29.3600,-0.069
29.4000,0.025
29.4400,-0.033
29.4800,-0.107
29.5200,0.034
29.5600,0.076
29.6000,-0.060
29.6400,0.095
29.6800,0.004
29.7200,-0.096
29.7600,-0.006
29.8000,-0.052
29.8400,-0.034
29.8800,0.066
29.9200,-0.075
29.9600,0.089
30.0000,0.125
30.0400,0.029
30.0800,-0.005
30.1200,0.046
30.1600,-0.053
30.2000,-0.067
30.2400,0.000
30.2800,0.107
30.3200,-0.066
30.3600,-0.003
30.4000,0.026
30.4400,-0.077
30.4800,-0.027
30.5200,0.042
30.5600,0.013
30.6000,-0.071
30.6400,-0.009
30.6800,-0.005
30.7200,0.031
30.7600,0.000
30.8000,0.025
30.8400,0.015
30.8800,0.091
30.9200,-0.021
30.9600,-0.066
31.0000,-0.042
31.0400,0.017
31.0800,0.006
31.1200,-0.121
31.1600,-0.004
31.2000,-0.007
31.2400,0.016
31.2800,-0.031
31.3200,-0.066
31.3600,0.029
31.4000,-0.086
31.4400,0.050
31.4800,0.010
31.5200,-0.003
31.5600,-0.007
31.6000,-0.027
31.6400,-0.129
31.6800,0.029
31.7200,-0.022
31.7600,-0.054
31.8000,-0.036
31.8400,0.076
31.8800,0.018
31.9200,0.033
31.9600,-0.027
32.0000,0.010
32.0400,-0.026
32.0800,0.025
32.1200,-0.071
32.1600,-0.023
32.2000,0.005
32.2400,0.024
32.2800,-0.065
32.3200,-0.057
32.3600,0.084
32.4000,0.037
32.4400,-0.074
32.4800,0.003
32.5200,0.000
32.5600,-0.062
32.6000,-0.070
32.6400,0.106
32.6800,-0.048
32.7200,0.035
32.7600,0.062
32.8000,-0.048
32.8400,0.050
32.8800,0.059
32.9200,0.043
32.9600,-0.050
33.0000,0.140
33.0400,-0.071
33.0800,-0.059
33.1200,-0.064
33.1600,-0.004
33.2000,0.044
33.2400,-0.050
33.2800,0.029
33.3200,-0.007
33.3600,0.092
33.4000,-0.027
33.4400,-0.001
33.4800,0.105
33.5200,0.136
33.5600,0.048
33.6000,-0.029
33.6400,0.025
33.6800,-0.058
33.7200,-0.027
33.7600,-0.009
33.8000,0.028
33.8400,0.030
33.8800,0.037
33.9200,-0.011
33.9600,0.067
34.0000,-0.010
34.0400,-0.049
34.0800,0.077
34.1200,-0.121
34.1600,-0.062
34.2000,-0.024
34.2400,0.048
34.2800,0.005
34.3200,-0.012
34.3600,-0.040
34.4000,-0.012
34.4400,0.083
34.4800,0.003
34.5200,-0.046
34.5600,-0.041
34.6000,-0.041
34.6400,-0.010
34.6800,-0.093
34.7200,0.082
34.7600,0.094
34.8000,-0.039
34.8400,0.030
34.8800,-0.061
34.9200,0.028
34.9600,-0.021
35.0000,-0.029
35.0400,0.050
35.0800,0.172
35.1200,-0.009
35.1600,0.021
35.2000,-0.054
35.2400,-0.062
35.2800,-0.024
35.3200,-0.006
35.3600,0.005
35.4000,-0.020
35.4400,-0.035
35.4800,-0.053
35.5200,0.041
35.5600,-0.032
35.6000,-0.058
35.6400,0.023
35.6800,-0.050
35.7200,-0.063
35.7600,-0.028
35.8000,0.019
35.8400,-0.101
35.8800,0.085
35.9200,-0.045
35.9600,-0.052
36.0000,0.022
36.0400,0.028
36.0800,-0.027
36.1200,0.109
36.1600,-0.013
36.2000,0.029
36.2400,-0.065
36.2800,-0.034
36.3200,-0.050
36.3600,0.078
36.4000,-0.040
36.4400,0.000
36.4800,0.020
36.5200,-0.089
36.5600,-0.024
36.6000,0.101
36.6400,-0.040
36.6800,-0.040
36.7200,0.013
36.7600,-0.053
36.8000,0.030
36.8400,0.017
36.8800,-0.064
36.9200,-0.033
36.9600,0.051
37.0000,0.011
37.0400,-0.110
37.0800,-0.009
37.1200,0.083
37.1600,-0.021
37.2000,0.200
37.2400,0.045
37.2800,0.023
37.3200,0.033
37.3600,0.145
37.4000,0.150
37.4400,0.323
37.4800,0.235
37.5200,0.337
37.5600,0.513
37.6000,0.757
37.6400,0.785
37.6800,0.874
37.7200,0.875
37.7600,1.314
37.8000,1.664
37.8400,1.938
37.8800,2.416
37.9200,3.247
37.9600,4.315
38.0000,6.031
38.0400,8.939
38.0800,13.171
38.1200,19.125
38.1600,25.054
38.2000,29.965
38.2400,30.473
38.2800,27.814
38.3200,22.893
38.3600,17.221
38.4000,11.898
38.4400,8.400
38.4800,5.791
38.5200,4.411
38.5600,3.242
38.6000,2.489
38.6400,2.056
38.6800,1.675
38.7200,1.311
38.7600,0.961
38.8000,0.925
38.8400,0.884
38.8800,0.679
38.9200,0.549
38.9600,0.485
39.0000,0.296
39.0400,0.362
39.0800,0.307
39.1200,0.181
39.1600,0.189
39.2000,0.153
39.2400,0.183
39.2800,0.050
39.3200,0.076
39.3600,0.046
39.4000,-0.045
39.4400,0.073
39.4800,-0.048
39.5200,0.013
39.5600,-0.082
39.6000,-0.012
39.6400,0.039
39.6800,0.074
39.7200,-0.113
39.7600,-0.021
39.8000,-0.028
39.8400,0.042
39.8800,-0.062
39.9200,-0.051
39.9600,0.035
40.0000,0.094
40.0400,-0.014
40.0800,0.052
40.1200,-0.095
40.1600,-0.003
40.2000,0.001
40.2400,-0.050
40.2800,0.033
40.3200,0.117
40.3600,-0.077
40.4000,-0.049
40.4400,-0.002
40.4800,-0.006
40.5200,0.091
40.5600,0.042
40.6000,0.142
40.6400,0.008
40.6800,0.101
40.7200,-0.089
40.7600,-0.050
40.8000,-0.056
40.8400,-0.047
40.8800,-0.023
40.9200,0.025
40.9600,0.033
41.0000,0.044
41.0400,0.002
41.0800,0.011
41.1200,0.023
41.1600,0.068
41.2000,-0.012
41.2400,-0.014
41.2800,-0.004
41.3200,0.037
41.3600,0.083
41.4000,-0.033
41.4400,0.024
41.4800,-0.046
41.5200,0.043
41.5600,-0.023
41.6000,0.000
41.6400,0.029
41.6800,-0.040
41.7200,-0.054
41.7600,-0.019
41.8000,-0.050
41.8400,-0.032
41.8800,-0.007
41.9200,0.141
41.9600,0.017
42.0000,0.040
42.0400,0.007
42.0800,0.068
42.1200,-0.009
42.1600,0.034
42.2000,0.104
42.2400,-0.001
42.2800,0.053
42.3200,0.054
42.3600,-0.016
42.4000,-0.055
42.4400,-0.037
42.4800,0.032
42.5200,0.051
42.5600,-0.041
42.6000,0.013
42.6400,-0.027
42.6800,0.007
42.7200,-0.022
42.7600,0.102
42.8000,-0.023
42.8400,0.025
42.8800,-0.001
42.9200,-0.093
42.9600,-0.003
43.0000,0.088
43.0400,0.049
43.0800,0.004
43.1200,-0.014
43.1600,0.002
43.2000,0.002
43.2400,-0.091
43.2800,0.000
43.3200,0.048
43.3600,0.042
43.4000,-0.019
43.4400,0.006
43.4800,0.057
43.5200,0.139
43.5600,0.111
43.6000,0.040
43.6400,0.232
43.6800,0.271
43.7200,0.263
43.7600,0.448
43.8000,0.399
43.8400,0.444
43.8800,0.500
43.9200,0.616
43.9600,0.827
44.0000,0.902
44.0400,1.115
44.0800,1.205
44.1200,1.585
44.1600,1.900
44.2000,2.333
44.2400,2.988
44.2800,3.579
44.3200,4.483
44.3600,5.333
44.4000,5.712
44.4400,6.058
44.4800,6.112
44.5200,5.739
44.5600,5.116
44.6000,4.496
44.6400,3.640
44.6800,2.937
44.7200,2.295
44.7600,1.756
44.8000,1.236
44.8400,1.283
44.8800,0.990
44.9200,0.816
44.9600,0.782
45.0000,0.622
45.0400,0.419
45.0800,0.382
45.1200,0.312
45.1600,0.304
45.2000,0.247
45.2400,0.265
45.2800,0.245
45.3200,0.242
45.3600,0.127
45.4000,0.177
45.4400,0.134
45.4800,0.170
45.5200,0.158
45.5600,-0.073
45.6000,-0.052
45.6400,0.055
45.6800,0.079
45.7200,0.128
45.7600,0.147
45.8000,0.022
45.8400,0.057
45.8800,0.009
45.9200,0.051
45.9600,0.087
46.0000,0.046
46.0400,0.068
46.0800,0.052
46.1200,-0.004
46.1600,0.001
46.2000,0.153
46.2400,0.031
46.2800,-0.009
46.3200,-0.050
46.3600,-0.002
46.4000,0.021
46.4400,-0.024
46.4800,-0.001
46.5200,0.030
46.5600,0.004
46.6000,0.071
46.6400,0.101
46.6800,-0.056
46.7200,0.008
46.7600,0.027
46.8000,-0.014
46.8400,-0.102
46.8800,0.021
46.9200,0.026
46.9600,-0.001
47.0000,0.003
47.0400,-0.051
47.0800,0.007
47.1200,-0.038
47.1600,0.002
47.2000,-0.080
47.2400,-0.004
47.2800,0.037
47.3200,0.055
47.3600,0.049
47.4000,-0.036
47.4400,0.019
47.4800,-0.040
47.5200,-0.032
47.5600,-0.022
47.6000,0.049
47.6400,-0.020
47.6800,-0.015
47.7200,0.044
47.7600,0.023
47.8000,-0.048
47.8400,-0.029
47.8800,0.029
47.9200,0.046
47.9600,-0.093
48.0000,-0.005
48.0400,-0.026
48.0800,-0.002
48.1200,-0.040
48.1600,0.000
48.2000,-0.047
48.2400,-0.030
48.2800,0.002
48.3200,-0.014
48.3600,-0.039
48.4000,-0.010
48.4400,-0.026
48.4800,0.015
48.5200,0.038
48.5600,-0.010
48.6000,-0.054
48.6400,0.065
48.6800,0.005
48.7200,-0.063
48.7600,-0.006
48.8000,-0.032
48.8400,0.025
48.8800,0.061
48.9200,0.009
48.9600,0.014
49.0000,-0.001
49.0400,-0.058
49.0800,0.000
49.1200,0.083
49.1600,-0.045
49.2000,0.032
49.2400,0.049
49.2800,0.036
49.3200,-0.015
49.3600,-0.014
49.4000,-0.030
49.4400,0.020
49.4800,-0.036
49.5200,-0.043
49.5600,-0.046
49.6000,-0.046
49.6400,-0.016
49.6800,-0.002
49.7200,-0.041
49.7600,0.009
49.8000,0.020
49.8400,-0.045
49.8800,-0.069
49.9200,0.047
49.9600,0.025
50.0000,-0.059
50.0400,-0.022
50.0800,0.013
50.1200,-0.058
50.1600,-0.013
50.2000,0.049
50.2400,0.062
50.2800,0.001
50.3200,0.021
50.3600,0.050
50.4000,0.086
50.4400,0.046
50.4800,-0.044
50.5200,-0.044
50.5600,0.037
50.6000,-0.019
50.6400,0.070
50.6800,-0.005
50.7200,-0.004
50.7600,-0.036
50.8000,-0.065
50.8400,0.038
50.8800,0.034
50.9200,-0.030
50.9600,-0.018
51.0000,-0.020
51.0400,0.046
51.0800,0.011
51.1200,0.011
51.1600,-0.003
51.2000,0.018
51.2400,0.004
51.2800,-0.009
51.3200,-0.043
51.3600,-0.012
51.4000,-0.012
51.4400,0.045
51.4800,0.067
51.5200,0.011
51.5600,0.068
51.6000,0.039
51.6400,0.027
51.6800,-0.025
51.7200,-0.058
51.7600,0.020
51.8000,0.005
51.8400,0.012
51.8800,0.011
51.9200,0.132
51.9600,0.010
52.0000,0.005
52.0400,0.080
52.0800,0.022
52.1200,0.031
52.1600,-0.011
52.2000,0.026
52.2400,-0.039
52.2800,-0.017
52.3200,-0.039
52.3600,-0.011
52.4000,0.023
52.4400,0.060
52.4800,0.064
52.5200,0.002
52.5600,-0.072
52.6000,-0.002
52.6400,-0.036
52.6800,0.019
52.7200,0.026
52.7600,-0.036
52.8000,-0.012
52.8400,-0.002
52.8800,-0.008
52.9200,-0.011
52.9600,-0.007
53.0000,-0.037
53.0400,0.006
53.0800,-0.007
53.1200,-0.061
53.1600,0.008
53.2000,0.074
53.2400,0.048
53.2800,0.014
53.3200,-0.025
53.3600,0.039
53.4000,0.031
53.4400,0.035
53.4800,0.023
53.5200,0.063
53.5600,0.005
53.6000,-0.051
53.6400,-0.011
53.6800,0.118
53.7200,0.015
53.7600,0.032
53.8000,-0.025
53.8400,-0.004
53.8800,-0.014
53.9200,0.021
53.9600,-0.033
54.0000,-0.002
54.0400,0.081
54.0800,0.077
54.1200,0.027
54.1600,0.023
54.2000,-0.053
54.2400,0.069
54.2800,0.021
54.3200,0.029
54.3600,0.012
54.4000,0.053
54.4400,0.041
54.4800,0.048
54.5200,0.023
54.5600,-0.064
54.6000,-0.028
54.6400,0.003
54.6800,0.104
54.7200,0.032
54.7600,0.023
54.8000,0.081
54.8400,0.018
54.8800,0.130
54.9200,0.068
54.9600,0.016
55.0000,0.082
55.0400,0.021
55.0800,-0.012
55.1200,-0.041
55.1600,-0.010
55.2000,0.049
55.2400,0.008
55.2800,0.038
55.3200,-0.021
55.3600,0.044
55.4000,-0.017
55.4400,0.008
55.4800,-0.025
55.5200,0.036
55.5600,0.110
55.6000,-0.029
55.6400,0.029
55.6800,-0.015
55.7200,-0.041
55.7600,0.003
55.8000,0.023
55.8400,-0.048
55.8800,0.030
55.9200,0.066
55.9600,0.012
56.0000,-0.055
56.0400,-0.002
56.0800,0.043
56.1200,-0.028
56.1600,-0.040
56.2000,-0.039
56.2400,0.023
56.2800,-0.026
56.3200,0.053
56.3600,-0.020
56.4000,0.027
56.4400,0.071
56.4800,-0.006
56.5200,-0.014
56.5600,-0.054
56.6000,0.015
56.6400,-0.051
56.6800,0.034
56.7200,0.009
56.7600,-0.008
56.8000,-0.021
56.8400,0.032
56.8800,0.061
56.9200,-0.036
56.9600,-0.040
57.0000,-0.012
57.0400,-0.006
57.0800,0.041
57.1200,0.062
57.1600,-0.005
57.2000,-0.012
57.2400,0.043
57.2800,0.011
57.3200,-0.009
57.3600,-0.029
57.4000,0.005
57.4400,-0.051
57.4800,-0.005
57.5200,-0.015
57.5600,0.003
57.6000,0.003
57.6400,0.005
57.6800,0.038
57.7200,0.035
57.7600,0.008
57.8000,-0.039
57.8400,-0.012
57.8800,-0.039
57.9200,-0.021
57.9600,-0.010
58.0000,0.007
58.0400,-0.048
58.0800,-0.004
58.1200,0.003
58.1600,-0.014
58.2000,-0.001
58.2400,0.017
58.2800,-0.051
58.3200,0.097
58.3600,-0.001
58.4000,-0.045
58.4400,0.015
58.4800,0.018
58.5200,0.022
58.5600,-0.050
58.6000,0.038
58.6400,0.000
58.6800,-0.016
58.7200,0.064
58.7600,-0.018
58.8000,0.000
58.8400,-0.057
58.8800,0.001
58.9200,-0.046
58.9600,0.009
59.0000,-0.022
59.0400,-0.053
59.0800,0.023
59.1200,-0.003
59.1600,0.010
59.2000,-0.041
59.2400,0.017
59.2800,0.084
59.3200,0.029
59.3600,-0.026
59.4000,0.008
59.4400,-0.072
59.4800,-0.005
59.5200,-0.034
59.5600,-0.039
59.6000,0.005
59.6400,0.091
59.6800,0.060
59.7200,0.009
59.7600,-0.007
59.8000,-0.017
59.8400,0.036
59.8800,0.055
59.9200,0.010
59.9600,-0.013
60.0000,-0.032
60.0400,0.048
60.0800,0.041
60.1200,0.032
60.1600,-0.008
60.2000,-0.013
60.2400,-0.007
60.2800,-0.034
60.3200,0.074
60.3600,0.036
60.4000,-0.038
60.4400,-0.039
60.4800,0.093
60.5200,0.087
60.5600,0.049
60.6000,0.016
60.6400,-0.004
60.6800,0.011
60.7200,0.046
60.7600,0.038
60.8000,0.063
60.8400,0.046
60.8800,-0.078
60.9200,0.000
60.9600,0.007
61.0000,0.047
61.0400,-0.040
61.0800,-0.038
61.1200,-0.029
61.1600,0.025
61.2000,-0.020
61.2400,-0.051
61.2800,0.017
61.3200,0.026
61.3600,0.049
61.4000,0.027
61.4400,-0.040
61.4800,-0.017
61.5200,-0.026
61.5600,0.004
61.6000,0.067
61.6400,0.083
61.6800,0.116
61.7200,-0.004
61.7600,-0.070
61.8000,0.011
61.8400,-0.013
61.8800,-0.068
61.9200,0.011
61.9600,-0.028
62.0000,-0.029
62.0400,0.033
62.0800,0.008
62.1200,0.012
62.1600,-0.021
62.2000,-0.038
62.2400,-0.034
62.2800,-0.035
62.3200,0.007
62.3600,-0.029
62.4000,-0.056
62.4400,0.030
62.4800,0.058
62.5200,0.029
62.5600,-0.014
62.6000,-0.039
62.6400,-0.032
62.6800,-0.004
62.7200,-0.039
62.7600,-0.006
62.8000,0.051
62.8400,0.027
62.8800,-0.046
62.9200,-0.002
62.9600,-0.029
63.0000,0.030
63.0400,0.048
63.0800,-0.036
63.1200,-0.057
63.1600,0.033
63.2000,-0.018
63.2400,0.008
63.2800,-0.004
63.3200,0.023
63.3600,-0.030
63.4000,0.040
63.4400,-0.015
63.4800,-0.068
63.5200,0.012
63.5600,-0.016
63.6000,-0.002
63.6400,0.019
63.6800,0.034
63.7200,-0.046
63.7600,-0.034
63.8000,0.032
63.8400,0.051
63.8800,-0.017
63.9200,0.117
63.9600,0.038
64.0000,-0.028
64.0400,0.088
64.0800,0.175
64.1200,0.192
64.1600,0.280
64.2000,0.270
64.2400,0.359
64.2800,0.617
64.3200,0.631
64.3600,0.763
64.4000,1.092
64.4400,1.309
64.4800,1.779
64.5200,2.278
64.5600,2.966
64.6000,3.272
64.6400,3.597
64.6800,3.578
64.7200,3.321
64.7600,2.975
64.8000,2.559
64.8400,2.312
64.8800,2.001
64.9200,1.424
64.9600,1.177
65.0000,0.920
65.0400,0.723
65.0800,0.538
65.1200,0.414
65.1600,0.323
65.2000,0.258
65.2400,0.155
65.2800,0.150
65.3200,0.118
65.3600,0.112
65.4000,0.089
65.4400,-0.032
65.4800,-0.039
65.5200,0.059
65.5600,-0.015
65.6000,0.000
65.6400,-0.048
65.6800,0.012
65.7200,-0.083
65.7600,-0.015
65.8000,-0.036
65.8400,-0.012
65.8800,0.064
65.9200,-0.094
65.9600,-0.026
66.0000,-0.044
66.0400,-0.012
66.0800,0.006
66.1200,-0.006
66.1600,0.056
66.2000,0.072
66.2400,-0.035
66.2800,-0.028
66.3200,-0.047
66.3600,0.019
66.4000,-0.040
66.4400,0.017
66.4800,0.014
66.5200,0.026
66.5600,-0.020
66.6000,-0.041
66.6400,-0.046
66.6800,0.002
66.7200,0.016
66.7600,-0.036
66.8000,-0.033
66.8400,-0.028
66.8800,-0.018
66.9200,-0.011
66.9600,0.023
67.0000,0.002
67.0400,-0.037
67.0800,0.019
67.1200,0.002
67.1600,-0.031
67.2000,-0.060
67.2400,0.029
67.2800,-0.038
67.3200,0.041
67.3600,-0.066
67.4000,-0.010
67.4400,-0.075
67.4800,0.032
67.5200,-0.005
67.5600,0.030
67.6000,-0.015
67.6400,0.090
67.6800,-0.002
67.7200,0.060
67.7600,0.057
67.8000,0.044
67.8400,0.048
67.8800,0.090
67.9200,0.104
67.9600,0.137
68.0000,0.224
68.0400,0.254
68.0800,0.314
68.1200,0.368
68.1600,0.302
68.2000,0.377
68.2400,0.403
68.2800,0.497
68.3200,0.547
68.3600,0.579
68.4000,0.737
68.4400,0.637
68.4800,0.799
68.5200,0.901
68.5600,0.949
68.6000,1.173
68.6400,1.425
68.6800,1.869
68.7200,2.550
68.7600,3.809
68.8000,4.718
68.8400,4.953
68.8800,5.130
68.9200,6.047
68.9600,8.514
69.0000,14.214
69.0400,31.694
69.0800,136.988
69.1200,393.804
69.1600,343.607
69.2000,100.898
69.2400,40.965
69.2800,88.238
69.3200,206.507
69.3600,167.233
69.4000,49.879
69.4400,15.646
69.4800,8.659
69.5200,5.687
69.5600,4.234
69.6000,3.014
69.6400,2.695
69.6800,2.307
69.7200,1.988
69.7600,1.621
69.8000,1.387
69.8400,1.112
69.8800,1.092
69.9200,1.076
69.9600,0.881
70.0000,0.906
70.0400,0.692
70.0800,0.708
70.1200,0.630
70.1600,0.576
70.2000,0.574
70.2400,0.592
70.2800,0.401
70.3200,0.287
70.3600,0.413
70.4000,0.350
70.4400,0.305
70.4800,0.202
70.5200,0.299
70.5600,0.284
70.6000,0.168
70.6400,0.265
70.6800,0.195
70.7200,0.016
70.7600,0.131
70.8000,0.046
70.8400,0.024
70.8800,0.058
70.9200,0.021
70.9600,0.047
71.0000,0.041
71.0400,0.029
71.0800,0.069
71.1200,0.059
71.1600,0.021
71.2000,-0.053
71.2400,-0.022
71.2800,0.168
71.3200,0.018
71.3600,-0.008
71.4000,0.024
71.4400,0.042
71.4800,-0.071
71.5200,0.040
71.5600,0.049
71.6000,-0.003
71.6400,-0.072
71.6800,-0.001
71.7200,-0.055
71.7600,0.057
71.8000,0.013
71.8400,-0.010
71.8800,-0.057
71.9200,0.008
71.9600,0.031
72.0000,0.038
72.0400,-0.012
72.0800,-0.025
72.1200,-0.049
72.1600,0.026
72.2000,0.027
72.2400,0.013
72.2800,-0.012
72.3200,-0.032
72.3600,0.025
72.4000,-0.027
72.4400,-0.005
72.4800,0.007
72.5200,0.018
72.5600,-0.017
72.6000,-0.037
72.6400,-0.026
72.6800,0.049
72.7200,0.051
72.7600,-0.024
72.8000,0.012
72.8400,-0.022
72.8800,0.055
72.9200,-0.008
72.9600,0.005
73.0000,0.032
73.0400,0.031
73.0800,0.058
73.1200,-0.063
73.1600,-0.035
73.2000,-0.022
73.2400,-0.025
73.2800,0.021
73.3200,-0.019
73.3600,-0.014
73.4000,-0.006
73.4400,-0.002
73.4800,0.015
73.5200,-0.030
73.5600,-0.019
73.6000,0.000
73.6400,-0.035
73.6800,-0.034
73.7200,-0.006
73.7600,0.036
73.8000,0.022
73.8400,-0.002
73.8800,-0.008
73.9200,0.037
73.9600,-0.010
74.0000,-0.021
74.0400,0.003
74.0800,-0.007
74.1200,-0.022
74.1600,-0.033
74.2000,-0.028
74.2400,0.047
74.2800,-0.026
74.3200,0.018
74.3600,-0.007
74.4000,0.003
74.4400,0.057
74.4800,0.038
74.5200,0.026
74.5600,-0.026
74.6000,0.016
74.6400,0.019
74.6800,0.011
74.7200,-0.033
74.7600,-0.010
74.8000,-0.016
74.8400,0.002
74.8800,-0.002
74.9200,-0.019
74.9600,0.029
75.0000,0.011
75.0400,-0.019
75.0800,-0.007
75.1200,0.027
75.1600,0.018
75.2000,-0.006
75.2400,-0.025
75.2800,-0.032
75.3200,0.014
75.3600,0.043
75.4000,-0.005
75.4400,0.013
75.4800,-0.007
75.5200,0.004
75.5600,-0.006
75.6000,-0.005
75.6400,0.030
75.6800,0.010
75.7200,-0.017
75.7600,-0.016
75.8000,-0.035
75.8400,0.014
75.8800,0.026
75.9200,-0.001
75.9600,0.043
76.0000,0.022
76.0400,0.002
76.0800,-0.050
76.1200,-0.001
76.1600,-0.017
76.2000,0.016
76.2400,-0.021
76.2800,-0.028
76.3200,0.056
76.3600,-0.010
76.4000,0.020
76.4400,0.002
76.4800,-0.016
76.5200,-0.067
76.5600,0.010
76.6000,-0.053
76.6400,0.007
76.6800,-0.005
76.7200,0.044
76.7600,-0.021
76.8000,0.063
76.8400,0.038
76.8800,0.006
76.9200,0.083
76.9600,0.087
77.0000,0.024
77.0400,0.080
77.0800,0.116
77.1200,0.290
77.1600,0.271
77.2000,0.372
77.2400,0.407
77.2800,0.520
77.3200,0.567
77.3600,0.762
77.4000,1.071
77.4400,1.246
77.4800,1.619
77.5200,2.036
77.5600,2.483
77.6000,2.608
77.6400,2.776
77.6800,2.824
77.7200,2.504
77.7600,2.351
77.8000,2.290
77.8400,2.061
77.8800,1.853
77.9200,1.591
77.9600,1.341
78.0000,1.093
78.0400,0.834
78.0800,0.605
78.1200,0.497
78.1600,0.414
78.2000,0.341
78.2400,0.254
78.2800,0.219
78.3200,0.098
78.3600,0.131
78.4000,0.025
78.4400,0.040
78.4800,0.014
78.5200,-0.045
78.5600,0.018
78.6000,-0.022
78.6400,0.022
78.6800,0.041
78.7200,-0.023
78.7600,-0.034
78.8000,0.000
78.8400,-0.023
78.8800,-0.007
78.9200,-0.056
78.9600,0.006
79.0000,-0.054
79.0400,-0.004
79.0800,0.064
79.1200,0.014
79.1600,-0.029
79.2000,-0.042
79.2400,0.031
79.2800,0.001
79.3200,-0.032
79.3600,-0.020
79.4000,0.030
79.4400,-0.021
79.4800,0.025
79.5200,-0.028
79.5600,-0.007
79.6000,0.033
79.6400,-0.013
79.6800,-0.014
79.7200,-0.010
79.7600,-0.021
79.8000,0.001
79.8400,-0.015
79.8800,-0.021
79.9200,-0.024
79.9600,0.032
80.0000,-0.045
80.0400,0.034
80.0800,-0.024
80.1200,-0.018
80.1600,0.010
80.2000,-0.045
80.2400,-0.014
80.2800,0.009
80.3200,0.005
80.3600,0.009
80.4000,-0.012
80.4400,-0.047
80.4800,0.011
80.5200,-0.010
80.5600,0.001
80.6000,-0.010
80.6400,0.010
80.6800,-0.035
80.7200,-0.008
80.7600,-0.030
80.8000,0.001
80.8400,-0.004
80.8800,-0.029
80.9200,-0.005
80.9600,-0.029
81.0000,0.066
81.0400,0.042
81.0800,-0.041
81.1200,0.021
81.1600,-0.032
81.2000,-0.032
81.2400,0.018
81.2800,0.090
81.3200,0.068
81.3600,0.139
81.4000,0.154
81.4400,0.141
81.4800,0.191
81.5200,0.300
81.5600,0.311
81.6000,0.449
81.6400,0.628
81.6800,0.838
81.7200,0.937
81.7600,0.883
81.8000,0.907
81.8400,0.873
81.8800,0.734
81.9200,0.744
81.9600,0.645
82.0000,0.647
82.0400,0.539
82.0800,0.392
82.1200,0.308
82.1600,0.268
82.2000,0.189
82.2400,0.064
82.2800,0.063
82.3200,0.109
82.3600,-0.006
82.4000,-0.012
82.4400,-0.030
82.4800,-0.001
82.5200,0.031
82.5600,0.006
82.6000,-0.042
82.6400,-0.004
82.6800,0.043
82.7200,-0.025
82.7600,-0.025
82.8000,-0.019
82.8400,-0.020
82.8800,-0.030
82.9200,-0.043
82.9600,0.033
83.0000,-0.027
83.0400,-0.020
83.0800,0.021
83.1200,-0.047
83.1600,-0.024
83.2000,-0.001
83.2400,0.017
83.2800,-0.009
83.3200,-0.029
83.3600,0.005
83.4000,-0.001
83.4400,-0.051
83.4800,0.007
83.5200,0.006
83.5600,0.048
83.6000,0.024
83.6400,-0.008
83.6800,-0.032
83.7200,0.023
83.7600,0.055
83.8000,0.004
83.8400,-0.028
83.8800,-0.019
83.9200,0.000
83.9600,0.029
84.0000,0.057
84.0400,0.063
84.0800,0.014
84.1200,-0.003
84.1600,-0.026
84.2000,-0.026
84.2400,0.026
84.2800,0.031
84.3200,0.006
84.3600,0.027
84.4000,0.027
84.4400,0.036
84.4800,-0.027
84.5200,0.000
84.5600,-0.053
84.6000,0.016
84.6400,0.027
84.6800,-0.031
84.7200,0.022
84.7600,0.009
84.8000,-0.027
84.8400,-0.011
84.8800,0.022
84.9200,-0.001
84.9600,-0.006
85.0000,-0.014
85.0400,0.024
85.0800,0.006
85.1200,-0.036
85.1600,0.011
85.2000,-0.026
85.2400,0.054
85.2800,-0.058
85.3200,0.006
85.3600,-0.010
85.4000,0.013
85.4400,-0.015
85.4800,0.009
85.5200,0.019
85.5600,-0.031
85.6000,-0.022
85.6400,-0.020
85.6800,-0.027
85.7200,-0.027
85.7600,0.055
85.8000,0.023
85.8400,0.041
85.8800,-0.022
85.9200,0.015
85.9600,-0.026
86.0000,0.008
86.0400,0.004
86.0800,0.014
86.1200,-0.017
86.1600,-0.010
86.2000,0.047
86.2400,-0.016
86.2800,-0.012
86.3200,0.008
86.3600,0.031
86.4000,-0.005
86.4400,-0.012
86.4800,0.012
86.5200,-0.037
86.5600,-0.016
86.6000,0.018
86.6400,0.011
86.6800,0.001
86.7200,0.029
86.7600,0.075
86.8000,0.020
86.8400,-0.007
86.8800,0.062
86.9200,-0.004
86.9600,-0.021
87.0000,-0.030
87.0400,0.019
87.0800,0.029
87.1200,-0.003
87.1600,-0.030
87.2000,0.049
87.2400,0.020
87.2800,-0.018
87.3200,-0.023
87.3600,-0.003
87.4000,0.025
87.4400,-0.044
87.4800,0.000
87.5200,0.030
87.5600,-0.027
87.6000,-0.028
87.6400,0.049
87.6800,0.021
87.7200,0.051
87.7600,0.005
87.8000,0.008
87.8400,0.024
87.8800,0.035
87.9200,-0.024
87.9600,-0.026
88.0000,0.001
88.0400,0.021
88.0800,-0.013
88.1200,-0.038
88.1600,0.037
88.2000,0.011
88.2400,-0.030
88.2800,0.024
88.3200,0.007
88.3600,0.007
88.4000,-0.001
88.4400,0.044
88.4800,0.015
88.5200,-0.041
88.5600,0.029
88.6000,-0.001
88.6400,-0.045
88.6800,-0.001
88.7200,-0.015
88.7600,0.058
88.8000,-0.026
88.8400,-0.005
88.8800,0.011
88.9200,-0.026
88.9600,-0.017
89.0000,0.049
89.0400,-0.017
89.0800,-0.014
89.1200,-0.024
89.1600,0.010
89.2000,0.040
89.2400,-0.008
89.2800,-0.067
89.3200,0.010
89.3600,-0.013
89.4000,0.010
89.4400,0.017
89.4800,-0.058
89.5200,-0.016
89.5600,-0.002
89.6000,0.027
89.6400,0.033
89.6800,0.002
89.7200,0.061
89.7600,-0.042
89.8000,-0.025
89.8400,0.000
89.8800,0.038
89.9200,-0.019
89.9600,-0.032
90.0000,0.000
