5.0400,0.001
5.0800,-0.088
5.1200,0.153
5.1600,-0.121
5.2000,-0.180
5.2400,0.137
5.2800,-0.096
5.3200,-0.043
5.3600,0.007
5.4000,0.062
5.4400,0.124
5.4800,0.087
5.5200,0.105
5.5600,0.075
5.6000,-0.056
5.6400,0.060
5.6800,-0.011
5.7200,0.106
5.7600,0.189
5.8000,-0.004
5.8400,0.216
5.8800,0.217
5.9200,-0.161
5.9600,-0.215
6.0000,0.118
6.0400,0.073
6.0800,-0.058
6.1200,-0.057
6.1600,-0.062
6.2000,0.001
6.2400,0.000
6.2800,0.018
6.3200,-0.074
6.3600,-0.059
6.4000,-0.061
6.4400,0.000
6.4800,0.019
6.5200,-0.197
6.5600,-0.043
6.6000,-0.041
6.6400,0.237
6.6800,0.039
6.7200,0.063
6.7600,0.009
6.8000,-0.084
6.8400,0.058
6.8800,0.049
6.9200,-0.004
6.9600,0.025
7.0000,-0.015
7.0400,-0.135
7.0800,0.011
7.1200,-0.001
7.1600,0.003
7.2000,-0.008
7.2400,-0.054
7.2800,-0.082
7.3200,0.028
7.3600,-0.011
7.4000,0.003
7.4400,0.147
7.4800,-0.177
7.5200,0.102
7.5600,-0.050
7.6000,0.006
7.6400,-0.034
7.6800,0.240
7.7200,-0.010
7.7600,0.114
7.8000,0.032
7.8400,0.055
7.8800,-0.014
7.9200,-0.099
7.9600,0.005
8.0000,-0.109
8.0400,0.108
8.0800,0.201
8.1200,0.044
8.1600,-0.047
8.2000,-0.117
8.2400,0.049
8.2800,0.124
8.3200,-0.081
8.3600,-0.163
8.4000,0.134
8.4400,-0.013
8.4800,-0.006
8.5200,-0.014
8.5600,0.134
8.6000,0.100
8.6400,0.179
8.6800,-0.063
8.7200,-0.044
8.7600,-0.005
8.8000,0.034
8.8400,-0.119
8.8800,-0.023
8.9200,0.025
8.9600,0.015
9.0000,-0.089
9.0400,0.000
9.0800,0.046
9.1200,0.315
9.1600,-0.037
9.2000,0.107
9.2400,0.028
9.2800,0.242
9.3200,0.136
9.3600,0.087
9.4000,0.097
9.4400,0.179
9.4800,0.125
9.5200,0.073
9.5600,0.210
9.6000,0.039
9.6400,-0.122
9.6800,-0.055
9.7200,0.113
9.7600,0.103
9.8000,0.073
9.8400,0.249
9.8800,0.050
9.9200,-0.002
9.9600,0.032
10.0000,-0.039
10.0400,-0.037
10.0800,0.143
10.1200,0.052
10.1600,-0.080
10.2000,-0.037
10.2400,-0.013
10.2800,-0.028
10.3200,-0.013
10.3600,-0.055
10.4000,0.000
10.4400,-0.126
10.4800,0.154
10.5200,0.038
10.5600,-0.052
10.6000,0.004
10.6400,-0.011
10.6800,0.050
10.7200,-0.193
10.7600,-0.051
10.8000,0.029
10.8400,-0.028
10.8800,0.202
10.9200,0.091
10.9600,0.194
11.0000,-0.064
11.0400,-0.031
11.0800,0.001
11.1200,-0.104
11.1600,0.000
11.2000,0.079
11.2400,-0.001
11.2800,-0.036
11.3200,-0.059
11.3600,0.218
11.4000,-0.047
11.4400,-0.075
11.4800,-0.020
11.5200,-0.094
11.5600,-0.082
11.6000,-0.083
11.6400,0.018
11.6800,-0.104
11.7200,0.004
11.7600,0.007
11.8000,0.091
11.8400,-0.096
11.8800,-0.086
11.9200,0.011
11.9600,0.038
12.0000,-0.020
12.0400,-0.075
12.0800,-0.093
12.1200,0.023
12.1600,0.006
12.2000,-0.145
12.2400,0.047
12.2800,0.015
12.3200,-0.043
12.3600,-0.008
12.4000,-0.016
12.4400,0.047
12.4800,-0.049
12.5200,-0.092
12.5600,0.000
12.6000,0.209
12.6400,-0.041
12.6800,-0.005
12.7200,0.055
12.7600,-0.045
12.8000,-0.067
12.8400,0.023
12.8800,0.023
12.9200,-0.061
12.9600,0.071
13.0000,0.032
13.0400,-0.124
13.0800,0.032
13.1200,-0.057
13.1600,0.118
13.2000,0.033
13.2400,-0.051
13.2800,0.096
13.3200,0.093
13.3600,-0.023
13.4000,0.065
13.4400,-0.068
13.4800,-0.091
13.5200,-0.258
13.5600,0.093
13.6000,0.078
13.6400,0.047
13.6800,0.076
13.7200,0.085
13.7600,0.014
13.8000,-0.074
13.8400,-0.094
13.8800,0.085
13.9200,0.077
13.9600,-0.156
14.0000,-0.020
14.0400,-0.185
14.0800,0.181
14.1200,-0.177
14.1600,0.109
14.2000,0.115
14.2400,0.152
14.2800,-0.015
14.3200,-0.204
14.3600,0.073
14.4000,0.103
14.4400,0.035
14.4800,0.008
14.5200,-0.073
14.5600,-0.045
14.6000,-0.043
14.6400,-0.025
14.6800,-0.029
14.7200,-0.052
14.7600,0.166
14.8000,0.048
14.8400,-0.062
14.8800,-0.034
14.9200,0.217
14.9600,-0.117
15.0000,-0.089
15.0400,-0.009
15.0800,0.043
15.1200,0.094
15.1600,0.060
15.2000,-0.009
15.2400,0.122
15.2800,-0.050
15.3200,0.074
15.3600,0.040
15.4000,0.075
15.4400,-0.005
15.4800,0.151
15.5200,0.073
15.5600,0.056
15.6000,0.084
15.6400,0.032
15.6800,0.025
15.7200,-0.060
15.7600,0.129
15.8000,0.016
15.8400,-0.088
15.8800,-0.034
15.9200,-0.058
15.9600,0.177
16.0000,0.031
16.0400,-0.105
16.0800,0.012
16.1200,0.079
16.1600,0.014
16.2000,0.155
16.2400,0.200
16.2800,0.095
16.3200,0.124
16.3600,-0.052
16.4000,0.012
16.4400,-0.069
16.4800,0.004
16.5200,-0.087
16.5600,-0.045
16.6000,-0.002
16.6400,0.031
16.6800,0.205
16.7200,0.177
16.7600,0.065
16.8000,0.078
16.8400,-0.031
16.8800,0.054
16.9200,0.014
16.9600,0.080
17.0000,-0.042
17.0400,-0.036
17.0800,0.025
17.1200,-0.057
17.1600,0.052
17.2000,0.010
17.2400,-0.087
17.2800,-0.019
17.3200,0.147
17.3600,-0.003
17.4000,0.060
17.4400,0.148
17.4800,0.050
17.5200,0.050
17.5600,0.011
17.6000,-0.102
17.6400,-0.014
17.6800,0.008
17.7200,-0.180
17.7600,0.026
17.8000,0.069
17.8400,0.098
17.8800,0.035
17.9200,0.049
17.9600,-0.117
18.0000,-0.030
18.0400,-0.105
18.0800,0.145
18.1200,0.107
18.1600,-0.043
18.2000,0.030
18.2400,0.069
18.2800,-0.042
18.3200,-0.015
18.3600,-0.023
18.4000,0.093
18.4400,0.043
18.4800,0.126
18.5200,-0.028
18.5600,0.062
18.6000,0.085
18.6400,-0.004
18.6800,0.005
18.7200,-0.075
18.7600,-0.028
18.8000,-0.084
18.8400,-0.046
18.8800,-0.025
18.9200,0.084
18.9600,0.011
19.0000,-0.064
19.0400,-0.063
19.0800,-0.066
19.1200,0.080
19.1600,-0.022
19.2000,0.134
19.2400,0.125
19.2800,-0.020
19.3200,-0.040
19.3600,0.085
19.4000,-0.035
19.4400,-0.007
19.4800,0.011
19.5200,0.046
19.5600,0.128
19.6000,-0.034
19.6400,0.140
19.6800,-0.024
19.7200,0.170
19.7600,-0.115
19.8000,0.071
19.8400,0.007
19.8800,0.057
19.9200,-0.106
19.9600,-0.061
20.0000,0.127
20.0400,0.037
20.0800,-0.098
20.1200,-0.034
20.1600,-0.025
20.2000,0.001
20.2400,0.040
20.2800,-0.022
20.3200,0.001
20.3600,-0.012
20.4000,0.100
20.4400,-0.077
20.4800,0.022
20.5200,-0.045
20.5600,-0.053
20.6000,0.071
20.6400,-0.056
20.6800,0.005
20.7200,0.119
20.7600,0.128
20.8000,0.014
20.8400,0.093
20.8800,0.135
20.9200,-0.024
20.9600,-0.121
21.0000,0.015
21.0400,-0.041
21.0800,-0.072
21.1200,0.038
21.1600,0.062
21.2000,-0.083
21.2400,-0.026
21.2800,-0.015
21.3200,0.029
21.3600,0.014
21.4000,0.255
21.4400,0.019
21.4800,0.025
21.5200,-0.151
21.5600,0.068
21.6000,0.024
21.6400,-0.050
21.6800,-0.076
21.7200,-0.080
21.7600,-0.085
21.8000,0.076
21.8400,0.033
21.8800,0.054
21.9200,0.161
21.9600,-0.011
22.0000,0.116
22.0400,-0.046
22.0800,0.070
22.1200,0.010
22.1600,-0.004
22.2000,0.066
22.2400,-0.078
22.2800,0.005
22.3200,0.124
22.3600,-0.154
22.4000,-0.033
22.4400,0.177
22.4800,0.090
22.5200,0.141
22.5600,0.110
22.6000,0.024
22.6400,0.063
22.6800,0.029
22.7200,0.160
22.7600,-0.004
22.8000,0.021
22.8400,-0.079
22.8800,-0.028
22.9200,0.050
22.9600,0.020
23.0000,0.087
23.0400,-0.014
23.0800,0.010
23.1200,-0.080
23.1600,0.196
23.2000,0.030
23.2400,0.101
23.2800,0.102
23.3200,0.104
23.3600,-0.044
23.4000,-0.078
23.4400,0.006
23.4800,-0.018
23.5200,0.002
23.5600,-0.168
23.6000,0.000
23.6400,-0.015
23.6800,0.029
23.7200,-0.035
23.7600,0.014
23.8000,0.045
23.8400,-0.022
23.8800,-0.003
23.9200,-0.022
23.9600,0.017
24.0000,0.018
24.0400,0.110
24.0800,-0.016
24.1200,0.119
24.1600,0.024
24.2000,0.055
24.2400,0.043
24.2800,0.131
24.3200,0.004
24.3600,-0.081
24.4000,-0.013
24.4400,-0.037
24.4800,0.085
24.5200,0.146
24.5600,0.077
24.6000,0.080
24.6400,0.087
24.6800,0.031
24.7200,-0.072
24.7600,0.058
24.8000,0.017
24.8400,-0.010
24.8800,0.073
24.9200,-0.060
24.9600,-0.037
25.0000,0.100
25.0400,0.018
25.0800,-0.072
25.1200,0.094
25.1600,0.015
25.2000,-0.039
25.2400,-0.076
25.2800,-0.018
25.3200,0.040
25.3600,-0.031
25.4000,-0.002
25.4400,0.059
25.4800,0.038
25.5200,0.048
25.5600,0.076
25.6000,-0.015
25.6400,-0.033
25.6800,-0.031
25.7200,0.030
25.7600,0.131
25.8000,0.000
25.8400,0.028
25.8800,0.091
25.9200,0.154
25.9600,0.024
26.0000,0.056
26.0400,-0.103
26.0800,-0.063
26.1200,0.048
26.1600,-0.019
26.2000,-0.041
26.2400,0.048
26.2800,0.103
26.3200,0.052
26.3600,0.027
26.4000,0.036
26.4400,0.088
26.4800,-0.017
26.5200,-0.045
26.5600,0.092
26.6000,-0.110
26.6400,-0.019
26.6800,-0.074
26.7200,0.000
26.7600,-0.039
26.8000,0.038
26.8400,-0.005
26.8800,0.098
26.9200,0.037
26.9600,-0.053
27.0000,0.179
27.0400,-0.042
27.0800,0.030
27.1200,-0.023
27.1600,-0.023
27.2000,-0.043
27.2400,-0.023
27.2800,-0.015
27.3200,0.055
27.3600,0.093
27.4000,0.104
27.4400,0.030
27.4800,-0.050
27.5200,0.015
27.5600,-0.037
27.6000,-0.067
27.6400,-0.039
27.6800,-0.072
27.7200,-0.078
27.7600,0.096
27.8000,0.155
27.8400,0.036
27.8800,0.038
27.9200,0.025
27.9600,0.040
28.0000,-0.102
28.0400,-0.044
28.0800,0.061
28.1200,0.040
28.1600,0.139
28.2000,0.127
28.2400,0.038
28.2800,-0.029
28.3200,0.072
28.3600,0.033
28.4000,0.059
28.4400,-0.015
28.4800,0.002
28.5200,0.056
28.5600,0.111
28.6000,0.011
28.6400,0.044
28.6800,-0.003
28.7200,-0.028
28.7600,-0.029
28.8000,0.047
28.8400,0.092
28.8800,0.124
28.9200,-0.054
28.9600,0.038
29.0000,-0.071
29.0400,-0.044
29.0800,0.071
29.1200,0.076
29.1600,0.020
29.2000,-0.112
29.2400,0.040
29.2800,0.107
29.3200,0.080
29.3600,-0.022
29.4000,-0.037
29.4400,-0.019
29.4800,0.087
29.5200,0.000
29.5600,0.005
29.6000,0.001
29.6400,0.028
29.6800,-0.074
29.7200,0.061
29.7600,0.080
29.8000,-0.007
29.8400,0.006
29.8800,-0.043
29.9200,-0.015
29.9600,-0.050
30.0000,-0.020
30.0400,0.116
30.0800,-0.066
30.1200,0.105
30.1600,-0.024
30.2000,0.083
30.2400,0.025
30.2800,-0.056
30.3200,-0.071
30.3600,0.050
30.4000,0.020
30.4400,0.167
30.4800,0.106
30.5200,0.069
30.5600,0.041
30.6000,0.067
30.6400,-0.060
30.6800,-0.042
30.7200,-0.004
30.7600,0.014
30.8000,0.084
30.8400,0.066
30.8800,0.037
30.9200,0.013
30.9600,0.033
31.0000,-0.065
31.0400,0.026
31.0800,0.134
31.1200,-0.096
31.1600,0.010
31.2000,-0.070
31.2400,-0.012
31.2800,-0.112
31.3200,0.012
31.3600,0.068
31.4000,-0.025
31.4400,-0.022
31.4800,-0.098
31.5200,0.108
31.5600,-0.059
31.6000,-0.051
31.6400,0.055
31.6800,-0.048
31.7200,-0.068
31.7600,0.040
31.8000,-0.012
31.8400,-0.063
31.8800,-0.028
31.9200,0.101
31.9600,-0.050
32.0000,0.042
32.0400,0.074
32.0800,0.114
32.1200,0.095
32.1600,0.003
32.2000,0.004
32.2400,-0.027
32.2800,-0.035
32.3200,-0.003
32.3600,-0.003
32.4000,-0.092
32.4400,-0.002
32.4800,0.024
32.5200,0.076
32.5600,-0.149
32.6000,0.040
32.6400,0.112
32.6800,0.048
32.7200,0.101
32.7600,0.000
32.8000,0.047
32.8400,-0.024
32.8800,-0.009
32.9200,0.117
32.9600,1.759
33.0000,3.045
33.0400,1.302
33.0800,0.072
33.1200,-0.120
33.1600,-0.032
33.2000,0.013
33.2400,-0.072
33.2800,0.010
33.3200,-0.015
33.3600,-0.071
33.4000,0.011
33.4400,0.023
33.4800,-0.089
33.5200,-0.015
33.5600,-0.055
33.6000,-0.008
33.6400,0.021
33.6800,-0.009
33.7200,0.010
33.7600,-0.046
33.8000,0.018
33.8400,0.081
33.8800,0.088
33.9200,0.068
33.9600,-0.016
34.0000,-0.127
34.0400,0.026
34.0800,0.108
34.1200,0.020
34.1600,-0.061
34.2000,-0.023
34.2400,-0.027
34.2800,-0.056
34.3200,0.019
34.3600,0.063
34.4000,0.037
34.4400,-0.140
34.4800,0.048
34.5200,0.011
34.5600,-0.001
34.6000,-0.021
34.6400,-0.074
34.6800,0.009
34.7200,-0.008
34.7600,0.134
34.8000,-0.072
34.8400,-0.004
34.8800,0.114
34.9200,0.106
34.9600,-0.107
35.0000,0.107
35.0400,0.017
35.0800,0.038
35.1200,0.008
35.1600,-0.016
35.2000,0.143
35.2400,-0.031
35.2800,-0.070
35.3200,0.044
35.3600,-0.074
35.4000,0.005
35.4400,-0.010
35.4800,0.066
35.5200,-0.089
35.5600,-0.046
35.6000,-0.052
35.6400,0.052
35.6800,0.066
35.7200,0.031
35.7600,0.035
35.8000,0.029
35.8400,-0.064
35.8800,-0.034
35.9200,0.023
35.9600,0.084
36.0000,0.085
36.0400,0.064
36.0800,0.039
36.1200,-0.001
36.1600,0.065
36.2000,-0.034
36.2400,0.032
36.2800,0.099
36.3200,0.083
36.3600,0.014
36.4000,-0.065
36.4400,0.048
36.4800,-0.063
36.5200,-0.053
36.5600,-0.056
36.6000,-0.074
36.6400,0.057
36.6800,0.099
36.7200,-0.077
36.7600,-0.064
36.8000,0.063
36.8400,-0.031
36.8800,0.115
36.9200,0.018
36.9600,-0.053
37.0000,0.013
37.0400,-0.014
37.0800,-0.116
37.1200,0.040
37.1600,0.017
37.2000,0.026
37.2400,0.104
37.2800,-0.011
37.3200,0.099
37.3600,0.016
37.4000,-0.042
37.4400,-0.116
37.4800,0.035
37.5200,-0.125
37.5600,0.072
37.6000,0.030
37.6400,0.047
37.6800,-0.008
37.7200,0.105
37.7600,-0.002
37.8000,0.086
37.8400,0.303
37.8800,0.170
37.9200,0.165
37.9600,0.250
38.0000,0.195
38.0400,0.294
38.0800,0.275
38.1200,0.330
38.1600,0.565
38.2000,0.737
38.2400,0.687
38.2800,1.126
38.3200,1.268
38.3600,1.604
38.4000,1.995
38.4400,2.433
38.4800,3.116
38.5200,3.658
38.5600,4.757
38.6000,5.908
38.6400,7.405
38.6800,8.518
38.7200,9.338
38.7600,10.035
38.8000,9.449
38.8400,8.614
38.8800,7.571
38.9200,6.383
38.9600,5.194
39.0000,4.075
39.0400,3.309
39.0800,2.799
39.1200,2.208
39.1600,1.800
39.2000,1.242
39.2400,1.114
39.2800,0.938
39.3200,0.715
39.3600,0.680
39.4000,0.505
39.4400,0.446
39.4800,0.428
39.5200,0.384
39.5600,0.242
39.6000,0.240
39.6400,0.130
39.6800,0.170
39.7200,0.048
39.7600,0.078
39.8000,0.088
39.8400,0.019
39.8800,0.056
39.9200,-0.033
39.9600,-0.070
40.0000,0.033
40.0400,0.133
40.0800,0.070
40.1200,0.037
40.1600,0.074
40.2000,-0.048
40.2400,-0.061
40.2800,0.031
40.3200,-0.083
40.3600,0.032
40.4000,0.070
40.4400,0.048
40.4800,-0.071
40.5200,0.004
40.5600,0.043
40.6000,-0.044
40.6400,-0.059
40.6800,0.042
40.7200,0.134
40.7600,0.026
40.8000,-0.058
40.8400,-0.035
40.8800,-0.003
40.9200,-0.026
40.9600,-0.019
41.0000,0.030
41.0400,0.045
41.0800,0.076
41.1200,-0.105
41.1600,0.079
41.2000,-0.032
41.2400,-0.051
41.2800,0.002
41.3200,-0.057
41.3600,-0.034
41.4000,0.076
41.4400,-0.034
41.4800,-0.021
41.5200,-0.088
41.5600,0.033
41.6000,-0.068
41.6400,0.113
41.6800,-0.027
41.7200,-0.056
41.7600,0.010
41.8000,-0.020
41.8400,-0.034
41.8800,0.070
41.9200,0.016
41.9600,0.024
42.0000,0.007
42.0400,0.063
42.0800,0.049
42.1200,0.023
42.1600,0.028
42.2000,0.074
42.2400,0.047
42.2800,0.008
42.3200,-0.055
42.3600,-0.032
42.4000,-0.016
42.4400,-0.036
42.4800,0.006
42.5200,0.075
42.5600,-0.067
42.6000,-0.051
42.6400,0.002
42.6800,0.002
42.7200,0.008
42.7600,-0.062
42.8000,0.022
42.8400,0.102
42.8800,-0.036
42.9200,-0.018
42.9600,-0.052
43.0000,-0.050
43.0400,-0.020
43.0800,-0.056
43.1200,-0.021
43.1600,0.037
43.2000,-0.133
43.2400,0.047
43.2800,0.017
43.3200,-0.001
43.3600,-0.070
43.4000,-0.010
43.4400,-0.002
43.4800,0.025
43.5200,0.038
43.5600,-0.021
43.6000,0.026
43.6400,0.033
43.6800,-0.001
43.7200,0.031
43.7600,-0.106
43.8000,-0.030
43.8400,-0.074
43.8800,0.061
43.9200,-0.024
43.9600,0.008
44.0000,0.196
44.0400,-0.016
44.0800,0.107
44.1200,0.049
44.1600,0.077
44.2000,0.029
44.2400,0.054
44.2800,0.030
44.3200,0.215
44.3600,0.202
44.4000,0.161
44.4400,0.267
44.4800,0.353
44.5200,0.280
44.5600,0.460
44.6000,0.500
44.6400,0.525
44.6800,0.708
44.7200,0.836
44.7600,1.031
44.8000,1.140
44.8400,1.366
44.8800,1.545
44.9200,1.661
44.9600,1.825
45.0000,2.051
45.0400,1.994
45.0800,2.111
45.1200,2.023
45.1600,1.925
45.2000,1.916
45.2400,1.775
45.2800,1.328
45.3200,1.380
45.3600,1.156
45.4000,1.098
45.4400,0.843
45.4800,0.634
45.5200,0.563
45.5600,0.431
45.6000,0.436
45.6400,0.309
45.6800,0.289
45.7200,0.161
45.7600,0.026
45.8000,0.157
45.8400,0.132
45.8800,0.091
45.9200,0.012
45.9600,0.041
46.0000,-0.084
46.0400,-0.002
46.0800,0.083
46.1200,0.026
46.1600,0.043
46.2000,0.044
46.2400,-0.040
46.2800,-0.053
46.3200,0.020
46.3600,0.018
46.4000,0.039
46.4400,0.011
46.4800,-0.023
46.5200,-0.005
46.5600,-0.028
46.6000,0.014
46.6400,-0.021
46.6800,-0.030
46.7200,-0.025
46.7600,0.094
46.8000,-0.013
46.8400,0.011
46.8800,-0.007
46.9200,-0.051
46.9600,-0.029
47.0000,-0.032
47.0400,-0.016
47.0800,-0.056
47.1200,0.040
47.1600,-0.056
47.2000,-0.006
47.2400,-0.042
47.2800,-0.058
47.3200,0.043
47.3600,0.051
47.4000,0.019
47.4400,-0.003
47.4800,-0.024
47.5200,-0.092
47.5600,0.072
47.6000,-0.003
47.6400,-0.049
47.6800,-0.002
47.7200,0.045
47.7600,0.039
47.8000,0.010
47.8400,0.083
47.8800,0.044
47.9200,0.042
47.9600,-0.009
48.0000,-0.055
48.0400,0.002
48.0800,0.065
48.1200,0.038
48.1600,0.073
48.2000,0.061
48.2400,0.080
48.2800,0.011
48.3200,0.041
48.3600,-0.017
48.4000,-0.017
48.4400,0.092
48.4800,0.044
48.5200,-0.001
48.5600,0.046
48.6000,0.023
48.6400,0.069
48.6800,0.003
48.7200,-0.047
48.7600,-0.013
48.8000,-0.002
48.8400,-0.021
48.8800,0.053
48.9200,0.046
48.9600,-0.035
49.0000,0.003
49.0400,-0.018
49.0800,-0.047
49.1200,-0.048
49.1600,0.013
49.2000,-0.063
49.2400,0.047
49.2800,-0.032
49.3200,-0.016
49.3600,-0.011
49.4000,-0.035
49.4400,0.021
49.4800,-0.008
49.5200,-0.059
49.5600,0.015
49.6000,0.004
49.6400,-0.011
49.6800,0.019
49.7200,-0.055
49.7600,-0.019
49.8000,-0.057
49.8400,0.086
49.8800,0.009
49.9200,0.052
49.9600,0.019
50.0000,0.040
50.0400,0.074
50.0800,-0.020
50.1200,-0.054
50.1600,0.012
50.2000,0.057
50.2400,0.008
50.2800,-0.026
50.3200,0.015
50.3600,0.042
50.4000,-0.058
50.4400,-0.023
50.4800,0.036
50.5200,0.014
50.5600,-0.022
50.6000,0.031
50.6400,-0.034
50.6800,-0.047
50.7200,-0.027
50.7600,-0.031
50.8000,-0.086
50.8400,0.067
50.8800,-0.020
50.9200,0.042
50.9600,-0.010
51.0000,0.010
51.0400,-0.042
51.0800,-0.063
51.1200,0.043
51.1600,-0.025
51.2000,-0.026
51.2400,-0.019
51.2800,-0.131
51.3200,0.026
51.3600,-0.094
51.4000,-0.009
51.4400,0.008
51.4800,-0.009
51.5200,0.012
51.5600,-0.064
51.6000,-0.012
51.6400,0.010
51.6800,0.012
51.7200,0.076
51.7600,0.073
51.8000,0.143
51.8400,0.015
51.8800,-0.042
51.9200,-0.021
51.9600,0.099
52.0000,0.045
52.0400,0.019
52.0800,0.022
52.1200,-0.057
52.1600,-0.027
52.2000,0.053
52.2400,0.025
52.2800,0.037
52.3200,-0.036
52.3600,0.032
52.4000,0.029
52.4400,-0.042
52.4800,0.036
52.5200,0.034
52.5600,-0.012
52.6000,-0.056
52.6400,0.010
52.6800,0.026
52.7200,-0.069
52.7600,-0.024
52.8000,0.028
52.8400,0.062
52.8800,-0.031
52.9200,-0.015
52.9600,0.031
53.0000,-0.055
53.0400,-0.029
53.0800,-0.014
53.1200,0.033
53.1600,-0.003
53.2000,-0.049
53.2400,0.001
53.2800,0.058
53.3200,0.003
53.3600,0.054
53.4000,0.010
53.4400,-0.047
53.4800,0.047
53.5200,-0.035
53.5600,-0.026
53.6000,-0.014
53.6400,0.034
53.6800,0.004
53.7200,0.061
53.7600,-0.035
53.8000,-0.004
53.8400,-0.012
53.8800,-0.019
53.9200,0.050
53.9600,0.012
54.0000,0.030
54.0400,-0.057
54.0800,0.015
54.1200,-0.063
54.1600,-0.020
54.2000,0.010
54.2400,0.062
54.2800,-0.024
54.3200,0.006
54.3600,-0.064
54.4000,0.055
54.4400,0.010
54.4800,0.033
54.5200,-0.043
54.5600,-0.035
54.6000,-0.020
54.6400,0.014
54.6800,0.044
54.7200,-0.024
54.7600,-0.067
54.8000,0.026
54.8400,0.063
54.8800,0.058
54.9200,-0.053
54.9600,-0.043
55.0000,0.035
55.0400,-0.008
55.0800,-0.004
55.1200,0.029
55.1600,0.033
55.2000,-0.057
55.2400,0.033
55.2800,0.029
55.3200,-0.012
55.3600,-0.039
55.4000,-0.044
55.4400,0.033
55.4800,0.062
55.5200,0.026
55.5600,0.076
55.6000,0.004
55.6400,-0.003
55.6800,0.031
55.7200,0.095
55.7600,-0.033
55.8000,-0.042
55.8400,0.029
55.8800,-0.006
55.9200,0.059
55.9600,-0.060
56.0000,0.015
56.0400,-0.077
56.0800,-0.007
56.1200,-0.031
56.1600,-0.002
56.2000,0.083
56.2400,0.033
56.2800,-0.043
56.3200,-0.053
56.3600,0.048
56.4000,-0.026
56.4400,-0.039
56.4800,0.012
56.5200,0.021
56.5600,-0.021
56.6000,0.032
56.6400,-0.058
56.6800,-0.032
56.7200,0.053
56.7600,0.034
56.8000,-0.041
56.8400,-0.039
56.8800,-0.042
56.9200,-0.037
56.9600,-0.017
57.0000,-0.022
57.0400,-0.042
57.0800,-0.001
57.1200,-0.080
57.1600,0.021
57.2000,0.012
57.2400,-0.035
57.2800,-0.009
57.3200,0.008
57.3600,-0.060
57.4000,-0.005
57.4400,0.006
57.4800,-0.005
57.5200,-0.026
57.5600,-0.042
57.6000,0.033
57.6400,-0.020
57.6800,0.058
57.7200,-0.004
57.7600,-0.016
57.8000,0.007
57.8400,-0.057
57.8800,-0.008
57.9200,0.059
57.9600,0.029
58.0000,0.004
58.0400,-0.039
58.0800,-0.011
58.1200,0.043
58.1600,0.082
58.2000,-0.014
58.2400,-0.080
58.2800,0.010
58.3200,0.027
58.3600,0.040
58.4000,0.019
58.4400,0.057
58.4800,-0.023
58.5200,-0.037
58.5600,-0.006
58.6000,0.022
58.6400,-0.008
58.6800,0.036
58.7200,0.003
58.7600,0.000
58.8000,-0.041
58.8400,-0.023
58.8800,0.025
58.9200,0.091
58.9600,0.031
59.0000,0.043
59.0400,0.065
59.0800,0.011
59.1200,0.020
59.1600,-0.086
59.2000,-0.020
59.2400,-0.034
59.2800,-0.012
59.3200,-0.020
59.3600,-0.011
59.4000,0.021
59.4400,-0.034
59.4800,0.027
59.5200,-0.021
59.5600,-0.028
59.6000,-0.044
59.6400,0.029
59.6800,0.010
59.7200,-0.021
59.7600,-0.041
59.8000,0.019
59.8400,-0.016
59.8800,-0.003
59.9200,0.052
59.9600,-0.043
60.0000,-0.001
60.0400,0.018
60.0800,-0.013
60.1200,-0.021
60.1600,0.001
60.2000,0.000
60.2400,-0.031
60.2800,0.043
60.3200,0.023
60.3600,0.047
60.4000,0.018
60.4400,-0.061
60.4800,-0.026
60.5200,0.041
60.5600,-0.004
60.6000,0.087
60.6400,0.044
60.6800,-0.019
60.7200,0.047
60.7600,0.064
60.8000,0.020
60.8400,0.033
60.8800,-0.001
60.9200,0.030
60.9600,0.053
61.0000,-0.001
61.0400,-0.035
61.0800,0.025
61.1200,0.047
61.1600,0.003
61.2000,-0.028
61.2400,-0.047
61.2800,0.052
61.3200,0.022
61.3600,0.006
61.4000,-0.039
61.4400,-0.020
61.4800,-0.002
61.5200,-0.031
61.5600,-0.011
61.6000,0.031
61.6400,0.083
61.6800,0.145
61.7200,0.094
61.7600,0.084
61.8000,0.047
61.8400,0.035
61.8800,-0.020
61.9200,-0.030
61.9600,-0.039
62.0000,-0.014
62.0400,-0.011
62.0800,0.063
62.1200,-0.084
62.1600,0.018
62.2000,-0.050
62.2400,0.040
62.2800,-0.045
62.3200,-0.038
62.3600,0.119
62.4000,-0.062
62.4400,-0.012
62.4800,-0.023
62.5200,-0.005
62.5600,-0.012
62.6000,-0.025
62.6400,0.031
62.6800,-0.072
62.7200,-0.004
62.7600,0.001
62.8000,0.066
62.8400,-0.022
62.8800,-0.033
62.9200,-0.001
62.9600,-0.055
63.0000,0.049
63.0400,0.111
63.0800,0.045
63.1200,0.034
63.1600,-0.024
63.2000,-0.050
63.2400,0.013
63.2800,-0.001
63.3200,0.062
63.3600,0.008
63.4000,-0.030
63.4400,0.035
63.4800,-0.040
63.5200,-0.035
63.5600,-0.011
63.6000,-0.033
63.6400,-0.006
63.6800,-0.029
63.7200,-0.030
63.7600,-0.021
63.8000,-0.056
63.8400,0.051
63.8800,-0.007
63.9200,-0.066
63.9600,0.010
64.0000,0.059
64.0400,-0.021
64.0800,0.046
64.1200,0.000
64.1600,-0.004
64.2000,-0.041
64.2400,-0.029
64.2800,-0.007
64.3200,-0.006
64.3600,-0.007
64.4000,0.010
64.4400,0.014
64.4800,0.113
64.5200,-0.012
64.5600,-0.041
64.6000,-0.028
64.6400,0.006
64.6800,-0.029
64.7200,0.046
64.7600,0.036
64.8000,0.054
64.8400,0.001
64.8800,-0.024
64.9200,-0.005
64.9600,0.023
65.0000,0.059
65.0400,0.119
65.0800,0.066
65.1200,0.146
65.1600,0.031
65.2000,0.248
65.2400,0.262
65.2800,0.327
65.3200,0.323
65.3600,0.445
65.4000,0.453
65.4400,0.606
65.4800,0.681
65.5200,0.871
65.5600,0.877
65.6000,0.884
65.6400,0.993
65.6800,0.838
65.7200,0.917
65.7600,0.914
65.8000,0.627
65.8400,0.679
65.8800,0.663
65.9200,0.453
65.9600,0.425
66.0000,0.333
66.0400,0.153
66.0800,0.160
66.1200,0.184
66.1600,0.126
66.2000,0.159
66.2400,0.045
66.2800,-0.036
66.3200,0.100
66.3600,-0.056
66.4000,0.032
66.4400,0.049
66.4800,-0.078
66.5200,-0.050
66.5600,-0.026
66.6000,-0.024
66.6400,0.017
66.6800,0.035
66.7200,-0.069
66.7600,0.040
66.8000,-0.027
66.8400,-0.051
66.8800,-0.051
66.9200,-0.018
66.9600,0.024
67.0000,-0.005
67.0400,0.094
67.0800,-0.062
67.1200,-0.006
67.1600,-0.022
67.2000,-0.077
67.2400,0.024
67.2800,0.026
67.3200,-0.059
67.3600,-0.031
67.4000,0.164
67.4400,0.050
67.4800,-0.013
67.5200,0.089
67.5600,0.117
67.6000,-0.025
67.6400,0.008
67.6800,0.067
67.7200,0.221
67.7600,0.159
67.8000,0.098
67.8400,0.090
67.8800,0.108
67.9200,0.195
67.9600,0.020
68.0000,0.118
68.0400,0.359
68.0800,0.258
68.1200,0.220
68.1600,0.360
68.2000,0.421
68.2400,0.431
68.2800,0.621
68.3200,0.712
68.3600,0.636
68.4000,0.737
68.4400,0.838
68.4800,0.903
68.5200,0.900
68.5600,1.217
68.6000,1.292
68.6400,1.369
68.6800,1.801
68.7200,2.512
68.7600,3.510
68.8000,5.284
68.8400,5.301
68.8800,6.035
68.9200,6.063
68.9600,7.760
69.0000,11.821
69.0400,21.783
69.0800,62.537
69.1200,285.361
69.1600,478.267
69.2000,256.010
69.2400,63.776
69.2800,55.038
69.3200,163.936
69.3600,241.410
69.4000,123.843
69.4400,30.641
69.4800,12.880
69.5200,8.011
69.5600,5.807
69.6000,4.339
69.6400,3.595
69.6800,2.838
69.7200,2.439
69.7600,1.985
69.8000,1.853
69.8400,1.567
69.8800,1.281
69.9200,1.199
69.9600,1.081
70.0000,1.177
70.0400,0.916
70.0800,0.880
70.1200,0.777
70.1600,0.688
70.2000,0.668
70.2400,0.529
70.2800,0.553
70.3200,0.633
70.3600,0.421
70.4000,0.371
70.4400,0.314
70.4800,0.402
70.5200,0.366
70.5600,0.252
70.6000,0.165
70.6400,0.254
70.6800,0.147
70.7200,0.154
70.7600,0.138
70.8000,0.061
70.8400,0.125
70.8800,0.106
70.9200,0.142
70.9600,0.061
71.0000,0.141
71.0400,0.130
71.0800,0.045
71.1200,0.172
71.1600,-0.053
71.2000,0.006
71.2400,-0.006
71.2800,0.000
71.3200,-0.064
71.3600,-0.007
71.4000,0.039
71.4400,-0.019
71.4800,-0.003
71.5200,-0.043
71.5600,-0.014
71.6000,-0.066
71.6400,0.026
71.6800,0.018
71.7200,-0.010
71.7600,-0.035
71.8000,0.012
71.8400,-0.044
71.8800,0.019
71.9200,0.014
71.9600,-0.074
72.0000,-0.011
72.0400,0.005
72.0800,-0.061
72.1200,-0.009
72.1600,-0.017
72.2000,0.035
72.2400,0.036
72.2800,0.049
72.3200,0.011
72.3600,-0.043
72.4000,-0.013
72.4400,-0.041
72.4800,-0.024
72.5200,0.027
72.5600,-0.079
72.6000,0.053
72.6400,0.054
72.6800,-0.018
72.7200,0.025
72.7600,-0.047
72.8000,-0.014
72.8400,0.046
72.8800,0.003
72.9200,-0.012
72.9600,0.019
73.0000,-0.002
73.0400,0.016
73.0800,0.023
73.1200,-0.040
73.1600,-0.029
73.2000,0.027
73.2400,0.028
73.2800,0.007
73.3200,0.004
73.3600,-0.017
73.4000,0.001
73.4400,-0.008
73.4800,-0.049
73.5200,0.006
73.5600,0.039
73.6000,0.093
73.6400,0.087
73.6800,0.028
73.7200,-0.005
73.7600,0.035
73.8000,0.003
73.8400,0.043
73.8800,0.045
73.9200,0.004
73.9600,-0.019
74.0000,-0.011
74.0400,-0.035
74.0800,-0.002
74.1200,-0.008
74.1600,0.061
74.2000,0.033
74.2400,-0.026
74.2800,-0.035
74.3200,-0.029
74.3600,0.063
74.4000,0.041
74.4400,-0.021
74.4800,0.016
74.5200,0.012
74.5600,-0.024
74.6000,0.017
74.6400,0.056
74.6800,-0.015
74.7200,-0.030
74.7600,0.031
74.8000,0.009
74.8400,-0.001
74.8800,-0.047
74.9200,-0.001
74.9600,0.000
75.0000,0.006
75.0400,0.025
75.0800,0.044
75.1200,-0.008
75.1600,-0.055
75.2000,0.046
75.2400,0.012
75.2800,0.019
75.3200,-0.016
75.3600,-0.008
75.4000,0.012
75.4400,0.037
75.4800,0.058
75.5200,-0.019
75.5600,-0.036
75.6000,0.013
75.6400,0.031
75.6800,0.062
75.7200,0.016
75.7600,0.068
75.8000,-0.037
75.8400,-0.021
75.8800,-0.009
75.9200,-0.018
75.9600,-0.020
76.0000,0.049
76.0400,-0.032
76.0800,-0.032
76.1200,-0.022
76.1600,-0.013
76.2000,-0.010
76.2400,-0.058
76.2800,0.012
76.3200,-0.012
76.3600,0.043
76.4000,0.023
76.4400,0.090
76.4800,-0.051
76.5200,-0.057
76.5600,0.053
76.6000,-0.032
76.6400,0.031
76.6800,0.037
76.7200,0.008
76.7600,0.016
76.8000,0.020
76.8400,-0.019
76.8800,0.043
76.9200,0.052
76.9600,0.008
77.0000,-0.032
77.0400,-0.017
77.0800,0.020
77.1200,0.014
77.1600,0.018
77.2000,-0.005
77.2400,-0.061
77.2800,0.016
77.3200,-0.012
77.3600,0.028
77.4000,0.003
77.4400,0.003
77.4800,-0.043
77.5200,-0.008
77.5600,0.001
77.6000,-0.051
77.6400,0.006
77.6800,0.002
77.7200,-0.035
77.7600,-0.019
77.8000,-0.021
77.8400,-0.055
77.8800,0.020
77.9200,0.035
77.9600,-0.015
78.0000,0.050
78.0400,-0.055
78.0800,-0.008
78.1200,-0.019
78.1600,-0.020
78.2000,0.031
78.2400,-0.004
78.2800,0.006
78.3200,0.044
78.3600,0.052
78.4000,0.118
78.4400,0.139
78.4800,0.166
78.5200,0.312
78.5600,0.287
78.6000,0.334
78.6400,0.383
78.6800,0.486
78.7200,0.533
78.7600,0.479
78.8000,0.720
78.8400,0.632
78.8800,0.758
78.9200,0.701
78.9600,0.692
79.0000,0.723
79.0400,0.553
79.0800,0.579
79.1200,0.404
79.1600,0.441
79.2000,0.428
79.2400,0.353
79.2800,0.322
79.3200,0.278
79.3600,0.242
79.4000,0.119
79.4400,0.189
79.4800,0.101
79.5200,0.047
79.5600,0.039
79.6000,0.004
79.6400,-0.041
79.6800,0.018
79.7200,-0.036
79.7600,-0.048
79.8000,0.039
79.8400,0.030
79.8800,-0.037
79.9200,0.021
79.9600,-0.013
80.0000,0.027
80.0400,-0.034
80.0800,-0.058
80.1200,0.047
80.1600,-0.040
80.2000,-0.022
80.2400,0.005
80.2800,-0.013
80.3200,0.007
80.3600,-0.032
80.4000,-0.027
80.4400,-0.005
80.4800,-0.032
80.5200,-0.018
80.5600,0.002
80.6000,0.011
80.6400,-0.013
80.6800,0.013
80.7200,-0.009
80.7600,-0.022
80.8000,-0.016
80.8400,-0.022
80.8800,0.011
80.9200,-0.030
80.9600,-0.020
81.0000,-0.017
81.0400,0.003
81.0800,0.011
81.1200,-0.007
81.1600,-0.005
81.2000,-0.028
81.2400,0.049
81.2800,-0.001
81.3200,-0.022
81.3600,0.031
81.4000,-0.019
81.4400,-0.009
81.4800,-0.031
81.5200,-0.019
81.5600,0.018
81.6000,-0.048
81.6400,-0.010
81.6800,-0.012
81.7200,-0.040
81.7600,0.009
81.8000,-0.003
81.8400,-0.022
81.8800,0.034
81.9200,0.003
81.9600,-0.011
82.0000,-0.021
82.0400,-0.011
82.0800,0.027
82.1200,0.005
82.1600,-0.031
82.2000,-0.010
82.2400,-0.014
82.2800,-0.022
82.3200,-0.022
82.3600,0.017
82.4000,0.015
82.4400,-0.013
82.4800,-0.032
82.5200,-0.007
82.5600,-0.003
82.6000,-0.001
82.6400,0.007
82.6800,0.024
82.7200,0.024
82.7600,0.040
82.8000,0.030
82.8400,0.037
82.8800,0.109
82.9200,0.114
82.9600,0.118
83.0000,0.170
83.0400,0.119
83.0800,0.152
83.1200,0.221
83.1600,0.131
83.2000,0.214
83.2400,0.147
83.2800,0.220
83.3200,0.155
83.3600,0.091
83.4000,0.091
83.4400,0.090
83.4800,0.080
83.5200,0.048
83.5600,0.124
83.6000,0.055
83.6400,0.057
83.6800,0.065
83.7200,-0.001
83.7600,-0.021
83.8000,-0.018
83.8400,0.017
83.8800,-0.030
83.9200,0.014
83.9600,-0.030
84.0000,-0.081
84.0400,0.046
84.0800,0.002
84.1200,0.007
84.1600,0.005
84.2000,0.040
84.2400,-0.026
84.2800,0.043
84.3200,0.035
84.3600,0.035
84.4000,-0.002
84.4400,0.001
84.4800,-0.028
84.5200,-0.022
84.5600,0.021
84.6000,0.043
84.6400,0.006
84.6800,0.004
84.7200,0.053
84.7600,0.023
84.8000,-0.028
84.8400,-0.028
84.8800,0.004
84.9200,-0.003
84.9600,0.031
85.0000,-0.008
85.0400,-0.027
85.0800,0.008
85.1200,0.019
85.1600,0.003
85.2000,-0.044
85.2400,0.016
85.2800,-0.028
85.3200,-0.018
85.3600,-0.027
85.4000,0.016
85.4400,0.029
85.4800,0.006
85.5200,-0.023
85.5600,-0.001
85.6000,0.009
85.6400,-0.006
85.6800,-0.025
85.7200,-0.010
85.7600,0.012
85.8000,-0.005
85.8400,-0.026
85.8800,0.014
85.9200,0.020
85.9600,-0.021
86.0000,-0.006
86.0400,0.017
86.0800,-0.001
86.1200,-0.028
86.1600,-0.026
86.2000,0.006
86.2400,0.039
86.2800,-0.007
86.3200,-0.015
86.3600,0.008
86.4000,-0.016
86.4400,0.019
86.4800,-0.029
86.5200,-0.018
86.5600,0.028
86.6000,-0.028
86.6400,-0.028
86.6800,-0.006
86.7200,-0.046
86.7600,0.031
86.8000,0.023
86.8400,0.012
86.8800,-0.039
86.9200,0.020
86.9600,0.020
87.0000,-0.029
87.0400,0.006
87.0800,0.005
87.1200,-0.028
87.1600,-0.022
87.2000,-0.034
87.2400,0.036
87.2800,0.003
87.3200,0.001
87.3600,-0.001
87.4000,-0.027
87.4400,-0.010
87.4800,0.030
87.5200,0.005
87.5600,-0.016
87.6000,0.024
87.6400,-0.015
87.6800,-0.027
87.7200,-0.009
87.7600,-0.045
87.8000,0.086
87.8400,-0.005
87.8800,-0.020
87.9200,-0.002
87.9600,-0.031
88.0000,0.000
88.0400,0.006
88.0800,0.028
88.1200,0.035
88.1600,0.037
88.2000,0.002
88.2400,0.029
88.2800,-0.027
88.3200,0.035
88.3600,-0.023
88.4000,-0.066
88.4400,0.026
88.4800,-0.011
88.5200,0.008
88.5600,-0.038
88.6000,0.009
88.6400,-0.066
88.6800,0.020
88.7200,0.020
88.7600,-0.051
88.8000,-0.019
88.8400,0.028
88.8800,-0.001
88.9200,0.005
88.9600,0.010
89.0000,-0.007
89.0400,-0.018
89.0800,-0.001
89.1200,-0.027
89.1600,0.018
89.2000,-0.027
89.2400,-0.021
89.2800,0.001
89.3200,0.011
89.3600,-0.013
89.4000,0.012
89.4400,0.046
89.4800,0.032
89.5200,0.009
89.5600,-0.007
89.6000,0.001
89.6400,0.002
89.6800,0.024
89.7200,-0.005
89.7600,-0.003
89.8000,-0.035
89.8400,-0.005
89.8800,0.034
89.9200,-0.022
89.9600,-0.041
90.0000,0.000
