2.003999999999999915e+01,3.528955074677220249e-02
2.007999999999999829e+01,4.118526142828198011e-02
2.012000000000000099e+01,3.547601401948673183e-02
2.016000000000000014e+01,3.987299593475299164e-02
2.019999999999999929e+01,3.865431382618752382e-02
2.023999999999999844e+01,4.192690007185235351e-02
2.028000000000000114e+01,4.912925903256824822e-02
2.032000000000000028e+01,4.678548220617826520e-02
2.035999999999999943e+01,4.219502091357590912e-02
2.039999999999999858e+01,3.011724442030020918e-02
2.044000000000000128e+01,4.237027194651940554e-02
2.048000000000000043e+01,4.189535410985835429e-02
2.051999999999999957e+01,4.160690434554817352e-02
2.055999999999999872e+01,1.848357855705785868e-02
2.060000000000000142e+01,3.709744163152660368e-02
2.064000000000000057e+01,3.081761038439971914e-02
2.067999999999999972e+01,6.122150324183631837e-02
2.071999999999999886e+01,3.603657669713912493e-02
2.076000000000000156e+01,3.555678955759296322e-02
2.080000000000000071e+01,4.611906791723006938e-02
2.083999999999999986e+01,4.451490227570821523e-02
2.087999999999999901e+01,2.494216568713278348e-02
2.092000000000000171e+01,2.445960867838722907e-02
2.096000000000000085e+01,3.146297678542792770e-02
2.100000000000000000e+01,4.445494735001870312e-02
2.103999999999999915e+01,3.498637956510235181e-02
2.107999999999999829e+01,2.514279165266181809e-02
2.112000000000000099e+01,2.652843922124912060e-02
2.116000000000000014e+01,4.662993899556924782e-02
2.119999999999999929e+01,2.312121207872653780e-02
2.123999999999999844e+01,2.076148876167124499e-02
2.128000000000000114e+01,3.112832644515082722e-02
2.132000000000000028e+01,2.652124593735304472e-02
2.135999999999999943e+01,3.576371999746596336e-02
2.139999999999999858e+01,2.348148787741585058e-02
2.144000000000000128e+01,2.954078116125517448e-02
2.148000000000000043e+01,1.276521158276093353e-02
2.151999999999999957e+01,4.970542987299282622e-02
2.155999999999999872e+01,2.768786350982619868e-02
2.160000000000000142e+01,3.318292962631778920e-02
2.164000000000000057e+01,2.688589399435666397e-02
2.167999999999999972e+01,2.657747054826699665e-02
2.171999999999999886e+01,5.322018508716437613e-02
2.176000000000000156e+01,3.718850796551378263e-02
2.180000000000000071e+01,3.669088034087142347e-02
2.183999999999999986e+01,4.367919042160747778e-02
2.187999999999999901e+01,3.251177845783342901e-02
2.192000000000000171e+01,4.586235709077066819e-02
2.196000000000000085e+01,3.244760624838816804e-02
2.200000000000000000e+01,3.849738124432146302e-02
2.203999999999999915e+01,3.743419530962575209e-02
2.207999999999999829e+01,3.749332678425056770e-02
2.212000000000000099e+01,3.680312220233775133e-02
2.216000000000000014e+01,3.461492052089616689e-02
2.219999999999999929e+01,2.550092560165360261e-02
2.223999999999999844e+01,3.491563293519572841e-02
2.228000000000000114e+01,4.039919463642527298e-02
2.232000000000000028e+01,2.473239412696074530e-02
2.235999999999999943e+01,2.778146299085461693e-02
2.239999999999999858e+01,2.689938793919861848e-02
2.244000000000000128e+01,3.387758998435625585e-02
2.248000000000000043e+01,4.029362652707522974e-02
2.251999999999999957e+01,2.481064210512595389e-02
2.255999999999999872e+01,2.991518395591857837e-02
2.260000000000000142e+01,3.333456959816732262e-02
2.264000000000000057e+01,2.552336400975243821e-02
2.267999999999999972e+01,2.837992000884521915e-02
2.271999999999999886e+01,3.535344903430592822e-02
2.276000000000000156e+01,3.278087718016655522e-02
2.280000000000000071e+01,1.841622017294645627e-02
2.283999999999999986e+01,4.990642295876779322e-02
2.287999999999999901e+01,3.628909985761238216e-02
2.292000000000000171e+01,1.874064028021153738e-02
2.296000000000000085e+01,3.244814071533647093e-02
2.300000000000000000e+01,2.762560432144608308e-02
2.303999999999999915e+01,3.478099249203009391e-02
2.307999999999999829e+01,5.017099772311737343e-02
2.312000000000000099e+01,3.130907392180615201e-02
2.316000000000000014e+01,4.894374430100695283e-02
2.319999999999999929e+01,2.352971281318829919e-02
2.323999999999999844e+01,3.498660745801262378e-02
2.328000000000000114e+01,3.334126599012748882e-02
2.332000000000000028e+01,2.551880892280384769e-02
2.335999999999999943e+01,1.956734919217998497e-02
2.339999999999999858e+01,3.120878129065602843e-02
2.344000000000000128e+01,4.584420429320785334e-02
2.348000000000000043e+01,2.716353043270518935e-02
2.351999999999999957e+01,3.412386248194904104e-02
2.355999999999999872e+01,1.469321875366341908e-02
2.360000000000000142e+01,2.576988257872576960e-02
2.364000000000000057e+01,3.216675861287309618e-02
2.367999999999999972e+01,2.920471233307806586e-02
2.371999999999999886e+01,3.953075817275758519e-02
2.376000000000000156e+01,3.918772501632437205e-02
2.380000000000000071e+01,2.480663616743002120e-02
2.383999999999999986e+01,4.093285830540865922e-02
2.387999999999999901e+01,2.056117743808311832e-02
2.392000000000000171e+01,5.222083014043402832e-02
2.396000000000000085e+01,2.267674767890284077e-02
2.400000000000000000e+01,5.297768919757851053e-03
2.403999999999999915e+01,3.470949414033647901e-02
2.407999999999999829e+01,1.732922200726276854e-02
2.412000000000000099e+01,3.944020424978172262e-02
2.416000000000000014e+01,4.208533923960081080e-02
2.419999999999999929e+01,2.189565028037130170e-02
2.423999999999999844e+01,3.932556337538476582e-02
2.428000000000000114e+01,3.541797689634802043e-02
2.432000000000000028e+01,3.188407825762169800e-02
2.435999999999999943e+01,3.957946145251309972e-02
2.439999999999999858e+01,3.566994778830255564e-02
2.444000000000000128e+01,2.277585349060183215e-02
2.448000000000000043e+01,2.504151622331791255e-02
2.451999999999999957e+01,2.150441133184377920e-02
2.455999999999999872e+01,4.997195095830808675e-02
2.460000000000000142e+01,3.875978601525235934e-02
2.464000000000000057e+01,3.203895237438830756e-02
2.467999999999999972e+01,2.587897712793364377e-02
2.471999999999999886e+01,2.252584569387764898e-02
2.476000000000000156e+01,2.385121268258712582e-02
2.480000000000000071e+01,3.172673270442887689e-02
2.483999999999999986e+01,3.885295558301796182e-02
2.487999999999999901e+01,3.624594250766793868e-02
2.492000000000000171e+01,3.625861070217645254e-02
2.496000000000000085e+01,3.084284837491318293e-02
2.500000000000000000e+01,2.767243765439428640e-02
2.503999999999999915e+01,5.388636266550658749e-02
2.507999999999999829e+01,3.761310891698010916e-02
2.512000000000000099e+01,2.171355445384798646e-02
2.516000000000000014e+01,3.295235259337456202e-02
2.519999999999999929e+01,2.304082972450866018e-02
2.523999999999999844e+01,4.008049519899860996e-02
2.528000000000000114e+01,4.401795317348869419e-02
2.532000000000000028e+01,3.017406912495190080e-02
2.535999999999999943e+01,2.568782717827481840e-02
2.539999999999999858e+01,1.876780746560240826e-02
2.544000000000000128e+01,4.048346759185821042e-02
2.548000000000000043e+01,3.187770592874911157e-02
2.551999999999999957e+01,2.533013790787757430e-02
2.555999999999999872e+01,2.608139540821305044e-02
2.560000000000000142e+01,3.263415577151952685e-02
2.564000000000000057e+01,2.271573651651129580e-02
2.567999999999999972e+01,2.608543742143304769e-02
2.571999999999999886e+01,3.263632725273065555e-02
2.576000000000000156e+01,2.383903160534371624e-02
2.580000000000000071e+01,2.964001566132814722e-02
2.583999999999999986e+01,2.514628128604039572e-02
2.587999999999999901e+01,2.738988079855934205e-02
2.592000000000000171e+01,2.420506352340731290e-02
2.596000000000000085e+01,3.655435525969964045e-02
2.600000000000000000e+01,3.748593843086896887e-02
2.603999999999999915e+01,3.186611410826242774e-02
2.607999999999999829e+01,2.156653690224665659e-02
2.612000000000000099e+01,3.054437907291716187e-02
2.616000000000000014e+01,2.585853012174632246e-02
2.619999999999999929e+01,2.248222292588930235e-02
2.623999999999999844e+01,2.996089365197448715e-02
2.628000000000000114e+01,2.209138633867947094e-02
2.632000000000000028e+01,2.114638461179868187e-02
2.635999999999999943e+01,3.423817438841405408e-02
2.639999999999999858e+01,3.609942672625962579e-02
2.644000000000000128e+01,2.691730760140096171e-02
2.648000000000000043e+01,2.765434281295323440e-02
2.651999999999999957e+01,1.472769205295205823e-02
2.655999999999999872e+01,1.490200863866170122e-02
2.660000000000000142e+01,4.165320221674716217e-02
2.664000000000000057e+01,3.171936687125657267e-02
2.667999999999999972e+01,2.515389959005380136e-02
2.671999999999999886e+01,2.457711659875094420e-02
2.676000000000000156e+01,4.140610810208877890e-02
2.680000000000000071e+01,3.240566639192050263e-02
2.683999999999999986e+01,3.220139174558345196e-02
2.687999999999999901e+01,1.926926329703679622e-02
2.692000000000000171e+01,3.197818939984325287e-02
2.696000000000000085e+01,1.998067700102781896e-02
2.700000000000000000e+01,3.231406247139512883e-02
2.703999999999999915e+01,1.844368735415877897e-02
2.707999999999999829e+01,3.021436907729232665e-02
2.712000000000000099e+01,2.944436583555268966e-02
2.716000000000000014e+01,1.968982087360815827e-02
2.719999999999999929e+01,2.303625241344151378e-02
2.723999999999999844e+01,2.020562443474713601e-02
2.728000000000000114e+01,4.002140969671342391e-02
2.732000000000000028e+01,2.689548383965017359e-02
2.735999999999999943e+01,2.125557465904382229e-02
2.739999999999999858e+01,1.729955520899950638e-02
2.744000000000000128e+01,2.532152327139065157e-02
2.748000000000000043e+01,1.930548828870633574e-02
2.751999999999999957e+01,3.649736619164159479e-02
2.755999999999999872e+01,1.662989752522484391e-02
2.760000000000000142e+01,2.595963581089622690e-02
2.764000000000000057e+01,1.694656905284992743e-02
2.767999999999999972e+01,3.488472554566519196e-02
2.771999999999999886e+01,2.250149229535045384e-02
2.776000000000000156e+01,2.864704026889897115e-02
2.780000000000000071e+01,2.693104810117710052e-02
2.783999999999999986e+01,1.510753151870391185e-02
2.787999999999999901e+01,5.529407745276921846e-03
2.792000000000000171e+01,3.020196140487573649e-02
2.796000000000000085e+01,2.155848229388959703e-02
2.800000000000000000e+01,0.000000000000000000e+00
2.803999999999999915e+01,3.552637612087262281e-02
2.807999999999999829e+01,2.557096994019088937e-02
2.812000000000000099e+01,2.403741832785198304e-02
2.816000000000000014e+01,2.515517375674840642e-02
2.819999999999999929e+01,1.965116938727736601e-02
2.823999999999999844e+01,1.228004993317276597e-02
2.828000000000000114e+01,2.263736435066378977e-02
2.832000000000000028e+01,1.845969131314651249e-02
2.835999999999999943e+01,2.640058970883150946e-02
2.839999999999999858e+01,2.222072687758865420e-02
2.844000000000000128e+01,2.454817450221101136e-02
2.848000000000000043e+01,2.109627376520910660e-02
2.851999999999999957e+01,1.491692149933341628e-02
2.855999999999999872e+01,1.473468624416517450e-02
2.860000000000000142e+01,1.933435064845901927e-02
2.864000000000000057e+01,2.600082651357773014e-02
2.867999999999999972e+01,2.397157667028226510e-02
2.871999999999999886e+01,1.839047752190314453e-02
2.876000000000000156e+01,1.398845097017884301e-02
2.880000000000000071e+01,2.448009230080660376e-02
2.883999999999999986e+01,2.340694587126312259e-02
2.887999999999999901e+01,1.842420301787752596e-02
2.892000000000000171e+01,2.435165807442271971e-02
2.896000000000000085e+01,2.943293877290870802e-02
2.900000000000000000e+01,1.697705467716089517e-02
2.903999999999999915e+01,2.378606657884430042e-02
2.907999999999999829e+01,2.206104003761268778e-02
2.912000000000000099e+01,2.351176253195142937e-02
2.916000000000000014e+01,1.320959268927189394e-02
2.919999999999999929e+01,2.793333397998345666e-02
2.923999999999999844e+01,1.603304323807456383e-02
2.928000000000000114e+01,2.394512022072511903e-02
2.932000000000000028e+01,2.144348564520027686e-02
2.935999999999999943e+01,2.158267778892715080e-02
2.939999999999999858e+01,2.887333764510502040e-02
2.944000000000000128e+01,1.520064199161864221e-02
2.948000000000000043e+01,2.144164345281817860e-02
2.951999999999999957e+01,1.957978610053381224e-02
2.955999999999999872e+01,1.661629330942400104e-02
2.960000000000000142e+01,1.805021402660934166e-02
2.964000000000000057e+01,1.753852898060404703e-02
2.967999999999999972e+01,2.028541705010717885e-02
2.971999999999999886e+01,1.612126503888353796e-02
2.976000000000000156e+01,2.841595326654475229e-02
2.980000000000000071e+01,1.843575389535313455e-02
2.983999999999999986e+01,2.155656879471613829e-02
2.987999999999999901e+01,1.793886573289433725e-02
2.992000000000000171e+01,2.873233591281438778e-02
2.996000000000000085e+01,2.249319206643880797e-02
3.000000000000000000e+01,3.384703447110488234e-02
3.003999999999999915e+01,2.330196349489089755e-02
3.007999999999999829e+01,2.080444431985265658e-02
3.012000000000000099e+01,1.549888409719128203e-02
3.016000000000000014e+01,2.123552328119421295e-02
3.019999999999999929e+01,2.060797988966852137e-02
3.023999999999999844e+01,2.971247922263663827e-02
3.028000000000000114e+01,2.683783501024670712e-02
3.032000000000000028e+01,2.751877634108740311e-02
3.035999999999999943e+01,1.191577098341943183e-02
3.039999999999999858e+01,2.476135102038811223e-02
3.044000000000000128e+01,2.413046657052536625e-02
3.048000000000000043e+01,2.275036566525110229e-02
3.051999999999999957e+01,2.005955266538563334e-02
3.055999999999999872e+01,2.111149404608737845e-02
3.060000000000000142e+01,2.216288230338511744e-02
3.064000000000000057e+01,1.610143266470531048e-02
3.067999999999999972e+01,2.126935527580556262e-02
3.071999999999999886e+01,2.419074163452935439e-02
3.076000000000000156e+01,1.681747994924666020e-02
3.080000000000000071e+01,2.048642682669541207e-02
3.083999999999999986e+01,2.864679370573563685e-02
3.087999999999999901e+01,2.314353698892930924e-02
3.092000000000000171e+01,2.493918247539169200e-02
3.096000000000000085e+01,1.737600979817493368e-02
3.100000000000000000e+01,3.245930358125868193e-02
3.103999999999999915e+01,2.639235990506220639e-02
3.107999999999999829e+01,2.238368941443596993e-02
3.112000000000000099e+01,2.904290125695219507e-02
3.116000000000000014e+01,4.038070308290470090e-02
3.119999999999999929e+01,1.765385687561677602e-02
3.123999999999999844e+01,2.019379621551213935e-02
3.128000000000000114e+01,2.516634240987129095e-02
3.132000000000000028e+01,2.321322584038539721e-02
3.135999999999999943e+01,2.294405565462651411e-02
3.139999999999999858e+01,1.724654708002106365e-02
3.144000000000000128e+01,2.783188753092934523e-02
3.148000000000000043e+01,2.943274806508548030e-02
3.151999999999999957e+01,2.672826435002515974e-02
3.155999999999999872e+01,1.410347484366472094e-02
3.160000000000000142e+01,1.832303286326864358e-02
3.164000000000000057e+01,2.160622561902134781e-02
3.167999999999999972e+01,8.043994359219866150e-03
3.171999999999999886e+01,2.536351762798985318e-02
3.176000000000000156e+01,2.508895641046900507e-02
3.180000000000000071e+01,7.594642086534078053e-03
3.183999999999999986e+01,2.528688829559218310e-02
3.187999999999999901e+01,2.239040527414183288e-02
3.192000000000000171e+01,2.660567335850386878e-02
3.196000000000000085e+01,2.127497218173027282e-02
3.200000000000000000e+01,1.444641467995934868e-02
3.203999999999999915e+01,2.146756453796877517e-02
3.207999999999999829e+01,1.597161993321448079e-02
3.211999999999999744e+01,1.120233627039542504e-02
3.215999999999999659e+01,1.432148083920363468e-02
3.220000000000000284e+01,2.036409782324975770e-02
3.224000000000000199e+01,1.889158543562286657e-02
3.228000000000000114e+01,1.483169076130076876e-02
3.232000000000000028e+01,1.723408993795508964e-02
3.235999999999999943e+01,1.317866852852646320e-02
3.239999999999999858e+01,2.142873683856841988e-02
3.243999999999999773e+01,1.822861927824267342e-02
3.247999999999999687e+01,1.736797424659896130e-02
3.252000000000000313e+01,2.307973881119744844e-02
3.256000000000000227e+01,1.838666194014905442e-02
3.260000000000000142e+01,1.852567067258775735e-02
3.264000000000000057e+01,2.027792417043087353e-02
3.267999999999999972e+01,1.323722179169531388e-02
3.271999999999999886e+01,2.166149680079141465e-02
3.275999999999999801e+01,2.337607199460355750e-02
3.279999999999999716e+01,1.548327984577350068e-02
3.284000000000000341e+01,1.727098488342120389e-02
3.288000000000000256e+01,1.614075636173899903e-02
3.292000000000000171e+01,1.732311846774785974e-02
3.296000000000000085e+01,2.048490623295266128e-02
3.300000000000000000e+01,1.568612136849377101e-02
3.303999999999999915e+01,1.166774386500012833e-02
3.307999999999999829e+01,1.723279054993476916e-02
3.311999999999999744e+01,1.339311280947528757e-02
3.315999999999999659e+01,2.142064327651239941e-02
3.320000000000000284e+01,1.683541240747828821e-02
3.324000000000000199e+01,1.332579975603261427e-02
3.328000000000000114e+01,2.005158881121513539e-02
3.332000000000000028e+01,9.787347511803152003e-03
3.335999999999999943e+01,1.312293368116115161e-02
3.339999999999999858e+01,1.495339121375746302e-02
3.343999999999999773e+01,1.454593103999940115e-02
3.347999999999999687e+01,2.070798976008939724e-02
3.352000000000000313e+01,1.528301716191983115e-02
3.356000000000000227e+01,1.699391457753877954e-02
3.360000000000000142e+01,1.949521115576044808e-02
3.364000000000000057e+01,1.920675612782200836e-02
3.367999999999999972e+01,1.653090849233862167e-02
3.371999999999999886e+01,3.831627606234823402e-02
3.375999999999999801e+01,3.445947539489254557e-02
3.379999999999999716e+01,2.611019769289799411e-02
3.384000000000000341e+01,1.645025539341035681e-02
3.388000000000000256e+01,2.363469323837604635e-02
3.392000000000000171e+01,1.734271638262504384e-02
3.396000000000000085e+01,2.415181273961050645e-02
3.400000000000000000e+01,1.860748796325527657e-02
3.403999999999999915e+01,1.661880194977059452e-02
3.407999999999999829e+01,3.184882974963273994e-02
3.411999999999999744e+01,2.330834850042987419e-02
3.415999999999999659e+01,3.441973245862851166e-02
3.420000000000000284e+01,2.400659335800564911e-02
3.424000000000000199e+01,2.800468930257751440e-02
3.428000000000000114e+01,2.563866104154823716e-02
3.432000000000000028e+01,1.990315560815230853e-02
3.435999999999999943e+01,2.988904476339241528e-02
3.439999999999999858e+01,1.909907533632701146e-02
3.443999999999999773e+01,2.197168220048223430e-02
3.447999999999999687e+01,2.428229523845639587e-02
3.452000000000000313e+01,1.760847185099703033e-02
3.456000000000000227e+01,1.973092597242802337e-02
3.460000000000000142e+01,2.877800413689101180e-02
3.464000000000000057e+01,2.303852007453400380e-02
3.467999999999999972e+01,3.358193139028036595e-02
3.471999999999999886e+01,4.056870585239068239e-02
3.475999999999999801e+01,3.333041601587730801e-02
3.479999999999999716e+01,1.729485916352102928e-02
3.484000000000000341e+01,3.251543228318570788e-02
3.488000000000000256e+01,4.043606276200595318e-02
3.492000000000000171e+01,3.955942794174580057e-02
3.496000000000000085e+01,3.475182889375233453e-02
3.500000000000000000e+01,2.395444674835579130e-02
3.503999999999999915e+01,2.232767978652240234e-02
3.507999999999999829e+01,2.725121292714880600e-02
3.511999999999999744e+01,3.105126518622753490e-02
3.515999999999999659e+01,3.241767930933389663e-02
3.520000000000000284e+01,2.292801269721539068e-02
3.524000000000000199e+01,2.972124947475896645e-02
3.528000000000000114e+01,4.138030058173190751e-02
3.532000000000000028e+01,4.087311484356376257e-02
3.535999999999999943e+01,3.344032413922398694e-02
3.539999999999999858e+01,4.472358936310940475e-02
3.543999999999999773e+01,4.496361188148389337e-02
3.547999999999999687e+01,4.183417382286326591e-02
3.552000000000000313e+01,3.458661414425667768e-02
3.556000000000000227e+01,3.875566193425293571e-02
3.560000000000000142e+01,4.180123570975179115e-02
3.564000000000000057e+01,3.923136635153719881e-02
3.567999999999999972e+01,4.714227915963170590e-02
3.571999999999999886e+01,2.959821717452754131e-02
3.575999999999999801e+01,4.068998266993321261e-02
3.579999999999999716e+01,2.576527830521471024e-02
3.584000000000000341e+01,3.891490635408068055e-02
3.588000000000000256e+01,3.353468183978124822e-02
3.592000000000000171e+01,4.855500932731302705e-02
3.596000000000000085e+01,3.943052328185005923e-02
3.600000000000000000e+01,5.426273305514049683e-02
3.603999999999999915e+01,6.385383622488192967e-02
3.607999999999999829e+01,6.820383336332853930e-02
3.611999999999999744e+01,4.522720739300580689e-02
3.615999999999999659e+01,5.687570754769508130e-02
3.620000000000000284e+01,6.908523090600120209e-02
3.624000000000000199e+01,6.444939548573108690e-02
3.628000000000000114e+01,6.374356168218890673e-02
3.632000000000000028e+01,6.790355708668514845e-02
3.635999999999999943e+01,6.794544288853344993e-02
3.639999999999999858e+01,7.809379034964383792e-02
3.643999999999999773e+01,6.802780462484629698e-02
3.647999999999999687e+01,7.087576276098812855e-02
3.652000000000000313e+01,7.727939513976048169e-02
3.656000000000000227e+01,7.301413164376177600e-02
3.660000000000000142e+01,9.195691093508434610e-02
3.664000000000000057e+01,8.301157834550826342e-02
3.667999999999999972e+01,9.109783136199026132e-02
3.671999999999999886e+01,8.739219836985037682e-02
3.675999999999999801e+01,9.529035541775042473e-02
3.679999999999999716e+01,8.709182331387797793e-02
3.684000000000000341e+01,8.768960133738488982e-02
3.688000000000000256e+01,9.352754738811147606e-02
3.692000000000000171e+01,1.165842478822324696e-01
3.696000000000000085e+01,9.996142063337896955e-02
3.700000000000000000e+01,1.228300320259683165e-01
3.703999999999999915e+01,1.204308529135586642e-01
3.707999999999999829e+01,1.215873560553381721e-01
3.711999999999999744e+01,1.450160824046871355e-01
3.715999999999999659e+01,1.446743431962897175e-01
3.720000000000000284e+01,1.505086036122018633e-01
3.724000000000000199e+01,1.509146091883794283e-01
3.728000000000000114e+01,1.846355990860075735e-01
3.732000000000000028e+01,1.811102166404952585e-01
3.735999999999999943e+01,1.948035949331736738e-01
3.739999999999999858e+01,2.010099012332104418e-01
3.743999999999999773e+01,2.495151335266551362e-01
3.747999999999999687e+01,2.510413947677905822e-01
3.752000000000000313e+01,2.729682309009249241e-01
3.756000000000000227e+01,2.791727195627388691e-01
3.760000000000000142e+01,3.093339269334740571e-01
3.764000000000000057e+01,3.479171250690498152e-01
3.767999999999999972e+01,3.681576617967103338e-01
3.771999999999999886e+01,3.805368003021402101e-01
3.775999999999999801e+01,4.179956522283754805e-01
3.779999999999999716e+01,4.739834290142763695e-01
3.784000000000000341e+01,5.282862676204809205e-01
3.788000000000000256e+01,5.696742443905675746e-01
3.792000000000000171e+01,6.065698030682973307e-01
3.796000000000000085e+01,6.576894846070505674e-01
3.800000000000000000e+01,7.007606065255409522e-01
3.803999999999999915e+01,7.316655305121756436e-01
3.807999999999999829e+01,8.215271105874871749e-01
3.811999999999999744e+01,8.820032767248152661e-01
3.815999999999999659e+01,8.999924512296259005e-01
3.820000000000000284e+01,9.432485108538490870e-01
3.824000000000000199e+01,9.908089309428782521e-01
3.828000000000000114e+01,1.000000000000000000e+00
3.832000000000000028e+01,9.878537703442934470e-01
3.835999999999999943e+01,9.682204824300459922e-01
3.839999999999999858e+01,9.367953325418526545e-01
3.843999999999999773e+01,9.192199815741104452e-01
3.847999999999999687e+01,8.453074036698509097e-01
3.852000000000000313e+01,8.402712545510612197e-01
3.856000000000000227e+01,7.646733089506071446e-01
3.860000000000000142e+01,7.111604423273162334e-01
3.864000000000000057e+01,6.808556476763102383e-01
3.867999999999999972e+01,6.381974988457042031e-01
3.871999999999999886e+01,5.891752893297124150e-01
3.875999999999999801e+01,5.523183946779040010e-01
3.879999999999999716e+01,5.064771248318606922e-01
3.884000000000000341e+01,4.756086520516779603e-01
3.888000000000000256e+01,4.499803759114243129e-01
3.892000000000000171e+01,4.178008765432448257e-01
3.896000000000000085e+01,3.820648009803737644e-01
3.900000000000000000e+01,3.700982987515093470e-01
3.903999999999999915e+01,3.502704171848026182e-01
3.907999999999999829e+01,3.122870596428884982e-01
3.911999999999999744e+01,3.040625700737039638e-01
3.915999999999999659e+01,2.819874099614794183e-01
3.920000000000000284e+01,2.614091429909924380e-01
3.924000000000000199e+01,2.535576939631729032e-01
3.928000000000000114e+01,2.430855003377516144e-01
3.932000000000000028e+01,2.200727962849859110e-01
3.935999999999999943e+01,2.004286417010871235e-01
3.939999999999999858e+01,1.966931192136640305e-01
3.943999999999999773e+01,1.879037041681094755e-01
3.947999999999999687e+01,1.922154413063699996e-01
3.952000000000000313e+01,1.789332049756530707e-01
3.956000000000000227e+01,1.841799186837861368e-01
3.960000000000000142e+01,1.602284050311520436e-01
3.964000000000000057e+01,1.491908804475385319e-01
3.967999999999999972e+01,1.712812091168159079e-01
3.971999999999999886e+01,1.585583500277507885e-01
3.975999999999999801e+01,1.563163314749225208e-01
3.979999999999999716e+01,1.327370353826709259e-01
3.984000000000000341e+01,1.297455127769725491e-01
3.988000000000000256e+01,1.245075849651078037e-01
3.992000000000000171e+01,1.329323118432880202e-01
3.996000000000000085e+01,1.207684250863067521e-01
4.000000000000000000e+01,1.153420742228621759e-01
4.003999999999999915e+01,1.134714479604170684e-01
4.007999999999999829e+01,9.831166052821227463e-02
4.011999999999999744e+01,1.097289435103003669e-01
4.015999999999999659e+01,1.144078556005311692e-01
4.020000000000000284e+01,1.013056385462945408e-01
4.024000000000000199e+01,1.013045845487026697e-01
4.028000000000000114e+01,8.726571062737696616e-02
4.032000000000000028e+01,9.381461705965475628e-02
4.035999999999999943e+01,1.009246062099854180e-01
4.039999999999999858e+01,8.838181503900702229e-02
4.043999999999999773e+01,8.688137034402045045e-02
4.047999999999999687e+01,8.968531816007455082e-02
4.052000000000000313e+01,7.321081817920462032e-02
4.056000000000000227e+01,8.612087596459264138e-02
4.060000000000000142e+01,8.929792269193935483e-02
4.064000000000000057e+01,7.506817737723728290e-02
4.067999999999999972e+01,8.554385645027420826e-02
4.071999999999999886e+01,8.553786456678734440e-02
4.075999999999999801e+01,7.336571366472952049e-02
4.079999999999999716e+01,7.541772625374279504e-02
4.084000000000000341e+01,6.773673121823986509e-02
4.088000000000000256e+01,7.690021647167392949e-02
4.092000000000000171e+01,6.846974828502729038e-02
4.096000000000000085e+01,7.538643830133597012e-02
4.100000000000000000e+01,7.612626565455923866e-02
4.103999999999999915e+01,8.715978645234216671e-02
4.107999999999999829e+01,7.423573236947832166e-02
4.111999999999999744e+01,6.280859889655332484e-02
4.115999999999999659e+01,7.327941562124867803e-02
4.120000000000000284e+01,5.848250135538100164e-02
4.124000000000000199e+01,6.745519246975471839e-02
4.128000000000000114e+01,7.081252113825613204e-02
4.132000000000000028e+01,6.069354097306650653e-02
4.135999999999999943e+01,5.768644696567868518e-02
4.139999999999999858e+01,4.625651117201218937e-02
4.143999999999999773e+01,7.057476946377877480e-02
4.147999999999999687e+01,8.422420226803994936e-02
4.152000000000000313e+01,7.840803617792069247e-02
4.156000000000000227e+01,5.106745232375133753e-02
4.160000000000000142e+01,6.976916205365113477e-02
4.164000000000000057e+01,7.331007889359204832e-02
4.167999999999999972e+01,6.711800012635485424e-02
4.171999999999999886e+01,6.429450459098198789e-02
4.175999999999999801e+01,7.700534410745955849e-02
4.179999999999999716e+01,6.107948394858428443e-02
4.184000000000000341e+01,5.058102818025977249e-02
4.188000000000000256e+01,6.141903669869734628e-02
4.192000000000000171e+01,6.289838385110448071e-02
4.196000000000000085e+01,6.100836313169569897e-02
4.200000000000000000e+01,5.219283244031131669e-02
4.203999999999999915e+01,6.078329484466923199e-02
4.207999999999999829e+01,6.787604513208646273e-02
4.211999999999999744e+01,8.077053462345637480e-02
4.215999999999999659e+01,7.232778033840024656e-02
4.220000000000000284e+01,6.351030807603361139e-02
4.224000000000000199e+01,7.116300475162395944e-02
4.228000000000000114e+01,7.638216515248831551e-02
4.232000000000000028e+01,7.130684289080785332e-02
4.235999999999999943e+01,6.454664711415472600e-02
4.239999999999999858e+01,6.246520212436604269e-02
4.243999999999999773e+01,7.423361328044769669e-02
4.247999999999999687e+01,7.514604785156747679e-02
4.252000000000000313e+01,6.145919833375452362e-02
4.256000000000000227e+01,7.472378494536269233e-02
4.260000000000000142e+01,7.956554693831799363e-02
4.264000000000000057e+01,7.018235736672558123e-02
4.267999999999999972e+01,8.756344023750571581e-02
4.271999999999999886e+01,9.371421914922656304e-02
4.275999999999999801e+01,7.665610883022182243e-02
4.279999999999999716e+01,7.662967167216661046e-02
4.284000000000000341e+01,8.558679588343086342e-02
4.288000000000000256e+01,9.323338482664950133e-02
4.292000000000000171e+01,8.029140248151697690e-02
4.296000000000000085e+01,8.868589987400964103e-02
4.300000000000000000e+01,8.416560867892121378e-02
4.303999999999999915e+01,8.488557363819798640e-02
4.307999999999999829e+01,8.878697588217042413e-02
4.311999999999999744e+01,9.343666573354625360e-02
4.315999999999999659e+01,9.097369680450674567e-02
4.320000000000000284e+01,9.992744464462084697e-02
4.324000000000000199e+01,1.028915272716955792e-01
4.328000000000000114e+01,1.058552381799454378e-01
4.332000000000000028e+01,1.097544049606809791e-01
4.335999999999999943e+01,1.187066670700040183e-01
4.339999999999999858e+01,1.100650112190063451e-01
4.343999999999999773e+01,1.201395263193265339e-01
4.347999999999999687e+01,1.158019364686258545e-01
4.352000000000000313e+01,1.221324063498672868e-01
4.356000000000000227e+01,1.209758923656128193e-01
4.360000000000000142e+01,1.301131084501863100e-01
4.364000000000000057e+01,1.298916877756597088e-01
4.367999999999999972e+01,1.410869907373370202e-01
4.371999999999999886e+01,1.449824775263463816e-01
4.375999999999999801e+01,1.475674416369024133e-01
4.379999999999999716e+01,1.574514922165772268e-01
4.384000000000000341e+01,1.555437586488764845e-01
4.388000000000000256e+01,1.474592036203921930e-01
4.392000000000000171e+01,1.642672847360477917e-01
4.396000000000000085e+01,1.649787791334313414e-01
4.400000000000000000e+01,1.774813325526748975e-01
4.403999999999999915e+01,1.690209998990621076e-01
4.407999999999999829e+01,1.671110961051024413e-01
4.411999999999999744e+01,1.788639070878779436e-01
4.415999999999999659e+01,1.861243892499505892e-01
4.420000000000000284e+01,1.917000242207434479e-01
4.424000000000000199e+01,1.916603390924742079e-01
4.428000000000000114e+01,1.921817927631687684e-01
4.432000000000000028e+01,1.986921825156077182e-01
4.435999999999999943e+01,2.119401705372905564e-01
4.439999999999999858e+01,2.171396904993815602e-01
4.443999999999999773e+01,2.002533376882905947e-01
4.447999999999999687e+01,1.839281265374343999e-01
4.452000000000000313e+01,2.155169047833159490e-01
4.456000000000000227e+01,1.952605127667876583e-01
4.460000000000000142e+01,2.129983448895086395e-01
4.464000000000000057e+01,2.110834573498650280e-01
4.467999999999999972e+01,1.979382938916177392e-01
4.471999999999999886e+01,2.074397931768589831e-01
4.475999999999999801e+01,1.735185682324680845e-01
4.479999999999999716e+01,1.779659010962199306e-01
4.484000000000000341e+01,1.861561926352857388e-01
4.488000000000000256e+01,1.679558134083066756e-01
4.492000000000000171e+01,1.677229646908056371e-01
4.496000000000000085e+01,1.622491369824404783e-01
4.500000000000000000e+01,1.719353598708928954e-01
4.503999999999999915e+01,1.428779976307739674e-01
4.507999999999999829e+01,1.520020318007660465e-01
4.511999999999999744e+01,1.452166612516689326e-01
4.515999999999999659e+01,1.436715771864092994e-01
4.520000000000000284e+01,1.353881943333206939e-01
4.524000000000000199e+01,1.244841521485049868e-01
4.528000000000000114e+01,1.117081128194614553e-01
4.532000000000000028e+01,1.120333092233451039e-01
4.535999999999999943e+01,1.215292684523737315e-01
4.539999999999999858e+01,9.602495577934394566e-02
4.543999999999999773e+01,9.709778963041466870e-02
4.547999999999999687e+01,9.667296000615106799e-02
4.552000000000000313e+01,9.475046747880730424e-02
4.556000000000000227e+01,7.804156895003806771e-02
4.560000000000000142e+01,8.229485712004837306e-02
4.564000000000000057e+01,7.906119118178066285e-02
4.567999999999999972e+01,8.499829264669145346e-02
4.571999999999999886e+01,6.922387045817694762e-02
4.575999999999999801e+01,6.729935191263076988e-02
4.579999999999999716e+01,8.072206081279717504e-02
4.584000000000000341e+01,7.299474398773467265e-02
4.588000000000000256e+01,6.601575425561490018e-02
4.592000000000000171e+01,5.098831820956274685e-02
4.596000000000000085e+01,6.309953233834933450e-02
4.600000000000000000e+01,5.799119651096026895e-02
4.603999999999999915e+01,5.737449814175584611e-02
4.607999999999999829e+01,4.627620549808949407e-02
4.611999999999999744e+01,3.835939363043736755e-02
4.615999999999999659e+01,5.365076131885853500e-02
4.620000000000000284e+01,5.284557433524249975e-02
4.624000000000000199e+01,4.193312617380377111e-02
4.628000000000000114e+01,4.225027344128028106e-02
4.632000000000000028e+01,4.275425788506187486e-02
4.635999999999999943e+01,4.718838815362783740e-02
4.639999999999999858e+01,3.983077089908652196e-02
4.643999999999999773e+01,3.209849632617911563e-02
4.647999999999999687e+01,3.634448165870286102e-02
4.652000000000000313e+01,3.254202926110720540e-02
4.656000000000000227e+01,2.742909424285164960e-02
4.660000000000000142e+01,3.242276680867726274e-02
4.664000000000000057e+01,4.172092001268917771e-02
4.667999999999999972e+01,3.117921733548897206e-02
4.671999999999999886e+01,2.606498886385107128e-02
4.675999999999999801e+01,3.704666318727142110e-02
4.679999999999999716e+01,4.372321186257692449e-02
4.684000000000000341e+01,3.261872638761093013e-02
4.688000000000000256e+01,3.592565679016445496e-02
4.692000000000000171e+01,3.155848599276297323e-02
4.696000000000000085e+01,4.104123600595563359e-02
4.700000000000000000e+01,2.974830769691343829e-02
4.703999999999999915e+01,2.987215109342735916e-02
4.707999999999999829e+01,3.729512788390383637e-02
4.711999999999999744e+01,2.150927781936170721e-02
4.715999999999999659e+01,2.537547894483372160e-02
4.720000000000000284e+01,2.343923691424266639e-02
4.724000000000000199e+01,2.374866466372696494e-02
4.728000000000000114e+01,2.256045468931553583e-02
4.732000000000000028e+01,2.380508104329913388e-02
4.735999999999999943e+01,3.253601020083590756e-02
4.739999999999999858e+01,2.142709377773605040e-02
4.743999999999999773e+01,3.184188658854232579e-02
4.747999999999999687e+01,2.859329328899190212e-02
4.752000000000000313e+01,1.767060737329941705e-02
4.756000000000000227e+01,2.808446700446433353e-02
4.760000000000000142e+01,2.071730335818746868e-02
4.764000000000000057e+01,1.746746925264046693e-02
4.767999999999999972e+01,1.852213066388874035e-02
4.771999999999999886e+01,2.313262654894153100e-02
4.775999999999999801e+01,2.587116076952635305e-02
4.779999999999999716e+01,2.673773389789752680e-02
4.784000000000000341e+01,2.591951191012047129e-02
4.788000000000000256e+01,1.649137543743269332e-02
4.792000000000000171e+01,9.870414684575293252e-03
4.796000000000000085e+01,1.429190799149794577e-02
4.800000000000000000e+01,2.170774356657062532e-02
4.803999999999999915e+01,2.594146365627597595e-02
4.807999999999999829e+01,1.726046783468253298e-02
4.811999999999999744e+01,3.590531849346560028e-02
4.815999999999999659e+01,1.749111729380570940e-02
4.820000000000000284e+01,1.966480918182531706e-02
4.824000000000000199e+01,2.707883161725525845e-02
4.828000000000000114e+01,1.951932156073352825e-02
4.832000000000000028e+01,3.329636792389890909e-02
4.835999999999999943e+01,2.124428951856796935e-02
4.839999999999999858e+01,3.352341513841264331e-02
4.843999999999999773e+01,1.342262800087530225e-02
4.847999999999999687e+01,1.653005361015436395e-02
4.852000000000000313e+01,1.963718246590784311e-02
4.856000000000000227e+01,1.507023358412818911e-02
4.860000000000000142e+01,2.847086785921229546e-02
4.864000000000000057e+01,2.109584727448344382e-02
4.867999999999999972e+01,1.933549433958350883e-02
4.871999999999999886e+01,2.169248639627668201e-02
4.875999999999999801e+01,2.891548563206214340e-02
4.879999999999999716e+01,1.798314795040904107e-02
4.884000000000000341e+01,1.996493095624082489e-02
4.888000000000000256e+01,1.464697161019552774e-02
4.892000000000000171e+01,1.120037527127917647e-02
4.896000000000000085e+01,1.243262356891479577e-02
4.900000000000000000e+01,1.272875496101880458e-02
4.903999999999999915e+01,1.770373213418319561e-02
4.907999999999999829e+01,2.398857839205947862e-02
4.911999999999999744e+01,1.698439280962352194e-02
4.915999999999999659e+01,2.120984385840465891e-02
4.920000000000000284e+01,2.356335384386880685e-02
4.924000000000000199e+01,8.697360225746854703e-03
4.928000000000000114e+01,1.123746328137614249e-02
4.932000000000000028e+01,2.575586687248428847e-02
4.935999999999999943e+01,2.062161832722256283e-02
4.939999999999999858e+01,1.305393536848100527e-02
4.943999999999999773e+01,2.326668218012999459e-02
4.947999999999999687e+01,1.307811695692659600e-02
4.952000000000000313e+01,2.010848643718835677e-02
4.956000000000000227e+01,2.152361192819568503e-02
4.960000000000000142e+01,1.769782480982523554e-02
4.964000000000000057e+01,1.555624559534799639e-02
4.967999999999999972e+01,1.509887485701797046e-02
4.971999999999999886e+01,1.857169801282456886e-02
4.975999999999999801e+01,1.830093407876030170e-02
4.979999999999999716e+01,1.597107226138073238e-02
4.984000000000000341e+01,2.112754872731426731e-02
4.988000000000000256e+01,2.441209385825211103e-02
4.992000000000000171e+01,1.852525747780932319e-02
4.996000000000000085e+01,2.087342271268733188e-02
5.000000000000000000e+01,2.097532752170965659e-02
5.003999999999999915e+01,1.939246868856434394e-02
5.007999999999999829e+01,1.968098945791948995e-02
5.011999999999999744e+01,1.922057474867173640e-02
5.015999999999999659e+01,2.044437538262151854e-02
5.020000000000000284e+01,2.316522652821185330e-02
5.024000000000000199e+01,2.045800881668032034e-02
5.028000000000000114e+01,2.242965462608912178e-02
5.032000000000000028e+01,2.009622514575198915e-02
5.035999999999999943e+01,1.982134467750594140e-02
5.039999999999999858e+01,1.393123223734348687e-02
5.043999999999999773e+01,1.814778231766471170e-02
5.047999999999999687e+01,1.805925939725676679e-02
5.052000000000000313e+01,1.497582187505261744e-02
5.056000000000000227e+01,1.881723672530334623e-02
5.060000000000000142e+01,2.378137700211395422e-02
5.064000000000000057e+01,2.069713849098700834e-02
5.067999999999999972e+01,1.087467959085541142e-02
5.071999999999999886e+01,1.172038342842067309e-02
5.075999999999999801e+01,1.911661169208917280e-02
5.079999999999999716e+01,1.603131320729039855e-02
5.084000000000000341e+01,1.837354787023577629e-02
5.088000000000000256e+01,1.622354985118261081e-02
5.092000000000000171e+01,2.530321364253098823e-02
5.096000000000000085e+01,1.959654868676994482e-02
5.100000000000000000e+01,1.108214140007425172e-02
5.103999999999999915e+01,1.342306683292019027e-02
5.107999999999999829e+01,1.838404778986648877e-02
5.111999999999999744e+01,1.548382222973671528e-02
5.115999999999999659e+01,1.857263060681838690e-02
5.120000000000000284e+01,9.121098516050822960e-03
5.124000000000000199e+01,2.081899921571520387e-02
5.128000000000000114e+01,1.529742549675728799e-02
5.132000000000000028e+01,2.081835390693153806e-02
5.135999999999999943e+01,2.297004892502520906e-02
5.139999999999999858e+01,2.231400733472615680e-02
5.143999999999999773e+01,1.866306430447736003e-02
5.147999999999999687e+01,2.362147544283122597e-02
5.152000000000000313e+01,1.865986634472703923e-02
5.156000000000000227e+01,1.818997367588611955e-02
5.160000000000000142e+01,1.865565533614875135e-02
5.164000000000000057e+01,1.182163413007356577e-02
5.167999999999999972e+01,1.939909747202102699e-02
5.171999999999999886e+01,1.368756617017880504e-02
5.175999999999999801e+01,1.901854329226489171e-02
5.179999999999999716e+01,2.116745872087772221e-02
5.184000000000000341e+01,1.826265899015888650e-02
5.188000000000000256e+01,1.816509163243548025e-02
5.192000000000000171e+01,1.881593777803786116e-02
5.196000000000000085e+01,1.272858184676977679e-02
5.200000000000000000e+01,1.768373777295524293e-02
5.203999999999999915e+01,2.544612836115288726e-02
5.207999999999999829e+01,2.085535647490486394e-02
5.211999999999999744e+01,2.169213604853510030e-02
5.215999999999999659e+01,2.121851311709239268e-02
5.220000000000000284e+01,2.037031527188725918e-02
5.224000000000000199e+01,2.326518196902165395e-02
5.228000000000000114e+01,1.979618197494164081e-02
5.232000000000000028e+01,2.250339791725585251e-02
5.235999999999999943e+01,1.978257533192041145e-02
5.239999999999999858e+01,1.406686504073583963e-02
5.243999999999999773e+01,2.912627389998642680e-02
5.247999999999999687e+01,2.790205252729677926e-02
5.252000000000000313e+01,2.162412572359674948e-02
5.256000000000000227e+01,1.834060642502467059e-02
5.260000000000000142e+01,2.366645731817262552e-02
5.264000000000000057e+01,2.000813101703629096e-02
5.267999999999999972e+01,2.308752201401571141e-02
5.271999999999999886e+01,1.849289478789799962e-02
5.275999999999999801e+01,2.568945190730853242e-02
5.279999999999999716e+01,2.577348815956419584e-02
5.284000000000000341e+01,1.911933492454157696e-02
5.288000000000000256e+01,2.088739048320704256e-02
5.292000000000000171e+01,2.003489658295047604e-02
5.296000000000000085e+01,1.506453056553589027e-02
5.300000000000000000e+01,1.945220207762821812e-02
5.303999999999999915e+01,2.047066423231606175e-02
5.307999999999999829e+01,2.242472188951248960e-02
5.311999999999999744e+01,2.157106754524654862e-02
5.315999999999999659e+01,2.071718282894132249e-02
5.320000000000000284e+01,2.847267688816897471e-02
5.324000000000000199e+01,1.882155916541847912e-02
5.328000000000000114e+01,3.574770012859031232e-02
5.332000000000000028e+01,2.422447162942801754e-02
5.335999999999999943e+01,2.729991711677568628e-02
5.339999999999999858e+01,2.288851951315878236e-02
5.343999999999999773e+01,2.633784250335491697e-02
5.347999999999999687e+01,2.492063920045252401e-02
5.352000000000000313e+01,2.331604527198729432e-02
5.356000000000000227e+01,1.796791861779955396e-02
5.360000000000000142e+01,2.871579261413695350e-02
5.364000000000000057e+01,2.692336105013095476e-02
5.367999999999999972e+01,3.317881891727438720e-02
5.371999999999999886e+01,3.269609988673186779e-02
5.375999999999999801e+01,2.397788130026747011e-02
5.379999999999999716e+01,2.368188466933757175e-02
5.384000000000000341e+01,1.627338204986181203e-02
5.388000000000000256e+01,2.159190681808788315e-02
5.392000000000000171e+01,2.765887370234936318e-02
5.396000000000000085e+01,2.230853202716855457e-02
5.400000000000000000e+01,2.369592653449183184e-02
5.403999999999999915e+01,1.871947952978522678e-02
5.407999999999999829e+01,2.197809308258122374e-02
5.411999999999999744e+01,1.363223496114043809e-02
5.415999999999999659e+01,2.643585140468754022e-02
5.420000000000000284e+01,3.175263620235394685e-02
5.424000000000000199e+01,3.201574017594032567e-02
5.428000000000000114e+01,2.741232930151196387e-02
5.432000000000000028e+01,2.954665918762127905e-02
5.435999999999999943e+01,2.494282133211174479e-02
5.439999999999999858e+01,2.894837941976080228e-02
5.443999999999999773e+01,2.471844767980930363e-02
5.447999999999999687e+01,2.198562768269696904e-02
5.452000000000000313e+01,2.224724323116806027e-02
5.456000000000000227e+01,2.812361055083438185e-02
5.460000000000000142e+01,2.333134008237054691e-02
5.464000000000000057e+01,1.910035662670631768e-02
5.467999999999999972e+01,2.160711908186749297e-02
5.471999999999999886e+01,2.373934267528036643e-02
5.475999999999999801e+01,2.699435120968924490e-02
5.479999999999999716e+01,2.744167177731178520e-02
5.484000000000000341e+01,3.331658271809764815e-02
5.488000000000000256e+01,2.608970962698634738e-02
5.492000000000000171e+01,2.709790911071564834e-02
5.496000000000000085e+01,2.960322720433439248e-02
5.500000000000000000e+01,2.518322130859007579e-02
5.503999999999999915e+01,1.720686926433964356e-02
5.507999999999999829e+01,2.420354662115194178e-02
5.511999999999999744e+01,2.408773630155248632e-02
5.515999999999999659e+01,1.985408533877566425e-02
5.520000000000000284e+01,3.583409680053949858e-02
5.524000000000000199e+01,2.654657813296189273e-02
5.528000000000000114e+01,3.260642253534056650e-02
5.532000000000000028e+01,2.612598541205191083e-02
5.535999999999999943e+01,2.413731908217479558e-02
5.539999999999999858e+01,1.915380796551297005e-02
5.543999999999999773e+01,2.671018115065536269e-02
5.547999999999999687e+01,3.482785336593535036e-02
5.552000000000000313e+01,2.535178101391496325e-02
5.556000000000000227e+01,3.028724871857392184e-02
5.560000000000000142e+01,2.530275455670250029e-02
5.564000000000000057e+01,2.293838115590936255e-02
5.567999999999999972e+01,2.057381343509114696e-02
5.571999999999999886e+01,2.663149513800860957e-02
5.575999999999999801e+01,2.239488645578997100e-02
5.579999999999999716e+01,2.152706243891147272e-02
5.584000000000000341e+01,2.140770800626965939e-02
5.588000000000000256e+01,2.578013180634386101e-02
5.592000000000000171e+01,2.809354527799419118e-02
5.596000000000000085e+01,3.508590353068027218e-02
5.600000000000000000e+01,3.234547104318915428e-02
5.603999999999999915e+01,3.072784180882816643e-02
5.607999999999999829e+01,2.967152018841776387e-02
5.611999999999999744e+01,2.730485271609949666e-02
5.615999999999999659e+01,3.036579450133292460e-02
5.620000000000000284e+01,2.762442188769666934e-02
5.624000000000000199e+01,2.544435917702770125e-02
5.628000000000000114e+01,3.206088470927568462e-02
5.632000000000000028e+01,3.044194730987015082e-02
5.635999999999999943e+01,2.826132910732699621e-02
5.639999999999999858e+01,3.656178949876468659e-02
5.643999999999999773e+01,3.681395407912266271e-02
5.647999999999999687e+01,3.369695851593672298e-02
5.652000000000000313e+01,2.515198393953704814e-02
5.656000000000000227e+01,2.259612055466479405e-02
5.660000000000000142e+01,4.249992446896510429e-02
5.664000000000000057e+01,2.665495566939013114e-02
5.667999999999999972e+01,3.476697854398617948e-02
5.671999999999999886e+01,3.370771719041426584e-02
5.675999999999999801e+01,3.096378833337909073e-02
5.679999999999999716e+01,2.279188446890956232e-02
5.684000000000000341e+01,3.071602760755485703e-02
5.688000000000000256e+01,3.321219688327427949e-02
5.692000000000000171e+01,3.552102417503720522e-02
5.696000000000000085e+01,3.464786359411770739e-02
5.700000000000000000e+01,4.200980534525692450e-02
5.703999999999999915e+01,3.327534750524509255e-02
5.707999999999999829e+01,2.996851208463137406e-02
5.711999999999999744e+01,3.620693853951773705e-02
5.715999999999999659e+01,2.597463631239320392e-02
5.720000000000000284e+01,3.558169431489641849e-02
5.724000000000000199e+01,3.882495658570508934e-02
5.728000000000000114e+01,3.813757394661990152e-02
5.732000000000000028e+01,3.333238156608366726e-02
5.735999999999999943e+01,4.013127393649652819e-02
5.739999999999999858e+01,3.607440317276144198e-02
5.743999999999999773e+01,3.126870165294057952e-02
5.747999999999999687e+01,3.694409417796383488e-02
5.752000000000000313e+01,2.745892099794274704e-02
5.756000000000000227e+01,3.687728617878081178e-02
5.760000000000000142e+01,3.169658301051661575e-02
5.764000000000000057e+01,3.063335244653049225e-02
5.767999999999999972e+01,3.462342207813290385e-02
5.771999999999999886e+01,2.008395159735912663e-02
5.775999999999999801e+01,4.016991625886141143e-02
5.779999999999999716e+01,2.956059070476403650e-02
5.784000000000000341e+01,3.504732646013630076e-02
5.788000000000000256e+01,3.417027563988114108e-02
5.792000000000000171e+01,4.003101708304104139e-02
5.796000000000000085e+01,3.952797309508184614e-02
5.800000000000000000e+01,3.490712909399294045e-02
5.803999999999999915e+01,3.197061317017758919e-02
5.807999999999999829e+01,3.783071124071792080e-02
5.811999999999999744e+01,4.537513853304018380e-02
5.815999999999999659e+01,3.644885144970628349e-02
5.820000000000000284e+01,3.407319523175550424e-02
5.824000000000000199e+01,2.739257703038886285e-02
5.828000000000000114e+01,3.568503401042042583e-02
5.832000000000000028e+01,3.256024480671670246e-02
5.835999999999999943e+01,4.347270490986323427e-02
5.839999999999999858e+01,3.098933412986213526e-02
5.843999999999999773e+01,3.684801808887869234e-02
5.847999999999999687e+01,3.784024728657085779e-02
5.852000000000000313e+01,3.583767633330531971e-02
5.856000000000000227e+01,3.570660630042910011e-02
5.860000000000000142e+01,3.445239129921631033e-02
5.864000000000000057e+01,4.966857986017944593e-02
5.867999999999999972e+01,4.448358800475447905e-02
5.871999999999999886e+01,3.218615997579515192e-02
5.875999999999999801e+01,3.991527989818831335e-02
5.879999999999999716e+01,4.502393448302571821e-02
5.884000000000000341e+01,4.039983895773362199e-02
5.888000000000000256e+01,3.933173756516575997e-02
5.892000000000000171e+01,3.957364603184113788e-02
5.896000000000000085e+01,3.756942225760002974e-02
5.900000000000000000e+01,4.660781048529614307e-02
5.903999999999999915e+01,3.487069263926934060e-02
5.907999999999999829e+01,4.578044297598627549e-02
5.911999999999999744e+01,3.160988409582977943e-02
5.915999999999999659e+01,3.802737510100148016e-02
5.920000000000000284e+01,4.388322593308317116e-02
5.924000000000000199e+01,3.027373137939182168e-02
5.928000000000000114e+01,5.091536290601321457e-02
5.932000000000000028e+01,4.067456055888304944e-02
5.935999999999999943e+01,3.904322511443145127e-02
5.939999999999999858e+01,4.283954528012116209e-02
5.943999999999999773e+01,4.532556709100098169e-02
5.947999999999999687e+01,4.593979490789133063e-02
5.952000000000000313e+01,4.187474824587755773e-02
5.956000000000000227e+01,3.724806656106145752e-02
5.960000000000000142e+01,4.104368980863785238e-02
5.964000000000000057e+01,4.165736352456272940e-02
5.967999999999999972e+01,3.590727641629882366e-02
5.971999999999999886e+01,4.157414241817008332e-02
5.975999999999999801e+01,4.181307575941729110e-02
5.979999999999999716e+01,4.167754291519869952e-02
5.984000000000000341e+01,4.210337147682473302e-02
5.988000000000000256e+01,3.298363021074161849e-02
5.992000000000000171e+01,4.258029566470376837e-02
5.996000000000000085e+01,4.281855783927630138e-02
