2.003999999999999915e+01,5.238065918253250602e-02
2.007999999999999829e+01,5.715529722782404509e-02
2.012000000000000099e+01,5.132278401773378296e-02
2.016000000000000014e+01,3.858298636136994753e-02
2.019999999999999929e+01,4.779485959036863796e-02
2.023999999999999844e+01,4.541295319125015356e-02
2.028000000000000114e+01,3.859034220169821339e-02
2.032000000000000028e+01,3.719333669614161009e-02
2.035999999999999943e+01,3.406886333670339911e-02
2.039999999999999858e+01,2.132387559366780150e-02
2.044000000000000128e+01,6.382935746818789446e-02
2.048000000000000043e+01,3.480323627502578815e-02
2.051999999999999957e+01,3.833507518282051191e-02
2.055999999999999872e+01,5.123904836384260419e-02
2.060000000000000142e+01,4.292959807196947142e-02
2.064000000000000057e+01,4.473225694497050264e-02
2.067999999999999972e+01,1.668847347342480164e-02
2.071999999999999886e+01,3.402885634423664929e-02
2.076000000000000156e+01,4.174873248058455499e-02
2.080000000000000071e+01,4.305465323034288888e-02
2.083999999999999986e+01,5.743258016185184833e-02
2.087999999999999901e+01,5.553024418205373264e-02
2.092000000000000171e+01,3.734764614085274437e-02
2.096000000000000085e+01,3.470363413724468493e-02
2.100000000000000000e+01,1.972588546185083738e-02
2.103999999999999915e+01,3.409955743819171464e-02
2.107999999999999829e+01,3.194631302213157137e-02
2.112000000000000099e+01,5.741788684332205239e-02
2.116000000000000014e+01,5.575626355555484553e-02
2.119999999999999929e+01,5.409379437617638925e-02
2.123999999999999844e+01,3.960427816320855748e-02
2.128000000000000114e+01,4.213330117074219616e-02
2.132000000000000028e+01,2.714878196284461684e-02
2.135999999999999943e+01,5.335526127534141044e-02
2.139999999999999858e+01,2.998269509250926085e-02
2.144000000000000128e+01,3.990808175025925553e-02
2.148000000000000043e+01,3.108664093912752099e-02
2.151999999999999957e+01,6.838935666026768612e-02
2.155999999999999872e+01,5.068656021220521030e-02
2.160000000000000142e+01,4.309589332670671347e-02
2.164000000000000057e+01,2.539142294340046915e-02
2.167999999999999972e+01,3.358517858170547571e-02
2.171999999999999886e+01,4.917783129554154087e-02
2.176000000000000156e+01,5.736991809802537146e-02
2.180000000000000071e+01,4.015542550430304530e-02
2.183999999999999986e+01,6.980506943392189578e-02
2.187999999999999901e+01,5.184893991196171115e-02
2.192000000000000171e+01,4.178502717627736313e-02
2.196000000000000085e+01,5.737268868091720264e-02
2.200000000000000000e+01,1.696821644284323208e-02
2.203999999999999915e+01,5.426010130426872635e-02
2.207999999999999829e+01,3.629982731462710194e-02
2.212000000000000099e+01,4.300450004247224900e-02
2.216000000000000014e+01,5.069497819884864059e-02
2.219999999999999929e+01,3.470548957234805693e-02
2.223999999999999844e+01,3.968108425384863497e-02
2.228000000000000114e+01,3.602283541968013397e-02
2.232000000000000028e+01,5.505627570761206790e-02
2.235999999999999943e+01,4.153007431020995510e-02
2.239999999999999858e+01,2.800305251830897957e-02
2.244000000000000128e+01,5.246050169623297371e-02
2.248000000000000043e+01,4.411165400792112917e-02
2.251999999999999957e+01,4.217508947076260839e-02
2.255999999999999872e+01,4.048436566933327069e-02
2.260000000000000142e+01,2.843320103717300248e-02
2.264000000000000057e+01,3.932039005695638079e-02
2.267999999999999972e+01,3.812053583152406888e-02
2.271999999999999886e+01,4.999272773331811526e-02
2.276000000000000156e+01,3.793830702027479324e-02
2.280000000000000071e+01,4.931555882001614072e-02
2.283999999999999986e+01,4.737248212109140127e-02
2.287999999999999901e+01,3.013581592849963117e-02
2.292000000000000171e+01,3.855074437392173869e-02
2.296000000000000085e+01,2.945216544996608760e-02
2.300000000000000000e+01,3.589221590869393769e-02
2.303999999999999915e+01,3.764496268973389209e-02
2.307999999999999829e+01,4.679663544303202388e-02
2.312000000000000099e+01,3.547491145921004979e-02
2.316000000000000014e+01,5.498459955569975910e-02
2.319999999999999929e+01,2.688854224743399829e-02
2.323999999999999844e+01,4.121681205810412418e-02
2.328000000000000114e+01,2.421874838429179805e-02
2.332000000000000028e+01,4.767175168431805887e-02
2.335999999999999943e+01,3.807181908537754511e-02
2.339999999999999858e+01,3.759742337221694958e-02
2.344000000000000128e+01,3.761554482328122867e-02
2.348000000000000043e+01,5.736548727629704747e-02
2.351999999999999957e+01,3.320955708298386350e-02
2.355999999999999872e+01,5.665777315071202080e-02
2.360000000000000142e+01,5.691936764342058613e-02
2.364000000000000057e+01,2.733458268445912442e-02
2.367999999999999972e+01,5.892012171997157433e-02
2.371999999999999886e+01,3.648682540353604536e-02
2.376000000000000156e+01,2.835888596488976912e-02
2.380000000000000071e+01,4.736250624581851004e-02
2.383999999999999986e+01,4.268619458992384957e-02
2.387999999999999901e+01,3.578917441045070813e-02
2.392000000000000171e+01,4.245754131654238400e-02
2.396000000000000085e+01,3.629891898249913706e-02
2.400000000000000000e+01,3.630595351543464133e-02
2.403999999999999915e+01,4.716514264690193498e-02
2.407999999999999829e+01,4.125082139813548987e-02
2.412000000000000099e+01,3.632234722318376796e-02
2.416000000000000014e+01,9.440552024930172134e-03
2.419999999999999929e+01,4.002922591070263297e-02
2.423999999999999844e+01,3.509840528925936565e-02
2.428000000000000114e+01,3.978645571270479631e-02
2.432000000000000028e+01,3.066089362269638560e-02
2.435999999999999943e+01,1.240821675078726365e-02
2.439999999999999858e+01,5.162601321242268892e-02
2.444000000000000128e+01,4.545801019183650510e-02
2.448000000000000043e+01,3.756262685745426905e-02
2.451999999999999957e+01,3.163973001837642324e-02
2.455999999999999872e+01,4.742193897355615612e-02
2.460000000000000142e+01,4.593733313602469531e-02
2.464000000000000057e+01,2.792588654752506741e-02
2.467999999999999972e+01,4.419909256426333977e-02
2.471999999999999886e+01,4.098556676248334835e-02
2.476000000000000156e+01,4.640429128198454017e-02
2.480000000000000071e+01,6.810165662167703970e-02
2.483999999999999986e+01,4.860641239860853668e-02
2.487999999999999901e+01,3.379689735672219281e-02
2.492000000000000171e+01,6.683821520321772680e-02
2.496000000000000085e+01,5.572703326930581597e-02
2.500000000000000000e+01,4.412177072341213341e-02
2.503999999999999915e+01,3.818887168076825350e-02
2.507999999999999829e+01,2.066229584835975464e-02
2.512000000000000099e+01,3.544712012522518302e-02
2.516000000000000014e+01,4.332476619378278215e-02
2.519999999999999929e+01,4.010205348351313093e-02
2.523999999999999844e+01,1.122617673814613366e-02
2.528000000000000114e+01,3.044779826090765126e-02
2.532000000000000028e+01,2.919606979125478896e-02
2.535999999999999943e+01,6.222900837520327355e-02
2.539999999999999858e+01,5.283606064197735735e-02
2.544000000000000128e+01,4.837551171919939746e-02
2.548000000000000043e+01,4.539415422818945944e-02
2.551999999999999957e+01,2.193945099428374138e-02
2.555999999999999872e+01,3.326273452472448822e-02
2.560000000000000142e+01,2.855251316311304896e-02
2.564000000000000057e+01,2.384154024920582052e-02
2.567999999999999972e+01,3.072272997172322342e-02
2.571999999999999886e+01,1.096413493553576729e-02
2.576000000000000156e+01,4.201628340306576975e-02
2.580000000000000071e+01,4.272878285250165248e-02
2.583999999999999986e+01,3.382088350524916492e-02
2.587999999999999901e+01,4.883803757459552475e-02
2.592000000000000171e+01,3.252891425310646539e-02
2.596000000000000085e+01,2.805861724798127538e-02
2.600000000000000000e+01,4.011364429077286103e-02
2.603999999999999915e+01,3.860175309658479131e-02
2.607999999999999829e+01,4.054232792762572229e-02
2.612000000000000099e+01,4.815528920931753942e-02
2.616000000000000014e+01,1.284906486077986437e-02
2.619999999999999929e+01,1.429410271995338461e-02
2.623999999999999844e+01,2.313813369378083309e-02
2.628000000000000114e+01,3.666792359542154350e-02
2.632000000000000028e+01,5.044363412374322508e-02
2.635999999999999943e+01,3.905951987549870219e-02
2.639999999999999858e+01,2.224820014964083020e-02
2.644000000000000128e+01,3.034857666148698188e-02
2.648000000000000043e+01,3.844821946901606780e-02
2.651999999999999957e+01,5.814004276094818235e-02
2.655999999999999872e+01,3.047284977065206277e-02
2.660000000000000142e+01,2.031762449928154954e-02
2.664000000000000057e+01,2.101460907018587454e-02
2.667999999999999972e+01,3.059054248836386505e-02
2.671999999999999886e+01,3.547925041999810958e-02
2.676000000000000156e+01,2.729437087414620863e-02
2.680000000000000071e+01,3.144165095386274728e-02
2.683999999999999986e+01,4.915438016211749056e-02
2.687999999999999901e+01,2.814112045883292168e-02
2.692000000000000171e+01,2.488649300431705971e-02
2.696000000000000085e+01,2.459103481168617086e-02
2.700000000000000000e+01,3.958763326150006173e-02
2.703999999999999915e+01,4.545717387296393380e-02
2.707999999999999829e+01,4.318628841843380473e-02
2.712000000000000099e+01,4.017470966620702300e-02
2.716000000000000014e+01,4.012230442538436415e-02
2.719999999999999929e+01,3.044952928460001318e-02
2.723999999999999844e+01,1.978940566521742925e-02
2.728000000000000114e+01,4.218070124175012786e-02
2.732000000000000028e+01,4.977181712515731105e-02
2.735999999999999943e+01,3.590832728469942753e-03
2.739999999999999858e+01,3.041982243673425901e-02
2.744000000000000128e+01,3.800879585054824095e-02
2.748000000000000043e+01,3.548408985250070535e-02
2.751999999999999957e+01,3.567190728437753811e-02
2.755999999999999872e+01,4.177879949405310933e-02
2.760000000000000142e+01,3.530543753544744534e-02
2.764000000000000057e+01,3.031131290341176551e-02
2.767999999999999972e+01,2.580979552539737140e-02
2.771999999999999886e+01,3.684700781870839381e-02
2.776000000000000156e+01,3.481065388212672973e-02
2.780000000000000071e+01,3.992666847583183770e-02
2.783999999999999986e+01,2.826925258025489093e-02
2.787999999999999901e+01,4.152356351891672848e-02
2.792000000000000171e+01,3.800444566810413927e-02
2.796000000000000085e+01,6.087700273501651244e-02
2.800000000000000000e+01,3.713054730807456572e-02
2.803999999999999915e+01,1.215010266999598174e-02
2.807999999999999829e+01,4.710678686273743476e-02
2.812000000000000099e+01,3.865101160930653479e-02
2.816000000000000014e+01,3.945105937276515568e-02
2.819999999999999929e+01,5.131966811050368837e-02
2.823999999999999844e+01,3.592552233406121065e-02
2.828000000000000114e+01,4.410599898721018902e-02
2.832000000000000028e+01,3.443693890516963396e-02
2.835999999999999943e+01,4.482510195842844686e-02
2.839999999999999858e+01,3.790371464047094519e-02
2.844000000000000128e+01,3.434707845091809764e-02
2.848000000000000043e+01,5.126133531598860843e-02
2.851999999999999957e+01,4.123657413444635489e-02
2.855999999999999872e+01,3.578460673583164914e-02
2.860000000000000142e+01,3.273310287594477508e-02
2.864000000000000057e+01,3.678690013523963631e-02
2.867999999999999972e+01,4.675937875871798155e-02
2.871999999999999886e+01,4.023453762737912859e-02
2.876000000000000156e+01,3.489978355677639948e-02
2.880000000000000071e+01,4.885506815649072465e-02
2.883999999999999986e+01,3.533952170451744312e-02
2.887999999999999901e+01,4.034504099189129001e-02
2.892000000000000171e+01,4.305367067247015817e-02
2.896000000000000085e+01,4.008244147430672227e-02
2.900000000000000000e+01,4.172000397233987384e-02
2.903999999999999915e+01,2.882193729551451797e-02
2.907999999999999829e+01,2.545818813394388688e-02
2.912000000000000099e+01,4.276779799796839865e-02
2.916000000000000014e+01,3.461594464956029016e-02
2.919999999999999929e+01,4.497204197847390339e-02
2.923999999999999844e+01,3.567841985825043194e-02
2.928000000000000114e+01,3.250962447851734466e-02
2.932000000000000028e+01,3.992487771301361787e-02
2.935999999999999943e+01,3.845632786541931109e-02
2.939999999999999858e+01,4.053330434551356831e-02
2.944000000000000128e+01,4.864278651901389472e-02
2.948000000000000043e+01,3.665692200710741339e-02
2.951999999999999957e+01,3.929740739799654492e-02
2.955999999999999872e+01,4.606017622854818860e-02
2.960000000000000142e+01,3.844133659494374661e-02
2.964000000000000057e+01,3.540292814439327529e-02
2.967999999999999972e+01,4.169414009246116132e-02
2.971999999999999886e+01,4.366965355078304689e-02
2.976000000000000156e+01,4.261360630873197580e-02
2.980000000000000071e+01,3.560919285498246462e-02
2.983999999999999986e+01,4.118366135009905726e-02
2.987999999999999901e+01,4.133099830922810913e-02
2.992000000000000171e+01,3.876443961901750168e-02
2.996000000000000085e+01,2.090444186810191257e-02
3.000000000000000000e+01,4.324899529433676865e-02
3.003999999999999915e+01,3.278741248614289172e-02
3.007999999999999829e+01,3.712463630175562995e-02
3.012000000000000099e+01,1.827537707665867830e-02
3.016000000000000014e+01,2.211797355479573624e-02
3.019999999999999929e+01,3.360630501867026276e-02
3.023999999999999844e+01,2.684131060380868725e-02
3.028000000000000114e+01,1.415587769077077118e-02
3.032000000000000028e+01,2.588890799487344671e-02
3.035999999999999943e+01,1.246219851278402603e-02
3.039999999999999858e+01,2.419392713948211038e-02
3.044000000000000128e+01,2.581203924719571371e-02
3.048000000000000043e+01,2.076974391441225795e-02
3.051999999999999957e+01,2.879966044008469561e-02
3.055999999999999872e+01,3.411569491487753680e-02
3.060000000000000142e+01,6.132289592667682261e-03
3.064000000000000057e+01,2.155999954403857097e-02
3.067999999999999972e+01,2.983399084320487171e-02
3.071999999999999886e+01,2.281455922983738685e-02
3.076000000000000156e+01,2.270090130902041592e-02
3.080000000000000071e+01,1.420023863264448238e-02
3.083999999999999986e+01,4.047767490790880884e-02
3.087999999999999901e+01,1.470968980889984096e-02
3.092000000000000171e+01,2.593972493685669373e-02
3.096000000000000085e+01,3.741577928032868011e-02
3.100000000000000000e+01,1.633237551767482629e-02
3.103999999999999915e+01,2.706718218882258817e-02
3.107999999999999829e+01,4.002127247010155153e-02
3.112000000000000099e+01,1.301617527657255094e-02
3.116000000000000014e+01,4.348169505032047771e-02
3.119999999999999929e+01,2.782158578373983629e-02
3.123999999999999844e+01,9.694266645256192222e-03
3.128000000000000114e+01,3.053823722777707778e-02
3.132000000000000028e+01,5.256581319680636750e-03
3.135999999999999943e+01,2.683926421201579884e-02
3.139999999999999858e+01,3.830835098305639813e-02
3.144000000000000128e+01,2.930421779695503715e-02
3.148000000000000043e+01,8.706543805687768853e-03
3.151999999999999957e+01,4.656612535328372160e-02
3.155999999999999872e+01,2.695382990148135691e-02
3.160000000000000142e+01,1.622058783511306362e-02
3.164000000000000057e+01,2.398605149799422701e-02
3.167999999999999972e+01,2.533779094810352864e-02
3.171999999999999886e+01,3.655521725581072079e-02
3.176000000000000156e+01,1.817309437292052160e-02
3.180000000000000071e+01,2.445612388422275033e-02
3.183999999999999986e+01,2.876527173340418658e-02
3.187999999999999901e+01,1.852099450909978559e-02
3.192000000000000171e+01,2.631652452763760808e-02
3.196000000000000085e+01,3.354647092140225495e-02
3.200000000000000000e+01,3.903369420643823529e-02
3.203999999999999915e+01,3.863312548311507999e-02
3.207999999999999829e+01,3.816324975375263995e-02
3.211999999999999744e+01,3.590118243500159401e-02
3.215999999999999659e+01,2.012044303015993185e-02
3.220000000000000284e+01,3.136976128134244535e-02
3.224000000000000199e+01,1.900278855265864070e-02
3.228000000000000114e+01,2.121608620819201430e-02
3.232000000000000028e+01,2.860176085838768423e-02
3.235999999999999943e+01,3.306279994272451339e-02
3.239999999999999858e+01,2.668768038129188530e-02
3.243999999999999773e+01,2.242265864385174778e-02
3.247999999999999687e+01,3.124805210153710003e-02
3.252000000000000313e+01,2.898373898677097590e-02
3.256000000000000227e+01,2.719837203594689320e-02
3.260000000000000142e+01,1.674621767297229669e-02
3.264000000000000057e+01,2.583029350205997762e-02
3.267999999999999972e+01,2.077214583680956836e-02
3.271999999999999886e+01,1.658989163374615175e-02
3.275999999999999801e+01,2.354384578666084832e-02
3.279999999999999716e+01,3.573760577670223593e-02
3.284000000000000341e+01,2.966576361363193470e-02
3.288000000000000256e+01,2.540787216741041341e-02
3.292000000000000171e+01,2.550915493553983920e-02
3.296000000000000085e+01,2.492372902089576986e-02
3.300000000000000000e+01,2.736925917346173104e-02
3.303999999999999915e+01,2.372422175879031203e-02
3.307999999999999829e+01,1.935752075242592671e-02
3.311999999999999744e+01,2.177642560487021151e-02
3.315999999999999659e+01,2.863492041416478354e-02
3.320000000000000284e+01,2.782941261895489210e-02
3.324000000000000199e+01,1.930867840748423311e-02
3.328000000000000114e+01,2.452579778230242619e-02
3.332000000000000028e+01,2.843867860543792050e-02
3.335999999999999943e+01,2.082273649970861618e-02
3.339999999999999858e+01,3.413146005911407710e-02
3.343999999999999773e+01,2.030474190612244212e-02
3.347999999999999687e+01,2.318866305190650512e-02
3.352000000000000313e+01,3.439911571075408153e-02
3.356000000000000227e+01,2.295035778206871643e-02
3.360000000000000142e+01,1.708852924414160090e-02
3.364000000000000057e+01,2.074581813822112819e-02
3.367999999999999972e+01,2.132034755618461910e-02
3.371999999999999886e+01,3.014572858241426276e-02
3.375999999999999801e+01,1.931326500591954223e-02
3.379999999999999716e+01,2.655297571097256504e-02
3.384000000000000341e+01,0.000000000000000000e+00
3.388000000000000256e+01,1.537826202113242759e-02
3.392000000000000171e+01,1.200996089344694151e-02
3.396000000000000085e+01,3.954588111794711709e-03
3.400000000000000000e+01,9.958132052676611085e-03
3.403999999999999915e+01,3.396711725580617292e-02
3.407999999999999829e+01,2.097687064436195778e-02
3.411999999999999744e+01,2.673204018681226216e-02
3.415999999999999659e+01,2.015375267580802460e-02
3.420000000000000284e+01,2.911433252053522575e-02
3.424000000000000199e+01,2.228824878303177145e-02
3.428000000000000114e+01,4.111400105620507256e-02
3.432000000000000028e+01,2.787368122648937671e-02
3.435999999999999943e+01,3.954522591541859144e-02
3.439999999999999858e+01,2.975698261763036132e-02
3.443999999999999773e+01,4.537392099952080454e-02
3.447999999999999687e+01,3.706449578837005265e-02
3.452000000000000313e+01,4.330731380972821509e-02
3.456000000000000227e+01,3.179021320318073385e-02
3.460000000000000142e+01,1.829928957787084129e-02
3.464000000000000057e+01,1.960726946539414692e-02
3.467999999999999972e+01,1.746148165028386240e-02
3.471999999999999886e+01,1.457516201918786398e-02
3.475999999999999801e+01,4.326047413232834982e-02
3.479999999999999716e+01,3.593320065161490634e-02
3.484000000000000341e+01,2.959200201891888996e-02
3.488000000000000256e+01,3.878968519031803647e-02
3.492000000000000171e+01,3.491395426459429491e-02
3.496000000000000085e+01,3.177764300598607400e-02
3.500000000000000000e+01,5.256657894203019266e-02
3.503999999999999915e+01,3.240977977138040367e-02
3.507999999999999829e+01,3.025844396047565679e-02
3.511999999999999744e+01,4.487928370615400925e-02
3.515999999999999659e+01,5.333313091129934791e-02
3.520000000000000284e+01,4.575367720129062954e-02
3.524000000000000199e+01,3.373383676484812549e-02
3.528000000000000114e+01,3.404633613356765343e-02
3.532000000000000028e+01,4.200467927570370602e-02
3.535999999999999943e+01,4.206943001253351383e-02
3.539999999999999858e+01,5.298657672055787776e-02
3.543999999999999773e+01,3.183767512299799651e-02
3.547999999999999687e+01,4.448034014346000098e-02
3.552000000000000313e+01,3.738984508880128371e-02
3.556000000000000227e+01,6.655749565810305246e-02
3.560000000000000142e+01,4.096659010502880227e-02
3.564000000000000057e+01,3.905428761445359914e-02
3.567999999999999972e+01,4.355454789336297983e-02
3.571999999999999886e+01,5.422071406104755908e-02
3.575999999999999801e+01,5.526669220817156253e-02
3.579999999999999716e+01,5.828539652345532396e-02
3.584000000000000341e+01,6.722335154661232548e-02
3.588000000000000256e+01,3.842213980902463299e-02
3.592000000000000171e+01,6.166517610377068165e-02
3.596000000000000085e+01,5.678869883149113840e-02
3.600000000000000000e+01,4.993842828708001252e-02
3.603999999999999915e+01,6.257358788378238057e-02
3.607999999999999829e+01,5.103576015298023211e-02
3.611999999999999744e+01,7.698937859785662252e-02
3.615999999999999659e+01,7.950998460687527802e-02
3.620000000000000284e+01,8.498995620554351815e-02
3.624000000000000199e+01,7.172341394981072982e-02
3.628000000000000114e+01,6.733602451824982627e-02
3.632000000000000028e+01,8.268072890774175177e-02
3.635999999999999943e+01,7.779897560886517294e-02
3.639999999999999858e+01,7.932980037774048365e-02
3.643999999999999773e+01,7.469365980300254892e-02
3.647999999999999687e+01,9.792932155916519998e-02
3.652000000000000313e+01,8.959227341837099068e-02
3.656000000000000227e+01,1.022206128511175954e-01
3.660000000000000142e+01,9.042931827449512960e-02
3.664000000000000057e+01,8.159739863646345293e-02
3.667999999999999972e+01,1.206165617585135685e-01
3.671999999999999886e+01,1.263364151188337559e-01
3.675999999999999801e+01,1.165163161714720397e-01
3.679999999999999716e+01,1.081756491786373536e-01
3.684000000000000341e+01,1.193204293249909148e-01
3.688000000000000256e+01,1.516772615747284669e-01
3.692000000000000171e+01,1.497481573898022389e-01
3.696000000000000085e+01,1.638512946651918545e-01
3.700000000000000000e+01,1.456417590506301485e-01
3.703999999999999915e+01,1.575239572411394617e-01
3.707999999999999829e+01,1.666924119150790806e-01
3.711999999999999744e+01,2.015127629428610234e-01
3.715999999999999659e+01,2.022938403660147766e-01
3.720000000000000284e+01,2.080075664713167682e-01
3.724000000000000199e+01,2.176673111862179044e-01
3.728000000000000114e+01,2.283131825932648018e-01
3.732000000000000028e+01,2.599244577220235497e-01
3.735999999999999943e+01,2.885753375529256370e-01
3.739999999999999858e+01,2.799803983806514740e-01
3.743999999999999773e+01,3.009838860512595859e-01
3.747999999999999687e+01,3.222335314716927024e-01
3.752000000000000313e+01,3.163503273937984805e-01
3.756000000000000227e+01,3.607848020799996891e-01
3.760000000000000142e+01,4.069453834494158873e-01
3.764000000000000057e+01,3.985941097721600324e-01
3.767999999999999972e+01,4.477135915964911561e-01
3.771999999999999886e+01,4.719201477475317708e-01
3.775999999999999801e+01,4.860132429119727315e-01
3.779999999999999716e+01,5.166319128459344601e-01
3.784000000000000341e+01,5.487300368319204535e-01
3.788000000000000256e+01,6.062334155893067678e-01
3.792000000000000171e+01,6.523900481066426948e-01
3.796000000000000085e+01,6.864599620419929993e-01
3.800000000000000000e+01,7.506216301801040824e-01
3.803999999999999915e+01,7.674245259583606371e-01
3.807999999999999829e+01,8.034662374922086903e-01
3.811999999999999744e+01,8.227347369620363615e-01
3.815999999999999659e+01,8.982407134792307346e-01
3.820000000000000284e+01,9.513003518281103466e-01
3.824000000000000199e+01,9.481215437645821309e-01
3.828000000000000114e+01,9.528353000979606913e-01
3.832000000000000028e+01,9.499021846495230292e-01
3.835999999999999943e+01,1.000000000000000000e+00
3.839999999999999858e+01,9.948460032601362801e-01
3.843999999999999773e+01,9.822917950187810554e-01
3.847999999999999687e+01,9.389048917175916165e-01
3.852000000000000313e+01,9.631017287211054434e-01
3.856000000000000227e+01,9.229204210012086351e-01
3.860000000000000142e+01,8.943315504366451396e-01
3.864000000000000057e+01,8.519293716241672643e-01
3.867999999999999972e+01,8.615714994873816535e-01
3.871999999999999886e+01,8.107820097166098527e-01
3.875999999999999801e+01,7.910709212192227335e-01
3.879999999999999716e+01,7.580398433347625975e-01
3.884000000000000341e+01,6.855430574681430356e-01
3.888000000000000256e+01,7.075157121921901160e-01
3.892000000000000171e+01,6.362512753602256321e-01
3.896000000000000085e+01,6.315839572594528217e-01
3.900000000000000000e+01,6.074302107557983943e-01
3.903999999999999915e+01,5.850026015318932071e-01
3.907999999999999829e+01,5.610945799396711564e-01
3.911999999999999744e+01,5.186867634167305896e-01
3.915999999999999659e+01,4.762784826089591084e-01
3.920000000000000284e+01,5.017006142848676742e-01
3.924000000000000199e+01,4.726109249102539711e-01
3.928000000000000114e+01,4.309412295392515135e-01
3.932000000000000028e+01,4.324361761403286430e-01
3.935999999999999943e+01,3.826258547385652520e-01
3.939999999999999858e+01,3.752402038168495824e-01
3.943999999999999773e+01,3.843801625107080566e-01
3.947999999999999687e+01,3.469013526330861907e-01
3.952000000000000313e+01,3.560403972056463973e-01
3.956000000000000227e+01,3.037612110697469614e-01
3.960000000000000142e+01,3.062395861940697683e-01
3.964000000000000057e+01,3.087175072324065406e-01
3.967999999999999972e+01,2.894890947407067205e-01
3.971999999999999886e+01,2.885129019281991170e-01
3.975999999999999801e+01,2.776699483548919489e-01
3.979999999999999716e+01,2.687998059401187634e-01
3.984000000000000341e+01,2.621491332643963168e-01
3.988000000000000256e+01,2.493315683367823277e-01
3.992000000000000171e+01,2.542729118766530183e-01
3.996000000000000085e+01,2.634069895501905956e-01
4.000000000000000000e+01,2.412150889990100355e-01
4.003999999999999915e+01,2.451684623058711932e-01
4.007999999999999829e+01,2.288954569654119420e-01
4.011999999999999744e+01,2.293947334195035326e-01
4.015999999999999659e+01,2.192872844199938165e-01
4.020000000000000284e+01,2.086860777719241056e-01
4.024000000000000199e+01,1.790917845292145649e-01
4.028000000000000114e+01,1.904422340807563896e-01
4.032000000000000028e+01,1.971057471130265026e-01
4.035999999999999943e+01,1.946424853248927000e-01
4.039999999999999858e+01,1.879856041785209764e-01
4.043999999999999773e+01,1.894679910544709300e-01
4.047999999999999687e+01,1.899633107699610357e-01
4.052000000000000313e+01,1.897182219055080499e-01
4.056000000000000227e+01,1.845395438905927943e-01
4.060000000000000142e+01,1.798537476486076203e-01
4.064000000000000057e+01,1.751675185682299296e-01
4.067999999999999972e+01,1.458150844380517452e-01
4.071999999999999886e+01,1.793599404756336668e-01
4.075999999999999801e+01,1.788655993999240801e-01
4.079999999999999716e+01,1.791108020772762821e-01
4.084000000000000341e+01,1.559230917575086806e-01
4.088000000000000256e+01,1.551808071845647008e-01
4.092000000000000171e+01,1.554247266450069775e-01
4.096000000000000085e+01,1.571481664499653763e-01
4.100000000000000000e+01,1.675042016371241782e-01
4.103999999999999915e+01,1.554139589991342107e-01
4.107999999999999829e+01,1.398700846431093492e-01
4.111999999999999744e+01,1.457850102108780299e-01
4.115999999999999659e+01,1.465197016461275425e-01
4.120000000000000284e+01,1.386209515701778416e-01
4.124000000000000199e+01,1.440412988575001663e-01
4.128000000000000114e+01,1.326885012231979188e-01
4.132000000000000028e+01,1.371213799581063875e-01
4.135999999999999943e+01,1.548733586059980738e-01
4.139999999999999858e+01,1.474658320411303680e-01
4.143999999999999773e+01,1.316715267950990809e-01
4.147999999999999687e+01,1.316629013178934327e-01
4.152000000000000313e+01,1.175943710552299765e-01
4.156000000000000227e+01,1.343576438285997987e-01
4.160000000000000142e+01,1.239881537938240796e-01
4.164000000000000057e+01,1.419838911887578992e-01
4.167999999999999972e+01,1.274203974018650876e-01
4.171999999999999886e+01,1.412221327444894148e-01
4.175999999999999801e+01,1.271511354867436994e-01
4.179999999999999716e+01,1.313324021031847810e-01
4.184000000000000341e+01,1.451329128722572415e-01
4.188000000000000256e+01,1.382137677784514018e-01
4.192000000000000171e+01,1.453537076881205037e-01
4.196000000000000085e+01,1.270874965530695011e-01
4.200000000000000000e+01,1.352132586519569635e-01
4.203999999999999915e+01,1.176862136753186738e-01
4.207999999999999829e+01,1.285244054773310718e-01
4.211999999999999744e+01,1.211095238220188663e-01
4.215999999999999659e+01,1.336735178043189365e-01
4.220000000000000284e+01,1.316843059882985001e-01
4.224000000000000199e+01,1.272281180239040466e-01
4.228000000000000114e+01,1.304179217161773041e-01
4.232000000000000028e+01,1.242343345027167728e-01
4.235999999999999943e+01,1.333431302947379604e-01
4.239999999999999858e+01,1.422048729135182987e-01
4.243999999999999773e+01,1.387333344089186349e-01
4.247999999999999687e+01,1.404412145043741345e-01
4.252000000000000313e+01,1.359822584415850966e-01
4.256000000000000227e+01,1.413892195603079494e-01
4.260000000000000142e+01,1.356961916083313513e-01
4.264000000000000057e+01,1.386357938846085325e-01
4.267999999999999972e+01,1.410816912063579120e-01
4.271999999999999886e+01,1.378540720806077091e-01
4.275999999999999801e+01,1.504121599206029170e-01
4.279999999999999716e+01,1.370707991026303418e-01
4.284000000000000341e+01,1.520946912114796712e-01
4.288000000000000256e+01,1.525653919703721384e-01
4.292000000000000171e+01,1.695617762864643774e-01
4.296000000000000085e+01,1.557255607319414092e-01
4.300000000000000000e+01,1.598949768181044673e-01
4.303999999999999915e+01,1.598708296396764983e-01
4.307999999999999829e+01,1.598463014669843640e-01
4.311999999999999744e+01,1.534082921539907662e-01
4.315999999999999659e+01,1.773088044119538742e-01
4.320000000000000284e+01,1.550839426007109834e-01
4.324000000000000199e+01,1.752838328602752127e-01
4.328000000000000114e+01,1.621845527423230182e-01
4.332000000000000028e+01,1.774505357500375524e-01
4.335999999999999943e+01,1.801365994515451430e-01
4.339999999999999858e+01,1.867688126478283805e-01
4.343999999999999773e+01,1.778612154703546333e-01
4.347999999999999687e+01,1.817794477895362804e-01
4.352000000000000313e+01,1.985235104552770247e-01
4.356000000000000227e+01,1.975078457214540228e-01
4.360000000000000142e+01,1.922986296216924740e-01
4.364000000000000057e+01,2.018885082631061423e-01
4.367999999999999972e+01,2.075314949690018340e-01
4.371999999999999886e+01,1.931948380994307768e-01
4.375999999999999801e+01,2.032769300146577141e-01
4.379999999999999716e+01,2.044789779318155754e-01
4.384000000000000341e+01,2.175202320723100824e-01
4.388000000000000256e+01,2.347543036370381697e-01
4.392000000000000171e+01,1.969833381287554308e-01
4.396000000000000085e+01,2.265495707814718651e-01
4.400000000000000000e+01,2.420559513427625320e-01
4.403999999999999915e+01,2.395559569727212235e-01
4.407999999999999829e+01,2.400154956233666870e-01
4.411999999999999744e+01,2.417079640303108345e-01
4.415999999999999659e+01,2.362470002026114957e-01
4.420000000000000284e+01,2.362121492514412113e-01
4.424000000000000199e+01,2.388901769899596517e-01
4.428000000000000114e+01,2.455143729211359260e-01
4.432000000000000028e+01,2.378320658295033085e-01
4.435999999999999943e+01,2.503753388508018207e-01
4.439999999999999858e+01,2.572451311205579128e-01
4.443999999999999773e+01,2.611546785254196812e-01
4.447999999999999687e+01,2.591440891479334097e-01
4.452000000000000313e+01,2.430736587277698701e-01
4.456000000000000227e+01,2.422956580577939611e-01
4.460000000000000142e+01,2.427505973429616160e-01
4.464000000000000057e+01,2.533181557352488511e-01
4.467999999999999972e+01,2.485925878314083348e-01
4.471999999999999886e+01,2.426333851262914010e-01
4.475999999999999801e+01,2.388937566983855287e-01
4.479999999999999716e+01,2.403335961649518404e-01
4.484000000000000341e+01,2.126674798206706907e-01
4.488000000000000256e+01,2.212597071279220617e-01
4.492000000000000171e+01,2.059257926670090555e-01
4.496000000000000085e+01,1.977446113450880283e-01
4.500000000000000000e+01,1.833966465589545458e-01
4.503999999999999915e+01,2.045670556321290412e-01
4.507999999999999829e+01,2.018113263367542209e-01
4.511999999999999744e+01,1.894356078982943337e-01
4.515999999999999659e+01,1.805127608891485824e-01
4.520000000000000284e+01,1.666564233183745747e-01
4.524000000000000199e+01,1.601994825665319644e-01
4.528000000000000114e+01,1.673083827488524578e-01
4.532000000000000028e+01,1.583841970416656475e-01
4.535999999999999943e+01,1.622858807766101030e-01
4.539999999999999858e+01,1.513877689749203170e-01
4.543999999999999773e+01,1.609619179641758602e-01
4.547999999999999687e+01,1.382235742430733827e-01
4.552000000000000313e+01,1.317643115923007313e-01
4.556000000000000227e+01,1.334444257515287058e-01
4.560000000000000142e+01,1.230379836603855692e-01
4.564000000000000057e+01,1.210175778096637123e-01
4.567999999999999972e+01,1.182568730165814708e-01
4.571999999999999886e+01,1.103160309800066269e-01
4.575999999999999801e+01,9.694839481922967739e-02
4.579999999999999716e+01,9.566666425768577398e-02
4.584000000000000341e+01,8.229838254519308838e-02
4.588000000000000256e+01,8.446921636032463099e-02
4.592000000000000171e+01,8.836633363864945800e-02
4.596000000000000085e+01,8.782329196474338018e-02
4.600000000000000000e+01,8.925319318445124050e-02
4.603999999999999915e+01,7.933652069456832712e-02
4.607999999999999829e+01,8.520562571244154337e-02
4.611999999999999744e+01,8.910115248382996511e-02
4.615999999999999659e+01,7.745692667491585470e-02
4.620000000000000284e+01,6.531907070300331519e-02
4.624000000000000199e+01,7.069359975275346653e-02
4.628000000000000114e+01,6.768145295969284214e-02
4.632000000000000028e+01,7.132875274112533692e-02
4.635999999999999943e+01,7.916892264082336927e-02
4.639999999999999858e+01,6.554955952492670657e-02
4.643999999999999773e+01,6.105622283936545935e-02
4.647999999999999687e+01,6.223570520545981116e-02
4.652000000000000313e+01,6.982798066495285449e-02
4.656000000000000227e+01,5.596072650846603547e-02
4.660000000000000142e+01,5.541268360235267199e-02
4.664000000000000057e+01,6.300404045364102479e-02
4.667999999999999972e+01,5.160244754479193646e-02
4.671999999999999886e+01,4.464039013395530026e-02
4.675999999999999801e+01,6.259046071192357619e-02
4.679999999999999716e+01,5.464116762229834917e-02
4.684000000000000341e+01,4.767820435181322619e-02
4.688000000000000256e+01,4.145491401975871792e-02
4.692000000000000171e+01,4.608426443117644156e-02
4.696000000000000085e+01,4.208029571753379300e-02
4.700000000000000000e+01,4.202255299000355604e-02
4.703999999999999915e+01,4.393777525358455449e-02
4.707999999999999829e+01,3.179321086832782167e-02
4.711999999999999744e+01,4.283417800671792536e-02
4.715999999999999659e+01,4.573514573079264650e-02
4.720000000000000284e+01,4.345600765781311436e-02
4.724000000000000199e+01,4.142323471117174277e-02
4.728000000000000114e+01,4.925647923468373657e-02
4.732000000000000028e+01,4.894972774349540950e-02
4.735999999999999943e+01,3.556982647524796481e-02
4.739999999999999858e+01,4.833535544733094658e-02
4.743999999999999773e+01,3.766811165641149872e-02
4.747999999999999687e+01,4.895311838520687020e-02
4.752000000000000313e+01,3.532540766712864017e-02
4.756000000000000227e+01,3.625021725017917029e-02
4.760000000000000142e+01,3.964131918421960610e-02
4.764000000000000057e+01,2.724604225378294761e-02
4.767999999999999972e+01,3.754299328441915162e-02
4.771999999999999886e+01,3.822001041571369828e-02
4.775999999999999801e+01,3.618351095473754803e-02
4.779999999999999716e+01,2.798028752281091561e-02
4.784000000000000341e+01,2.594322750049329537e-02
4.788000000000000256e+01,2.587915031726547091e-02
4.792000000000000171e+01,2.186827128831633424e-02
4.796000000000000085e+01,2.131032318194317834e-02
4.800000000000000000e+01,2.963177692153840664e-02
4.803999999999999915e+01,2.364680667937262004e-02
4.807999999999999829e+01,2.777452863604817218e-02
4.811999999999999744e+01,3.905505087411144383e-02
4.815999999999999659e+01,2.369626514946908402e-02
4.820000000000000284e+01,2.412330197748106461e-02
4.824000000000000199e+01,3.244311482843129785e-02
4.828000000000000114e+01,2.867642837256108301e-02
4.832000000000000028e+01,2.934931141085297956e-02
4.835999999999999943e+01,2.311550918500733867e-02
4.839999999999999858e+01,2.773437914907240023e-02
4.843999999999999773e+01,2.791314285493857322e-02
4.847999999999999687e+01,2.537840526680142442e-02
4.852000000000000313e+01,2.876318780602386133e-02
4.856000000000000227e+01,1.364837599181097268e-02
4.860000000000000142e+01,2.517233537626694523e-02
4.864000000000000057e+01,1.869001756832130295e-02
4.867999999999999972e+01,1.146746456079596362e-02
4.871999999999999886e+01,1.904411423222115984e-02
4.875999999999999801e+01,2.070071806099874068e-02
4.879999999999999716e+01,1.693059235825857683e-02
4.884000000000000341e+01,2.647972550050150739e-02
4.888000000000000256e+01,1.629598243547336622e-02
4.892000000000000171e+01,2.017147310707512187e-02
4.896000000000000085e+01,2.207344587535783192e-02
4.900000000000000000e+01,1.435551194121856451e-02
4.903999999999999915e+01,3.796285543633860782e-02
4.907999999999999829e+01,1.569160752871590764e-02
4.911999999999999744e+01,2.696555832567805455e-02
4.915999999999999659e+01,3.527936454638737340e-02
4.920000000000000284e+01,1.177407255901291756e-02
4.924000000000000199e+01,2.551384778513128559e-02
4.928000000000000114e+01,2.272730580098656847e-02
4.932000000000000028e+01,3.054679782392549781e-02
4.935999999999999943e+01,1.912673929966457118e-02
4.939999999999999858e+01,3.360549578030803258e-02
4.943999999999999773e+01,1.725179007474259008e-02
4.947999999999999687e+01,1.298406815955441967e-02
4.952000000000000313e+01,2.252893499893916449e-02
4.956000000000000227e+01,1.110765142635094724e-02
4.960000000000000142e+01,2.632516030002515772e-02
4.964000000000000057e+01,2.156315138398637657e-02
4.967999999999999972e+01,1.581427078534831943e-02
4.971999999999999886e+01,1.549162034995589174e-02
4.975999999999999801e+01,2.454172461752265888e-02
4.979999999999999716e+01,1.903878456847994324e-02
4.984000000000000341e+01,1.994870815484648882e-02
4.988000000000000256e+01,4.207096006331308147e-02
4.992000000000000171e+01,3.706062594361252127e-02
4.996000000000000085e+01,2.415700963347162597e-02
5.000000000000000000e+01,1.643297170528935230e-02
5.003999999999999915e+01,3.066123869066145896e-02
5.007999999999999829e+01,1.011053339847470429e-02
5.011999999999999744e+01,1.891186663804328427e-02
5.015999999999999659e+01,2.277981470404768713e-02
5.020000000000000284e+01,1.875448567903421210e-02
5.024000000000000199e+01,1.127571956394279699e-02
5.028000000000000114e+01,2.426931707814945424e-02
5.032000000000000028e+01,2.098327721020349854e-02
5.035999999999999943e+01,2.041024606721869930e-02
5.039999999999999858e+01,3.068992960933162456e-02
5.043999999999999773e+01,7.670594906698111753e-03
5.047999999999999687e+01,2.066306511150779734e-02
5.052000000000000313e+01,1.466266714693928788e-02
5.056000000000000227e+01,1.359520173236870855e-02
5.060000000000000142e+01,2.461374390548015309e-02
5.064000000000000057e+01,2.379249464670503064e-02
5.067999999999999972e+01,1.754455580188810440e-02
5.071999999999999886e+01,2.116270751894649277e-02
5.075999999999999801e+01,2.330069503958043589e-02
5.079999999999999716e+01,2.173859963817558610e-02
5.084000000000000341e+01,1.228324074421284322e-02
5.088000000000000256e+01,2.971335922404529095e-02
5.092000000000000171e+01,1.532441604165493514e-02
5.096000000000000085e+01,2.042122001447379404e-02
5.100000000000000000e+01,2.255791850661200901e-02
5.103999999999999915e+01,2.124119690674702854e-02
5.107999999999999829e+01,2.905060032605166764e-02
5.111999999999999744e+01,1.244067825104560807e-02
5.115999999999999659e+01,3.726904560533500499e-02
5.120000000000000284e+01,2.608517582630467957e-02
5.124000000000000199e+01,1.243452112724236294e-02
5.128000000000000114e+01,2.961587599082265640e-02
5.132000000000000028e+01,2.015799003409296172e-02
5.135999999999999943e+01,1.735965773972784204e-02
5.139999999999999858e+01,1.702769853720803930e-02
5.143999999999999773e+01,2.384861015808655352e-02
5.147999999999999687e+01,2.351624507670632344e-02
5.152000000000000313e+01,2.121041648584647346e-02
5.156000000000000227e+01,2.359088396196500070e-02
5.160000000000000142e+01,2.523117828147710892e-02
5.164000000000000057e+01,2.070483022079781105e-02
5.167999999999999972e+01,1.346504885841457236e-02
5.171999999999999886e+01,1.757132568917888979e-02
5.175999999999999801e+01,2.291069460785656944e-02
5.179999999999999716e+01,2.948315646435143225e-02
5.184000000000000341e+01,1.780275139013099903e-02
5.188000000000000256e+01,3.374781812913867085e-02
5.192000000000000171e+01,1.762718672290390642e-02
5.196000000000000085e+01,2.962534429093106880e-02
5.200000000000000000e+01,1.671087960130373737e-02
5.203999999999999915e+01,1.958231905508986750e-02
5.207999999999999829e+01,1.875370278375701125e-02
5.211999999999999744e+01,1.693826667395323046e-02
5.215999999999999659e+01,2.030245484091014810e-02
5.220000000000000284e+01,2.070656302429864370e-02
5.224000000000000199e+01,2.259043122505865683e-02
5.228000000000000114e+01,3.360044994210046460e-02
5.232000000000000028e+01,2.463100781297993674e-02
5.235999999999999943e+01,2.503437563056185380e-02
5.239999999999999858e+01,2.395761409777282316e-02
5.243999999999999773e+01,2.016743541145088470e-02
5.247999999999999687e+01,2.476343829909015068e-02
5.252000000000000313e+01,2.319281750442044737e-02
5.256000000000000227e+01,1.200236564876178136e-02
5.260000000000000142e+01,1.141801749229361986e-02
5.264000000000000057e+01,3.229271403189685335e-02
5.267999999999999972e+01,2.850146049282223371e-02
5.271999999999999886e+01,1.829692979034415815e-02
5.275999999999999801e+01,1.993179483973712626e-02
5.279999999999999716e+01,2.600632457251142449e-02
5.284000000000000341e+01,1.062145812419327227e-02
5.288000000000000256e+01,2.779523934895925669e-02
5.292000000000000171e+01,1.117673956178457176e-02
5.296000000000000085e+01,2.415699638014400311e-02
5.300000000000000000e+01,3.047732425381310256e-02
5.303999999999999915e+01,2.002475707755783929e-02
5.307999999999999829e+01,2.190490791362974948e-02
5.311999999999999744e+01,1.934505193024056713e-02
5.315999999999999659e+01,3.059786204266487855e-02
5.320000000000000284e+01,1.891133723945169140e-02
5.324000000000000199e+01,3.509697087680715283e-02
5.328000000000000114e+01,3.253645271875567346e-02
5.332000000000000028e+01,3.614221440712596378e-02
5.335999999999999943e+01,2.174179919173614001e-02
5.339999999999999858e+01,1.424763871441485190e-02
5.343999999999999773e+01,2.303272758836439477e-02
5.347999999999999687e+01,2.663784410014715526e-02
5.352000000000000313e+01,1.840323037311274862e-02
5.356000000000000227e+01,8.195196481689703827e-03
5.360000000000000142e+01,2.067951633709335865e-02
5.364000000000000057e+01,2.897049815239775838e-02
5.367999999999999972e+01,3.849461285099518154e-02
5.371999999999999886e+01,2.162619545412025959e-02
5.375999999999999801e+01,2.227032286081162549e-02
5.379999999999999716e+01,3.426055265564504487e-02
5.384000000000000341e+01,2.923124666801580826e-02
5.388000000000000256e+01,2.124189639277530503e-02
5.392000000000000171e+01,2.632525516967991475e-02
5.396000000000000085e+01,2.672196724448899080e-02
5.400000000000000000e+01,3.081839630795216167e-02
5.403999999999999915e+01,3.318807313648468316e-02
5.407999999999999829e+01,1.656495743707202609e-02
5.411999999999999744e+01,3.866695902308743549e-02
5.415999999999999659e+01,3.832296155238149732e-02
5.420000000000000284e+01,3.797881936065163055e-02
5.424000000000000199e+01,2.924817045695572715e-02
5.428000000000000114e+01,3.433021144637787847e-02
5.432000000000000028e+01,2.017280727666423759e-02
5.435999999999999943e+01,3.527580064784325425e-02
5.439999999999999858e+01,3.368301500158955852e-02
5.443999999999999773e+01,3.394497144335514166e-02
5.447999999999999687e+01,3.485581734184921981e-02
5.452000000000000313e+01,3.910536361649580295e-02
5.456000000000000227e+01,3.280135276627089980e-02
5.460000000000000142e+01,3.134811353361271341e-02
5.464000000000000057e+01,3.317263561884156026e-02
5.467999999999999972e+01,3.277123026105240727e-02
5.471999999999999886e+01,3.534412294603556798e-02
5.475999999999999801e+01,3.282045466799771161e-02
5.479999999999999716e+01,3.304650747032520514e-02
5.484000000000000341e+01,3.162059611358835481e-02
5.488000000000000256e+01,3.148633323290570690e-02
5.492000000000000171e+01,3.246087006924489732e-02
5.496000000000000085e+01,3.519879825232672538e-02
5.500000000000000000e+01,3.655556960194010496e-02
5.503999999999999915e+01,3.517426410005971421e-02
5.507999999999999829e+01,2.885262092340728363e-02
5.511999999999999744e+01,3.849165521779732146e-02
5.515999999999999659e+01,4.468642552757034342e-02
5.520000000000000284e+01,3.313782473440400611e-02
5.524000000000000199e+01,3.039142657125182279e-02
5.528000000000000114e+01,3.505687182210642794e-02
5.532000000000000028e+01,3.849229572180871278e-02
5.535999999999999943e+01,3.247495362059191898e-02
5.539999999999999858e+01,3.683639435143496593e-02
5.543999999999999773e+01,3.433350791337341085e-02
5.547999999999999687e+01,3.902065131668684683e-02
5.552000000000000313e+01,3.620765823087340046e-02
5.556000000000000227e+01,3.558038278208806166e-02
5.560000000000000142e+01,2.842289463154044210e-02
5.564000000000000057e+01,3.276452993996235158e-02
5.567999999999999972e+01,3.551557156342155519e-02
5.571999999999999886e+01,4.251470022543543670e-02
5.575999999999999801e+01,3.723786045602112127e-02
5.579999999999999716e+01,3.603145961775935935e-02
5.584000000000000341e+01,3.006792183709921032e-02
5.588000000000000256e+01,3.347647335141416824e-02
5.592000000000000171e+01,2.673432684154841699e-02
5.596000000000000085e+01,4.194549363750627036e-02
5.600000000000000000e+01,3.542927538474606453e-02
5.603999999999999915e+01,4.395907307393420033e-02
5.607999999999999829e+01,3.398943619159064400e-02
5.611999999999999744e+01,2.722624588157319947e-02
5.615999999999999659e+01,4.340212144283515927e-02
5.620000000000000284e+01,3.836532994553234349e-02
5.624000000000000199e+01,2.765530926819464302e-02
5.628000000000000114e+01,4.210427658736562440e-02
5.632000000000000028e+01,3.484726393645674186e-02
5.635999999999999943e+01,2.907009884300473801e-02
5.639999999999999858e+01,4.425874287534956736e-02
5.643999999999999773e+01,3.724809402609954162e-02
5.647999999999999687e+01,2.530419428807655080e-02
5.652000000000000313e+01,4.123252268272897814e-02
5.656000000000000227e+01,4.186797720266494799e-02
5.660000000000000142e+01,3.757018338353929759e-02
5.664000000000000057e+01,2.907911526709493211e-02
5.667999999999999972e+01,3.982725811148189743e-02
5.671999999999999886e+01,3.306261090524929142e-02
5.675999999999999801e+01,3.271097436777339884e-02
5.679999999999999716e+01,4.074561119386282265e-02
5.684000000000000341e+01,3.817387697621121151e-02
5.688000000000000256e+01,3.979523640150951780e-02
5.692000000000000171e+01,4.462305939720885573e-02
5.696000000000000085e+01,3.884451389887844802e-02
5.700000000000000000e+01,3.627243367075664443e-02
5.703999999999999915e+01,4.627981332604558240e-02
5.707999999999999829e+01,4.272093426965854757e-02
5.711999999999999744e+01,4.261518076380448050e-02
5.715999999999999659e+01,5.089570827064943820e-02
5.720000000000000284e+01,5.103644968901825674e-02
5.724000000000000199e+01,4.895719140352951249e-02
5.728000000000000114e+01,4.490459199470010071e-02
5.732000000000000028e+01,4.430512238592225482e-02
5.735999999999999943e+01,5.209193803936212896e-02
5.739999999999999858e+01,5.124565639261843830e-02
5.743999999999999773e+01,4.250625148743412268e-02
5.747999999999999687e+01,5.201944361870344119e-02
5.752000000000000313e+01,3.908670808516581663e-02
5.756000000000000227e+01,4.563985994095483972e-02
5.760000000000000142e+01,4.972636201140687856e-02
5.764000000000000057e+01,4.665971826477648826e-02
5.767999999999999972e+01,4.704621196733138611e-02
5.771999999999999886e+01,4.743263574039165847e-02
5.775999999999999801e+01,4.214586262975933417e-02
5.779999999999999716e+01,4.549204186089909202e-02
5.784000000000000341e+01,4.291836817754058481e-02
5.788000000000000256e+01,5.884395776028628067e-02
5.792000000000000171e+01,4.443058079764267837e-02
5.796000000000000085e+01,4.851646880091067815e-02
5.800000000000000000e+01,5.013571551787913971e-02
5.803999999999999915e+01,4.682174449232057861e-02
5.807999999999999829e+01,4.400102664762734622e-02
5.811999999999999744e+01,5.844628851539517694e-02
5.815999999999999659e+01,6.598507334544219394e-02
5.820000000000000284e+01,5.083128722843283792e-02
5.824000000000000199e+01,5.097022152869073314e-02
5.828000000000000114e+01,6.171538021447043471e-02
5.832000000000000028e+01,5.075460142535746788e-02
5.835999999999999943e+01,5.360659921954422785e-02
5.839999999999999858e+01,4.609891684684909452e-02
5.843999999999999773e+01,4.919746225929077371e-02
5.847999999999999687e+01,4.094969828220559188e-02
5.852000000000000313e+01,4.972126478600569915e-02
5.856000000000000227e+01,6.243930289809970779e-02
5.860000000000000142e+01,4.259846933764999816e-02
5.864000000000000057e+01,4.742335845680342027e-02
5.867999999999999972e+01,4.262854655024047451e-02
5.871999999999999886e+01,5.534638483530786301e-02
5.875999999999999801e+01,6.214438975366309847e-02
5.879999999999999716e+01,4.822309831842289812e-02
5.884000000000000341e+01,4.589467408980938551e-02
5.888000000000000256e+01,4.405952004013607287e-02
5.892000000000000171e+01,4.543087205605089718e-02
5.896000000000000085e+01,3.964910630170675326e-02
5.900000000000000000e+01,5.236662761077161971e-02
5.903999999999999915e+01,6.829065753513582915e-02
5.907999999999999829e+01,5.683563832867662841e-02
5.911999999999999744e+01,5.204033766590806381e-02
5.915999999999999659e+01,5.513804504979930715e-02
5.920000000000000284e+01,5.428919026082451582e-02
5.924000000000000199e+01,5.418027103053671412e-02
5.928000000000000114e+01,5.111142224964278918e-02
5.932000000000000028e+01,4.927582618846956114e-02
5.935999999999999943e+01,5.582655788470115149e-02
5.939999999999999858e+01,4.856442243306076378e-02
5.943999999999999773e+01,5.018193189985888092e-02
5.947999999999999687e+01,4.785288514311716868e-02
5.952000000000000313e+01,5.440348500462154763e-02
5.956000000000000227e+01,4.640124792602945414e-02
5.960000000000000142e+01,4.777197462671713135e-02
5.964000000000000057e+01,6.394213603007693758e-02
5.967999999999999972e+01,5.717310020220547212e-02
5.971999999999999886e+01,5.558384928290199811e-02
5.975999999999999801e+01,5.646114908532597065e-02
5.979999999999999716e+01,6.498481280225662515e-02
5.984000000000000341e+01,5.747569914473830283e-02
5.988000000000000256e+01,5.218648102804557265e-02
5.992000000000000171e+01,5.972344171844618660e-02
5.996000000000000085e+01,7.145356149438467086e-02
