2.003999999999999915e+01,3.276473479993414345e-02
2.007999999999999829e+01,3.681748225080504200e-02
2.012000000000000099e+01,3.400100772453946985e-02
2.016000000000000014e+01,4.587959106832571743e-02
2.019999999999999929e+01,2.868573287535510982e-02
2.023999999999999844e+01,2.379090279108630676e-02
2.028000000000000114e+01,1.633970909813057398e-02
2.032000000000000028e+01,3.332743529803683380e-02
2.035999999999999943e+01,5.111324258547148003e-02
2.039999999999999858e+01,3.040222279839953357e-02
2.044000000000000128e+01,3.428986019974295668e-02
2.048000000000000043e+01,3.354457692820342340e-02
2.051999999999999957e+01,2.656901959910928923e-02
2.055999999999999872e+01,2.470440235730769069e-02
2.060000000000000142e+01,3.258305248048733865e-02
2.064000000000000057e+01,3.023804540009193687e-02
2.067999999999999972e+01,3.635842373452239512e-02
2.071999999999999886e+01,4.599239066552800181e-02
2.076000000000000156e+01,2.767207270942436195e-02
2.080000000000000071e+01,3.922168587636681164e-02
2.083999999999999986e+01,2.441436943482627048e-02
2.087999999999999901e+01,4.714428465572014643e-02
2.092000000000000171e+01,4.783012737394043423e-02
2.096000000000000085e+01,3.637549311994323076e-02
2.100000000000000000e+01,3.929645919048015829e-02
2.103999999999999915e+01,3.710530722179186669e-02
2.107999999999999829e+01,2.580865280522152624e-02
2.112000000000000099e+01,3.591595827749581582e-02
2.116000000000000014e+01,3.036861109896562758e-02
2.119999999999999929e+01,3.696057177917463910e-02
2.123999999999999844e+01,3.444703253677428717e-02
2.128000000000000114e+01,4.183650679336344685e-02
2.132000000000000028e+01,3.133503530203497062e-02
2.135999999999999943e+01,3.217419718672340917e-02
2.139999999999999858e+01,3.716590000679206168e-02
2.144000000000000128e+01,3.832337431360924307e-02
2.148000000000000043e+01,1.871466816899955768e-02
2.151999999999999957e+01,3.792108700070691285e-02
2.155999999999999872e+01,4.850121716514744358e-02
2.160000000000000142e+01,3.176601730655676664e-02
2.164000000000000057e+01,3.435822532316021999e-02
2.167999999999999972e+01,3.902641847358417210e-02
2.171999999999999886e+01,2.244922875569339490e-02
2.176000000000000156e+01,3.797828093487094075e-02
2.180000000000000071e+01,4.312395881710175127e-02
2.183999999999999986e+01,3.277473018253621029e-02
2.187999999999999901e+01,4.494762124305382717e-02
2.192000000000000171e+01,4.386190267179740365e-02
2.196000000000000085e+01,3.127466451767400846e-02
2.200000000000000000e+01,4.664055160695439878e-02
2.203999999999999915e+01,4.140000248486115642e-02
2.207999999999999829e+01,2.929026232022659965e-02
2.212000000000000099e+01,3.427164198421847607e-02
2.216000000000000014e+01,3.190462566350819873e-02
2.219999999999999929e+01,2.682154063578497463e-02
2.223999999999999844e+01,4.170481455942456894e-02
2.228000000000000114e+01,4.380869073795088525e-02
2.232000000000000028e+01,2.610481213232597464e-02
2.235999999999999943e+01,3.156200240399843759e-02
2.239999999999999858e+01,2.503847383250706188e-02
2.244000000000000128e+01,4.598887124412245897e-02
2.248000000000000043e+01,3.706818609612247406e-02
2.251999999999999957e+01,2.670932050444704831e-02
2.255999999999999872e+01,2.864951963792816345e-02
2.260000000000000142e+01,2.787365637757810086e-02
2.264000000000000057e+01,3.220876603306609132e-02
2.267999999999999972e+01,4.197432003890810837e-02
2.271999999999999886e+01,2.729979892741004471e-02
2.276000000000000156e+01,3.898106103837107456e-02
2.280000000000000071e+01,2.893775112181127401e-02
2.283999999999999986e+01,3.183245195603123107e-02
2.287999999999999901e+01,2.673982656288042409e-02
2.292000000000000171e+01,4.113436464870470072e-02
2.296000000000000085e+01,3.763798287065679010e-02
2.300000000000000000e+01,3.509945924873650314e-02
2.303999999999999915e+01,3.032408638228225456e-02
2.307999999999999829e+01,2.746498534418603810e-02
2.312000000000000099e+01,3.083501260893895327e-02
2.316000000000000014e+01,4.858067428940805038e-02
2.319999999999999929e+01,3.565658776599436863e-02
2.323999999999999844e+01,3.471210589694826570e-02
2.328000000000000114e+01,1.699485702576842769e-02
2.332000000000000028e+01,2.914757905068033825e-02
2.335999999999999943e+01,4.401525433117248198e-02
2.339999999999999858e+01,2.981053858036270682e-02
2.344000000000000128e+01,3.173855108208547410e-02
2.348000000000000043e+01,3.686072493814008394e-02
2.351999999999999957e+01,4.917044581981962204e-02
2.355999999999999872e+01,2.681703913950515480e-02
2.360000000000000142e+01,3.018048733293569527e-02
2.364000000000000057e+01,4.568328189551471019e-02
2.367999999999999972e+01,4.185754934355786355e-02
2.371999999999999886e+01,4.330254215462903816e-02
2.376000000000000156e+01,2.014774086103376938e-02
2.380000000000000071e+01,3.133550928412039832e-02
2.383999999999999986e+01,2.830628596911193354e-02
2.387999999999999901e+01,3.677747120476494713e-02
2.392000000000000171e+01,2.272542508181131168e-02
2.396000000000000085e+01,3.439023951446643773e-02
2.400000000000000000e+01,2.928229830871512812e-02
2.403999999999999915e+01,3.423714956450724795e-02
2.407999999999999829e+01,2.241924644452931992e-02
2.412000000000000099e+01,3.919344363421476546e-02
2.416000000000000014e+01,3.584044427718768161e-02
2.419999999999999929e+01,2.657669974707698238e-02
2.423999999999999844e+01,3.073019426867949419e-02
2.428000000000000114e+01,3.711945036138358800e-02
2.432000000000000028e+01,3.743822777335954755e-02
2.435999999999999943e+01,3.344361655351473644e-02
2.439999999999999858e+01,3.695603705149286961e-02
2.444000000000000128e+01,2.609173987954961638e-02
2.448000000000000043e+01,2.816547934243163881e-02
2.451999999999999957e+01,2.496742028917163167e-02
2.455999999999999872e+01,1.314311991750868359e-02
2.460000000000000142e+01,2.911225042333236840e-02
2.464000000000000057e+01,4.412244015014129411e-02
2.467999999999999972e+01,3.149787766222125057e-02
2.471999999999999886e+01,1.999093587870977642e-02
2.476000000000000156e+01,1.870653332206816122e-02
2.480000000000000071e+01,2.796414142681222931e-02
2.483999999999999986e+01,2.811630642758371906e-02
2.487999999999999901e+01,4.040783736836742884e-02
2.492000000000000171e+01,3.992001223103798513e-02
2.496000000000000085e+01,1.515188273178564790e-02
2.500000000000000000e+01,3.287284737030961995e-02
2.503999999999999915e+01,2.918874613832922460e-02
2.507999999999999829e+01,2.390676946543800543e-02
2.512000000000000099e+01,1.782559499094937827e-02
2.516000000000000014e+01,3.314844416844216213e-02
2.519999999999999929e+01,3.281670445826696120e-02
2.523999999999999844e+01,3.296365205324094244e-02
2.528000000000000114e+01,9.309506541634569171e-03
2.532000000000000028e+01,2.670684160395893694e-02
2.535999999999999943e+01,2.844959030388822738e-02
2.539999999999999858e+01,3.977594672538215664e-02
2.544000000000000128e+01,3.033618519594939722e-02
2.548000000000000043e+01,2.824373702833173419e-02
2.551999999999999957e+01,4.180484373699518835e-02
2.555999999999999872e+01,3.651665920787453001e-02
2.560000000000000142e+01,3.873552533612241444e-02
2.564000000000000057e+01,3.759943544432538254e-02
2.567999999999999972e+01,2.751765110783666035e-02
2.571999999999999886e+01,2.670000874025993051e-02
2.576000000000000156e+01,2.668053268816672138e-02
2.580000000000000071e+01,3.273049183564208375e-02
2.583999999999999986e+01,2.552190322052557206e-02
2.587999999999999901e+01,2.741772369799490988e-02
2.592000000000000171e+01,1.781208709309760330e-02
2.596000000000000085e+01,2.577683712816952050e-02
2.600000000000000000e+01,2.990743062026305493e-02
2.603999999999999915e+01,3.116228061029037780e-02
2.607999999999999829e+01,2.954138772956978881e-02
2.612000000000000099e+01,3.878199714693311706e-02
2.616000000000000014e+01,3.109014961547307276e-02
2.619999999999999929e+01,2.707171257277853071e-02
2.623999999999999844e+01,3.279663191092944269e-02
2.628000000000000114e+01,1.456073852385570376e-02
2.632000000000000028e+01,3.034798382331141409e-02
2.635999999999999943e+01,2.345230087297083335e-02
2.639999999999999858e+01,3.412701150709940290e-02
2.644000000000000128e+01,3.250159625800280033e-02
2.648000000000000043e+01,2.161102838738009416e-02
2.651999999999999957e+01,2.797138519198318768e-02
2.655999999999999872e+01,3.528965634003238677e-02
2.660000000000000142e+01,3.541933698129717811e-02
2.664000000000000057e+01,3.922243505582739126e-02
2.667999999999999972e+01,3.312144205902657623e-02
2.671999999999999886e+01,3.069386775812749449e-02
2.676000000000000156e+01,2.890474015406762839e-02
2.680000000000000071e+01,4.165103981727778099e-02
2.683999999999999986e+01,3.906224728006364028e-02
2.687999999999999901e+01,3.934819895602918033e-02
2.692000000000000171e+01,2.557694290699878692e-02
2.696000000000000085e+01,2.985529548568915947e-02
2.700000000000000000e+01,3.573051095872169930e-02
2.703999999999999915e+01,2.004095672555994759e-02
2.707999999999999829e+01,2.208154221087560778e-02
2.712000000000000099e+01,2.252428445250795330e-02
2.716000000000000014e+01,2.711965853933926210e-02
2.719999999999999929e+01,3.059639684992078446e-02
2.723999999999999844e+01,1.777963686366576535e-02
2.728000000000000114e+01,3.595105808519588608e-02
2.732000000000000028e+01,3.048115379897207294e-02
2.735999999999999943e+01,2.564970567936009083e-02
2.739999999999999858e+01,4.110416875435493611e-02
2.744000000000000128e+01,3.147968960115935660e-02
2.748000000000000043e+01,2.904281997408916446e-02
2.751999999999999957e+01,2.644573203090859817e-02
2.755999999999999872e+01,3.486990451486559478e-02
2.760000000000000142e+01,1.693725408311316447e-02
2.764000000000000057e+01,3.174987995859826495e-02
2.767999999999999972e+01,3.585975353771189006e-02
2.771999999999999886e+01,2.766952143578232937e-02
2.776000000000000156e+01,2.746558028720042302e-02
2.780000000000000071e+01,1.687835953939957612e-02
2.783999999999999986e+01,3.088991277387836618e-02
2.787999999999999901e+01,2.717035919822081980e-02
2.792000000000000171e+01,3.127736369958464269e-02
2.796000000000000085e+01,1.797273345664640240e-02
2.800000000000000000e+01,3.198238154844350312e-02
2.803999999999999915e+01,2.378833411060502986e-02
2.807999999999999829e+01,2.198322866066970346e-02
2.812000000000000099e+01,2.720600743635162924e-02
2.816000000000000014e+01,1.453794841952550480e-02
2.819999999999999929e+01,2.503105045245174187e-02
2.823999999999999844e+01,1.827225756190219846e-02
2.828000000000000114e+01,1.710373280785174727e-02
2.832000000000000028e+01,1.849050419123754452e-02
2.835999999999999943e+01,2.227283694177890558e-02
2.839999999999999858e+01,1.295639773569110843e-02
2.844000000000000128e+01,3.127371461203678343e-02
2.848000000000000043e+01,2.962363852563278110e-02
2.851999999999999957e+01,2.046553143251930024e-02
2.855999999999999872e+01,2.999599982624986602e-02
2.860000000000000142e+01,2.227457897836833053e-02
2.864000000000000057e+01,2.046290275204750223e-02
2.867999999999999972e+01,3.574244989053542571e-02
2.871999999999999886e+01,3.568693450055372002e-02
2.876000000000000156e+01,2.269238823740570357e-02
2.880000000000000071e+01,2.487224241383290124e-02
2.883999999999999986e+01,2.944766553323388894e-02
2.887999999999999901e+01,2.204247208301693753e-02
2.892000000000000171e+01,2.118596927998398632e-02
2.896000000000000085e+01,2.336397892027528012e-02
2.900000000000000000e+01,2.506232280003106716e-02
2.903999999999999915e+01,2.947570958254952175e-02
2.907999999999999829e+01,3.181207785117883685e-02
2.912000000000000099e+01,3.606481327721209468e-02
2.916000000000000014e+01,2.785773034805781589e-02
2.919999999999999929e+01,2.827590270610178674e-02
2.923999999999999844e+01,2.198473242915847600e-02
2.928000000000000114e+01,3.374320739639063288e-02
2.932000000000000028e+01,3.352107273850495756e-02
2.935999999999999943e+01,2.834668675717553002e-02
2.939999999999999858e+01,4.482805546206689550e-03
2.944000000000000128e+01,1.480184766618487455e-02
2.948000000000000043e+01,2.048811115987176842e-02
2.951999999999999957e+01,2.936863133693652997e-02
2.955999999999999872e+01,3.138007852796048658e-02
2.960000000000000142e+01,1.566044605553001262e-02
2.964000000000000057e+01,2.645644079388546205e-02
2.967999999999999972e+01,2.527183158898676368e-02
2.971999999999999886e+01,1.050926505616213945e-02
2.976000000000000156e+01,3.088803931442387490e-02
2.980000000000000071e+01,2.459055457627830690e-02
2.983999999999999986e+01,1.126426586972012304e-02
2.987999999999999901e+01,1.982128151548624359e-02
2.992000000000000171e+01,2.933626453542599599e-02
2.996000000000000085e+01,1.872414254979005641e-02
3.000000000000000000e+01,2.983559140883383989e-02
3.003999999999999915e+01,3.008458981768008869e-02
3.007999999999999829e+01,2.665923147960190531e-02
3.012000000000000099e+01,2.626840389307529347e-02
3.016000000000000014e+01,0.000000000000000000e+00
3.019999999999999929e+01,2.820092743598981086e-02
3.023999999999999844e+01,2.237777434651843159e-02
3.028000000000000114e+01,1.256079686351550470e-02
3.032000000000000028e+01,1.568194818779295244e-02
3.035999999999999943e+01,1.960133842914515978e-02
3.039999999999999858e+01,1.872822916292542217e-02
3.044000000000000128e+01,1.945203708441176071e-02
3.048000000000000043e+01,2.321038143931343153e-02
3.051999999999999957e+01,1.674522452623174867e-02
3.055999999999999872e+01,2.401687721633455688e-02
3.060000000000000142e+01,2.505841494106534825e-02
3.064000000000000057e+01,1.715433650455933795e-02
3.067999999999999972e+01,3.672431410270617091e-02
3.071999999999999886e+01,2.626360379118488839e-02
3.076000000000000156e+01,1.995558214349917037e-02
3.080000000000000071e+01,1.428607095578929807e-02
3.083999999999999986e+01,1.995734276650620517e-02
3.087999999999999901e+01,2.626712629983526948e-02
3.092000000000000171e+01,3.704907182547061834e-02
3.096000000000000085e+01,2.019636425333201646e-02
3.100000000000000000e+01,1.324682359050196115e-02
3.103999999999999915e+01,2.322880813865457056e-02
3.107999999999999829e+01,2.522359587966439484e-02
3.112000000000000099e+01,1.667542101926570292e-02
3.116000000000000014e+01,2.809374589418510773e-02
3.119999999999999929e+01,2.385757657916446131e-02
3.123999999999999844e+01,2.041966007021867383e-02
3.128000000000000114e+01,1.442555356508693799e-02
3.132000000000000028e+01,2.168906245338820746e-02
3.135999999999999943e+01,2.927161983692186040e-02
3.139999999999999858e+01,7.462441649592603879e-03
3.144000000000000128e+01,1.584283331914462106e-02
3.148000000000000043e+01,1.527762208514174547e-02
3.151999999999999957e+01,1.567040347803997508e-02
3.155999999999999872e+01,3.746730953382917256e-02
3.160000000000000142e+01,1.677418024422862655e-02
3.164000000000000057e+01,2.211750352652630536e-02
3.167999999999999972e+01,1.819575625866205054e-02
3.171999999999999886e+01,1.666962338868081817e-02
3.176000000000000156e+01,2.025460737508370107e-02
3.180000000000000071e+01,2.096393876923912519e-02
3.183999999999999986e+01,2.774280069200906612e-02
3.187999999999999901e+01,3.116680508037091707e-02
3.192000000000000171e+01,2.276997628089588721e-02
3.196000000000000085e+01,2.938786239353380347e-02
3.200000000000000000e+01,1.955258993460037842e-02
3.203999999999999915e+01,4.605373048942571629e-03
3.207999999999999829e+01,1.585435108128207399e-02
3.211999999999999744e+01,2.534375695471485085e-02
3.215999999999999659e+01,1.979223985487536114e-02
3.220000000000000284e+01,2.390117098804432280e-02
3.224000000000000199e+01,2.784934784325700588e-02
3.228000000000000114e+01,2.653131629018860155e-02
3.232000000000000028e+01,2.457828675765815971e-02
3.235999999999999943e+01,2.180733642226702004e-02
3.239999999999999858e+01,2.437201447095812060e-02
3.243999999999999773e+01,2.945871194272626364e-02
3.247999999999999687e+01,2.253791691791046103e-02
3.252000000000000313e+01,2.431685849016174128e-02
3.256000000000000227e+01,2.849670323304237876e-02
3.260000000000000142e+01,2.210826766530390314e-02
3.264000000000000057e+01,1.944792797757113195e-02
3.267999999999999972e+01,2.795152695551558070e-02
3.271999999999999886e+01,2.856806966949791346e-02
3.275999999999999801e+01,2.675590243931571383e-02
3.279999999999999716e+01,2.059398957762050356e-02
3.284000000000000341e+01,2.549646251599853308e-02
3.288000000000000256e+01,3.182967548793391027e-02
3.292000000000000171e+01,2.061848307065949210e-02
3.296000000000000085e+01,2.699589279428674451e-02
3.300000000000000000e+01,2.386298221342778372e-02
3.303999999999999915e+01,2.674622970947945766e-02
3.307999999999999829e+01,2.145098416906343272e-02
3.311999999999999744e+01,1.969877382328131393e-02
3.315999999999999659e+01,2.800658368311625609e-02
3.320000000000000284e+01,2.645917889517153745e-02
3.324000000000000199e+01,2.683231476232078583e-02
3.328000000000000114e+01,2.044036021268669928e-02
3.332000000000000028e+01,2.757101543090373363e-02
3.335999999999999943e+01,3.068170817591634597e-02
3.339999999999999858e+01,2.395312517672464406e-02
3.343999999999999773e+01,2.721604843891540365e-02
3.347999999999999687e+01,2.410162575194318979e-02
3.352000000000000313e+01,2.927787726679337635e-02
3.356000000000000227e+01,2.288848680388788290e-02
3.360000000000000142e+01,2.549801881401884615e-02
3.364000000000000057e+01,2.915259786847610932e-02
3.367999999999999972e+01,2.768244280312831887e-02
3.371999999999999886e+01,2.961702944018393749e-02
3.375999999999999801e+01,2.631339634932868682e-02
3.379999999999999716e+01,3.307270976165395393e-02
3.384000000000000341e+01,2.577492466702933915e-02
3.388000000000000256e+01,3.604765121337451944e-02
3.392000000000000171e+01,1.996365459228337941e-02
3.396000000000000085e+01,2.464487890677833498e-02
3.400000000000000000e+01,2.708942695792194641e-02
3.403999999999999915e+01,2.106761871467148495e-02
3.407999999999999829e+01,1.728172671547802478e-02
3.411999999999999744e+01,3.010793773556941916e-02
3.415999999999999659e+01,1.897346040011858165e-02
3.420000000000000284e+01,1.406828624265420158e-02
3.424000000000000199e+01,4.095008015033399507e-02
3.428000000000000114e+01,3.013394305891234359e-02
3.432000000000000028e+01,2.554711103943172260e-02
3.435999999999999943e+01,2.367540588803231441e-02
3.439999999999999858e+01,1.956703078646343172e-02
3.443999999999999773e+01,1.833351921721115829e-02
3.447999999999999687e+01,2.907978970273648184e-02
3.452000000000000313e+01,3.056103446169105772e-02
3.456000000000000227e+01,3.204190741813478516e-02
3.460000000000000142e+01,2.841087635221805144e-02
3.464000000000000057e+01,2.525868095122385873e-02
3.467999999999999972e+01,2.945394411522731654e-02
3.471999999999999886e+01,2.693995113483483098e-02
3.475999999999999801e+01,2.969685776128935459e-02
3.479999999999999716e+01,2.830027593156835344e-02
3.484000000000000341e+01,3.441089059371670728e-02
3.488000000000000256e+01,3.509013484953382722e-02
3.492000000000000171e+01,3.113668633833291399e-02
3.496000000000000085e+01,2.973863876338702847e-02
3.500000000000000000e+01,2.642340151124242600e-02
3.503999999999999915e+01,2.710118507238019545e-02
3.507999999999999829e+01,3.864061234687535262e-02
3.511999999999999744e+01,2.510121860627176696e-02
3.515999999999999659e+01,3.280627094559684237e-02
3.520000000000000284e+01,3.859413676431412699e-02
3.524000000000000199e+01,3.080413237701497275e-02
3.528000000000000114e+01,3.020186062288721454e-02
3.532000000000000028e+01,3.007843526609118440e-02
3.535999999999999943e+01,2.228735145639625104e-02
3.539999999999999858e+01,2.599685801700015939e-02
3.543999999999999773e+01,4.488086981599816866e-02
3.547999999999999687e+01,2.798379437462819586e-02
3.552000000000000313e+01,4.047767617659939199e-02
3.556000000000000227e+01,2.278121105680397732e-02
3.560000000000000142e+01,2.872522998542213768e-02
3.564000000000000057e+01,5.208005293141124842e-02
3.567999999999999972e+01,3.374358193446044124e-02
3.571999999999999886e+01,4.352018812464974323e-02
3.575999999999999801e+01,4.275390494633999477e-02
3.579999999999999716e+01,4.486250676516517072e-02
3.584000000000000341e+01,3.467113106053865829e-02
3.588000000000000256e+01,4.332818177558316747e-02
3.592000000000000171e+01,5.709641500410310433e-02
3.596000000000000085e+01,6.159964523350686116e-02
3.600000000000000000e+01,5.444184207112767737e-02
3.603999999999999915e+01,5.814569777374244131e-02
3.607999999999999829e+01,5.242481696959658266e-02
3.611999999999999744e+01,6.427448316023880170e-02
3.615999999999999659e+01,5.136481555325312504e-02
3.620000000000000284e+01,4.771945532054408523e-02
3.624000000000000199e+01,7.458321150609648065e-02
3.628000000000000114e+01,6.183224343926872757e-02
3.632000000000000028e+01,7.288150618618101373e-02
3.635999999999999943e+01,5.677540726807119714e-02
3.639999999999999858e+01,6.654610064712471185e-02
3.643999999999999773e+01,9.021343183473490290e-02
3.647999999999999687e+01,8.768381566087163348e-02
3.652000000000000313e+01,8.355650460309869965e-02
3.656000000000000227e+01,7.415758505595726469e-02
3.660000000000000142e+01,7.546059781066535854e-02
3.664000000000000057e+01,6.478311647148349284e-02
3.667999999999999972e+01,8.126031506148413686e-02
3.671999999999999886e+01,8.064548796906331751e-02
3.675999999999999801e+01,9.009365409736873331e-02
3.679999999999999716e+01,1.046530166281496449e-01
3.684000000000000341e+01,1.043566509928495756e-01
3.688000000000000256e+01,1.024625961555034603e-01
3.692000000000000171e+01,1.131873034897402375e-01
3.696000000000000085e+01,1.271063849325373696e-01
3.700000000000000000e+01,1.276073593489171765e-01
3.703999999999999915e+01,1.303442967268995945e-01
3.707999999999999829e+01,1.396300535409758514e-01
3.711999999999999744e+01,1.466791833345192086e-01
3.715999999999999659e+01,1.516514221404468010e-01
3.720000000000000284e+01,1.614153928588338005e-01
3.724000000000000199e+01,1.631922639930785124e-01
3.728000000000000114e+01,1.713582223184088871e-01
3.732000000000000028e+01,1.857535330645441740e-01
3.735999999999999943e+01,2.084547570835895147e-01
3.739999999999999858e+01,2.260441212725472215e-01
3.743999999999999773e+01,2.404384510819236043e-01
3.747999999999999687e+01,2.342265883687460470e-01
3.752000000000000313e+01,2.891930593830193685e-01
3.756000000000000227e+01,2.943217606447585677e-01
3.760000000000000142e+01,3.077563789673170014e-01
3.764000000000000057e+01,3.266216777532306992e-01
3.767999999999999972e+01,3.490008328146301797e-01
3.771999999999999886e+01,3.903881787379359647e-01
3.775999999999999801e+01,4.281012891274090237e-01
3.779999999999999716e+01,4.517573635104322749e-01
3.784000000000000341e+01,4.923450704285300406e-01
3.788000000000000256e+01,5.393218740074858797e-01
3.792000000000000171e+01,5.874165066258515422e-01
3.796000000000000085e+01,6.133076002814916716e-01
3.800000000000000000e+01,6.657144530934184790e-01
3.803999999999999915e+01,7.297816733442433756e-01
3.807999999999999829e+01,7.719648273294950069e-01
3.811999999999999744e+01,7.913055032708977699e-01
3.815999999999999659e+01,8.604833095273136667e-01
3.820000000000000284e+01,9.156040860904617329e-01
3.824000000000000199e+01,9.327075233518108410e-01
3.828000000000000114e+01,9.502898537280372038e-01
3.832000000000000028e+01,9.870401198375419183e-01
3.835999999999999943e+01,9.650074463313326190e-01
3.839999999999999858e+01,1.000000000000000000e+00
3.843999999999999773e+01,9.546453360997251281e-01
3.847999999999999687e+01,9.466684462402871203e-01
3.852000000000000313e+01,8.939653346311190463e-01
3.856000000000000227e+01,8.708129636470735013e-01
3.860000000000000142e+01,8.117198192638792609e-01
3.864000000000000057e+01,7.775450901220728461e-01
3.867999999999999972e+01,7.385779921555586380e-01
3.871999999999999886e+01,6.876304329237001856e-01
3.875999999999999801e+01,6.676712360879458741e-01
3.879999999999999716e+01,6.173620080655988218e-01
3.884000000000000341e+01,5.866999301884635587e-01
3.888000000000000256e+01,5.386263899168908242e-01
3.892000000000000171e+01,5.098805302499680447e-01
3.896000000000000085e+01,4.795370142095448651e-01
3.900000000000000000e+01,4.507905504589196921e-01
3.903999999999999915e+01,4.178906651718462539e-01
3.907999999999999829e+01,4.123052330946455624e-01
3.911999999999999744e+01,3.861136343789364767e-01
3.915999999999999659e+01,3.409132236720272546e-01
3.920000000000000284e+01,3.415565746544290127e-01
3.924000000000000199e+01,3.314973557914147051e-01
3.928000000000000114e+01,3.041864162487438739e-01
3.932000000000000028e+01,2.771946508336241566e-01
3.935999999999999943e+01,2.818301988907774280e-01
3.939999999999999858e+01,2.666582617366446417e-01
3.943999999999999773e+01,2.364709020505138537e-01
3.947999999999999687e+01,2.332785310842396265e-01
3.952000000000000313e+01,2.385518428836564397e-01
3.956000000000000227e+01,2.105998982627441674e-01
3.960000000000000142e+01,2.090040026492469560e-01
3.964000000000000057e+01,2.102830526394303956e-01
3.967999999999999972e+01,1.915948864359561521e-01
3.971999999999999886e+01,2.007003897482424748e-01
3.975999999999999801e+01,1.789766708207756463e-01
3.979999999999999716e+01,1.792961482141418872e-01
3.984000000000000341e+01,1.775387769182108222e-01
3.988000000000000256e+01,1.818510630458494703e-01
3.992000000000000171e+01,1.681129615869274563e-01
3.996000000000000085e+01,1.582082231918255366e-01
4.000000000000000000e+01,1.550120857206439828e-01
4.003999999999999915e+01,1.460651884799790690e-01
4.007999999999999829e+01,1.401529791890938625e-01
4.011999999999999744e+01,1.396714895032915016e-01
4.015999999999999659e+01,1.446207200538901783e-01
4.020000000000000284e+01,1.304014196259624947e-01
4.024000000000000199e+01,1.323151126042050318e-01
4.028000000000000114e+01,1.410971463271941395e-01
4.032000000000000028e+01,1.331066819895964093e-01
4.035999999999999943e+01,1.211225523506498092e-01
4.039999999999999858e+01,1.172846485631963004e-01
4.043999999999999773e+01,1.236695314793410660e-01
4.047999999999999687e+01,1.259010155864924985e-01
4.052000000000000313e+01,1.062484719384800824e-01
4.056000000000000227e+01,1.084794012047473194e-01
4.060000000000000142e+01,1.134255558247326268e-01
4.064000000000000057e+01,1.094262521130274779e-01
4.067999999999999972e+01,1.067045564032858274e-01
4.071999999999999886e+01,9.727369924687598313e-02
4.075999999999999801e+01,9.295410099344203481e-02
4.079999999999999716e+01,9.055105424232207101e-02
4.084000000000000341e+01,1.081146600055210988e-01
4.088000000000000256e+01,1.028358312858259488e-01
4.092000000000000171e+01,1.010709099783893977e-01
4.096000000000000085e+01,8.540873794023891297e-02
4.100000000000000000e+01,9.354687058005607680e-02
4.103999999999999915e+01,9.098246178377555893e-02
4.107999999999999829e+01,8.346598664027952974e-02
4.111999999999999744e+01,9.256172499675086041e-02
4.115999999999999659e+01,9.095492381107904423e-02
4.120000000000000284e+01,8.838944321212124922e-02
4.124000000000000199e+01,8.518475463439355300e-02
4.128000000000000114e+01,8.517450834759011935e-02
4.132000000000000028e+01,9.075473600701412791e-02
4.135999999999999943e+01,7.732618639773811142e-02
4.139999999999999858e+01,8.642006456681960991e-02
4.143999999999999773e+01,8.193617038420338006e-02
4.147999999999999687e+01,7.936883843631031832e-02
4.152000000000000313e+01,7.696097993686973338e-02
4.156000000000000227e+01,8.349804260514459564e-02
4.160000000000000142e+01,8.588172414133529720e-02
4.164000000000000057e+01,9.034170583912097541e-02
4.167999999999999972e+01,7.403582590116317141e-02
4.171999999999999886e+01,7.562005214573740142e-02
4.175999999999999801e+01,8.135714066664810618e-02
4.179999999999999716e+01,7.719037675450168834e-02
4.184000000000000341e+01,8.676060047726794067e-02
4.188000000000000256e+01,7.907914455605959125e-02
4.192000000000000171e+01,9.328118301394912326e-02
4.196000000000000085e+01,6.627123285065081304e-02
4.200000000000000000e+01,9.373080025528227055e-02
4.203999999999999915e+01,7.694340767098128975e-02
4.207999999999999829e+01,7.708771454148202751e-02
4.211999999999999744e+01,8.282250798457388430e-02
4.215999999999999659e+01,7.849371927487326650e-02
4.220000000000000284e+01,8.902007169314199442e-02
4.224000000000000199e+01,8.612839978767571070e-02
4.228000000000000114e+01,9.777239946961711892e-02
4.232000000000000028e+01,9.040763703449503086e-02
4.235999999999999943e+01,9.150860218865504436e-02
4.239999999999999858e+01,8.478228460031769775e-02
4.243999999999999773e+01,8.572301885590390136e-02
4.247999999999999687e+01,8.219091506520806445e-02
4.252000000000000313e+01,6.955364721317740251e-02
4.256000000000000227e+01,9.301633458364640117e-02
4.260000000000000142e+01,9.667158724828414651e-02
4.264000000000000057e+01,8.962432372955173032e-02
4.267999999999999972e+01,8.736887861386997967e-02
4.271999999999999886e+01,9.022472333575511094e-02
4.275999999999999801e+01,1.007476249521092881e-01
4.279999999999999716e+01,8.954627020003522175e-02
4.284000000000000341e+01,9.479742069301134999e-02
4.288000000000000256e+01,9.861071208326824267e-02
4.292000000000000171e+01,9.906932018293607145e-02
4.296000000000000085e+01,1.071949883336639348e-01
4.300000000000000000e+01,1.031805273684942154e-01
4.303999999999999915e+01,1.025202718738479069e-01
4.307999999999999829e+01,9.850533561388530313e-02
4.311999999999999744e+01,1.053521699622353563e-01
4.315999999999999659e+01,1.126779744462814287e-01
4.320000000000000284e+01,1.062662989550309245e-01
4.324000000000000199e+01,1.030490966892957383e-01
4.328000000000000114e+01,1.234724996850657536e-01
4.332000000000000028e+01,1.250468917483257836e-01
4.335999999999999943e+01,1.215095180479079107e-01
4.339999999999999858e+01,1.355428062421878410e-01
4.343999999999999773e+01,1.288102605787244392e-01
4.347999999999999687e+01,1.268695459446754215e-01
4.352000000000000313e+01,1.316374877905469865e-01
4.356000000000000227e+01,1.341689042581134805e-01
4.360000000000000142e+01,1.381377102154699721e-01
4.364000000000000057e+01,1.545656490042655040e-01
4.367999999999999972e+01,1.527835241488107731e-01
4.371999999999999886e+01,1.486051410387246863e-01
4.375999999999999801e+01,1.604000714892100943e-01
4.379999999999999716e+01,1.610132978597557107e-01
4.384000000000000341e+01,1.632236529095994204e-01
4.388000000000000256e+01,1.718231993180293904e-01
4.392000000000000171e+01,1.738733701868450110e-01
4.396000000000000085e+01,1.773609362273143586e-01
4.400000000000000000e+01,1.985789090338532237e-01
4.403999999999999915e+01,1.884885209468877554e-01
4.407999999999999829e+01,2.007608675349992211e-01
4.411999999999999744e+01,1.917881847929794048e-01
4.415999999999999659e+01,1.970317325071240799e-01
4.420000000000000284e+01,2.204848963487262281e-01
4.424000000000000199e+01,2.040039907670690988e-01
4.428000000000000114e+01,2.185115347034256306e-01
4.432000000000000028e+01,2.148090250966228631e-01
4.435999999999999943e+01,2.277187801265603551e-01
4.439999999999999858e+01,2.375933460278796538e-01
4.443999999999999773e+01,2.271813000592073084e-01
4.447999999999999687e+01,2.226792487140968890e-01
4.452000000000000313e+01,2.247261342302627474e-01
4.456000000000000227e+01,2.344401050502159800e-01
4.460000000000000142e+01,2.273816453606280763e-01
4.464000000000000057e+01,2.156906463143412056e-01
4.467999999999999972e+01,2.132640884817861571e-01
4.471999999999999886e+01,2.132333502255243651e-01
4.475999999999999801e+01,2.072921912937260303e-01
4.479999999999999716e+01,2.048650010120503240e-01
4.484000000000000341e+01,1.952495081046824732e-01
4.488000000000000256e+01,1.933011055516474785e-01
4.492000000000000171e+01,1.927901133219026564e-01
4.496000000000000085e+01,1.823753185332372684e-01
4.500000000000000000e+01,1.753147601496864161e-01
4.503999999999999915e+01,1.807133566937110802e-01
4.507999999999999829e+01,1.739718569503838352e-01
4.511999999999999744e+01,1.637159732373687226e-01
4.515999999999999659e+01,1.438757609252220571e-01
4.520000000000000284e+01,1.604550163057731904e-01
4.524000000000000199e+01,1.530737582059194246e-01
4.528000000000000114e+01,1.385042044248736004e-01
4.532000000000000028e+01,1.402274596290065123e-01
4.535999999999999943e+01,1.243796193106489201e-01
4.539999999999999858e+01,1.292971804848783712e-01
4.543999999999999773e+01,1.215954448488225093e-01
4.547999999999999687e+01,1.105390663265415907e-01
4.552000000000000313e+01,1.167339123556242197e-01
4.556000000000000227e+01,1.045589890108123421e-01
4.560000000000000142e+01,1.003706381872586095e-01
4.564000000000000057e+01,1.011338878859003032e-01
4.567999999999999972e+01,8.799996134937390635e-02
4.571999999999999886e+01,8.189419681846625554e-02
4.575999999999999801e+01,9.335913143002934345e-02
4.579999999999999716e+01,8.964900848758690366e-02
4.584000000000000341e+01,6.900673920486816160e-02
4.588000000000000256e+01,6.944934979375275153e-02
4.592000000000000171e+01,7.132938648888208222e-02
4.596000000000000085e+01,7.640393933916329872e-02
4.600000000000000000e+01,6.790079180801987524e-02
4.603999999999999915e+01,7.009972556981762526e-02
4.607999999999999829e+01,5.872096021282721678e-02
4.611999999999999744e+01,6.331554566418115537e-02
4.615999999999999659e+01,5.656872888176926045e-02
4.620000000000000284e+01,5.493325686160632770e-02
4.624000000000000199e+01,5.681177621902062241e-02
4.628000000000000114e+01,4.878651385101453325e-02
4.632000000000000028e+01,4.411550872162300213e-02
4.635999999999999943e+01,4.263902606056526462e-02
4.639999999999999858e+01,4.435706649915948513e-02
4.643999999999999773e+01,5.326301570869877017e-02
4.647999999999999687e+01,4.667444729344370768e-02
4.652000000000000313e+01,3.912728343022123939e-02
4.656000000000000227e+01,4.419903388626428287e-02
4.660000000000000142e+01,4.016568467542745713e-02
4.664000000000000057e+01,4.220209958093357194e-02
4.667999999999999972e+01,3.880733031897316138e-02
4.671999999999999886e+01,3.780841219921518559e-02
4.675999999999999801e+01,3.936508125457682805e-02
4.679999999999999716e+01,3.005956438206052600e-02
4.684000000000000341e+01,3.640793887841801274e-02
4.688000000000000256e+01,3.508883674151384857e-02
4.692000000000000171e+01,3.073458524903716765e-02
4.696000000000000085e+01,3.979793139700284893e-02
4.700000000000000000e+01,4.007565499446848895e-02
4.703999999999999915e+01,2.773410703437631172e-02
4.707999999999999829e+01,2.018444692233518564e-02
4.711999999999999744e+01,2.509397456641520099e-02
4.715999999999999659e+01,3.160068328920270092e-02
4.720000000000000284e+01,2.996071422447707522e-02
4.724000000000000199e+01,3.039713370589234784e-02
4.728000000000000114e+01,2.827761571839565793e-02
4.732000000000000028e+01,3.047078316206225032e-02
4.735999999999999943e+01,3.314298702983426576e-02
4.739999999999999858e+01,3.565528634663391039e-02
4.743999999999999773e+01,2.331202479667162861e-02
4.747999999999999687e+01,3.604705341101491906e-02
4.752000000000000313e+01,2.210610270290688448e-02
4.756000000000000227e+01,2.845138137377088011e-02
4.760000000000000142e+01,2.856681338949153964e-02
4.764000000000000057e+01,2.596657821656499568e-02
4.767999999999999972e+01,2.528300313268033381e-02
4.771999999999999886e+01,2.459926394996784019e-02
4.775999999999999801e+01,1.784541603898372186e-02
4.779999999999999716e+01,2.898177027089579930e-02
4.784000000000000341e+01,3.532590024996463268e-02
4.788000000000000256e+01,2.713394710996955977e-02
4.792000000000000171e+01,2.229627646131647489e-02
4.796000000000000085e+01,2.400759696730353152e-02
4.800000000000000000e+01,3.083029064485791337e-02
4.803999999999999915e+01,1.385225043587932220e-02
4.807999999999999829e+01,1.891753723059809433e-02
4.811999999999999744e+01,1.951007499489895367e-02
4.815999999999999659e+01,2.441531144804483938e-02
4.820000000000000284e+01,3.075800999257210025e-02
4.824000000000000199e+01,1.713362744553320952e-02
4.828000000000000114e+01,2.123971921560974599e-02
4.832000000000000028e+01,2.470671475023517374e-02
4.835999999999999943e+01,2.977091030311364295e-02
4.839999999999999858e+01,2.764685941761851201e-02
4.843999999999999773e+01,2.759921601780981892e-02
4.847999999999999687e+01,2.787089131741670930e-02
4.852000000000000313e+01,2.670479653016849877e-02
4.856000000000000227e+01,2.362172608258632581e-02
4.860000000000000142e+01,2.021903462197832332e-02
4.864000000000000057e+01,2.991449651397849047e-02
4.867999999999999972e+01,1.660791162853160127e-02
4.871999999999999886e+01,2.103180800470017334e-02
4.875999999999999801e+01,2.753211691710062345e-02
4.879999999999999716e+01,2.508709628672037284e-02
4.884000000000000341e+01,2.503796025840637762e-02
4.888000000000000256e+01,2.770418026667479175e-02
4.892000000000000171e+01,2.110560182291908171e-02
4.896000000000000085e+01,1.913920549757013381e-02
4.900000000000000000e+01,1.381822184199627858e-02
4.903999999999999915e+01,1.919936682822748555e-02
4.907999999999999829e+01,1.675333450209824313e-02
4.911999999999999744e+01,1.286954155888660190e-02
4.915999999999999659e+01,2.559808901059750300e-02
4.920000000000000284e+01,1.804009971918065641e-02
4.924000000000000199e+01,2.310106704534782909e-02
4.928000000000000114e+01,2.193221423173537590e-02
4.932000000000000028e+01,1.405433570486460358e-02
4.935999999999999943e+01,1.671885546874535278e-02
4.939999999999999858e+01,1.363276319159809416e-02
4.943999999999999773e+01,1.885277484545275911e-02
4.947999999999999687e+01,2.407265017847970770e-02
4.952000000000000313e+01,2.194456134844326514e-02
4.956000000000000227e+01,2.396945790178934763e-02
4.960000000000000142e+01,2.120215798029231186e-02
4.964000000000000057e+01,2.194890309841828618e-02
4.967999999999999972e+01,6.083033286011691604e-03
4.971999999999999886e+01,1.944860943330300670e-02
4.975999999999999801e+01,2.019495695267307586e-02
4.979999999999999716e+01,1.423228633460297404e-02
4.984000000000000341e+01,1.577704895272171934e-02
4.988000000000000256e+01,1.428670893281362188e-02
4.992000000000000171e+01,1.119888552058786318e-02
4.996000000000000085e+01,2.440394432645031503e-02
5.000000000000000000e+01,1.428750638516783529e-02
5.003999999999999915e+01,2.301971835019387194e-02
5.007999999999999829e+01,1.641720491066120044e-02
5.011999999999999744e+01,1.891948314253465158e-02
5.015999999999999659e+01,1.886586936040553567e-02
5.020000000000000284e+01,1.881213062117598200e-02
5.024000000000000199e+01,1.652197193377832884e-02
5.028000000000000114e+01,2.046137021427747033e-02
5.032000000000000028e+01,1.625413995008194792e-02
5.035999999999999943e+01,1.108837484446475313e-02
5.039999999999999858e+01,1.486767042788193598e-02
5.043999999999999773e+01,1.625081381812288478e-02
5.047999999999999687e+01,2.210642791526261364e-02
5.052000000000000313e+01,1.534282537952667315e-02
5.056000000000000227e+01,2.822655796523066904e-02
5.060000000000000142e+01,1.443435983998351234e-02
5.064000000000000057e+01,1.981029189401570245e-02
5.067999999999999972e+01,2.023430911719678940e-02
5.071999999999999886e+01,2.513080083518582503e-02
5.075999999999999801e+01,2.172093555138119442e-02
5.079999999999999716e+01,2.549904785220379402e-02
5.084000000000000341e+01,1.362297594031523090e-02
5.088000000000000256e+01,2.171371500361005819e-02
5.092000000000000171e+01,2.101889338558699319e-02
5.096000000000000085e+01,2.112263581350402528e-02
5.100000000000000000e+01,1.627446846111542042e-02
5.103999999999999915e+01,1.829481167806519190e-02
5.107999999999999829e+01,2.047477922851366483e-02
5.111999999999999744e+01,1.945992831019998856e-02
5.115999999999999659e+01,1.221528692406149280e-02
5.120000000000000284e+01,1.790910389329599187e-02
5.124000000000000199e+01,2.008863348452497727e-02
5.128000000000000114e+01,2.258752596744256075e-02
5.132000000000000028e+01,1.757874729501603811e-02
5.135999999999999943e+01,1.911901343927539451e-02
5.139999999999999858e+01,2.129811517237584911e-02
5.143999999999999773e+01,2.172002210165069336e-02
5.147999999999999687e+01,2.485732610319000419e-02
5.152000000000000313e+01,1.745198947559522748e-02
5.156000000000000227e+01,1.851252564046517238e-02
5.160000000000000142e+01,1.973269434597022670e-02
5.164000000000000057e+01,1.839699439624553623e-02
5.167999999999999972e+01,2.600637533773718368e-02
5.171999999999999886e+01,1.588502573473076634e-02
5.175999999999999801e+01,1.758399551435892855e-02
5.179999999999999716e+01,1.832445318002016293e-02
5.184000000000000341e+01,1.762719315823559063e-02
5.188000000000000256e+01,1.836745330910535823e-02
5.192000000000000171e+01,1.639211382237370715e-02
5.196000000000000085e+01,1.793085599171976088e-02
5.200000000000000000e+01,2.537971147244667824e-02
5.203999999999999915e+01,1.765360788480492896e-02
5.207999999999999829e+01,2.238677033673924788e-02
5.211999999999999744e+01,2.664063193004911900e-02
5.215999999999999659e+01,2.131027540490977590e-02
5.220000000000000284e+01,1.677850249657425810e-02
5.224000000000000199e+01,2.278917333389967464e-02
5.228000000000000114e+01,2.001430495472541690e-02
5.232000000000000028e+01,1.707960967671557501e-02
5.235999999999999943e+01,1.542270674557929926e-02
5.239999999999999858e+01,2.095380665179770452e-02
5.243999999999999773e+01,2.281090271795713914e-02
5.247999999999999687e+01,1.556299192100984302e-02
5.252000000000000313e+01,2.237170812412869053e-02
5.256000000000000227e+01,1.672097529319822862e-02
5.260000000000000142e+01,1.490380502263440043e-02
5.264000000000000057e+01,2.522643882690332393e-02
5.267999999999999972e+01,1.973518205749852372e-02
5.271999999999999886e+01,2.398769960157784431e-02
5.275999999999999801e+01,2.616357237213363940e-02
5.279999999999999716e+01,2.067206194451924953e-02
5.284000000000000341e+01,1.805570545558657022e-02
5.288000000000000256e+01,2.518312580541073528e-02
5.292000000000000171e+01,2.560157726061321540e-02
5.296000000000000085e+01,2.234603308289312418e-02
5.300000000000000000e+01,1.813199573075158569e-02
5.303999999999999915e+01,2.989141840500057420e-02
5.307999999999999829e+01,2.807325244114366666e-02
5.311999999999999744e+01,2.290056417283492518e-02
5.315999999999999659e+01,2.347827212253543114e-02
5.320000000000000284e+01,2.485457947199436537e-02
5.324000000000000199e+01,2.255689560775802835e-02
5.328000000000000114e+01,1.802283977553562067e-02
5.332000000000000028e+01,2.610780495535202847e-02
5.335999999999999943e+01,2.828248519304175576e-02
5.339999999999999858e+01,2.294952710393298109e-02
5.343999999999999773e+01,3.087453352721365382e-02
5.347999999999999687e+01,2.713878244475822349e-02
5.352000000000000313e+01,2.579898982859674117e-02
5.356000000000000227e+01,2.302150667167146558e-02
5.360000000000000142e+01,1.960501061329548295e-02
5.364000000000000057e+01,1.778579790717301629e-02
5.367999999999999972e+01,2.666878707576506372e-02
5.371999999999999886e+01,1.702240025777335131e-02
5.375999999999999801e+01,2.494683884588938874e-02
5.379999999999999716e+01,2.967650126356173243e-02
5.384000000000000341e+01,1.987017462857981059e-02
5.388000000000000256e+01,1.821028659931932595e-02
5.392000000000000171e+01,1.990477575912863450e-02
5.396000000000000085e+01,1.696687265937601996e-02
5.400000000000000000e+01,2.712720750886834023e-02
5.403999999999999915e+01,2.275155646229729337e-02
5.407999999999999829e+01,1.869531249968778286e-02
5.411999999999999744e+01,1.479874085075903734e-02
5.415999999999999659e+01,2.448496475984922663e-02
5.420000000000000284e+01,2.669759381874870635e-02
5.424000000000000199e+01,3.255719135957758914e-02
5.428000000000000114e+01,2.655156124062985068e-02
5.432000000000000028e+01,3.230315303960820672e-02
5.435999999999999943e+01,2.581035070072709367e-02
5.439999999999999858e+01,2.534924129809293034e-02
5.443999999999999773e+01,2.758585025177607425e-02
5.447999999999999687e+01,2.965980571791348649e-02
5.452000000000000313e+01,2.453847615462526749e-02
5.456000000000000227e+01,2.612926588271137496e-02
5.460000000000000142e+01,3.124584214833995774e-02
5.464000000000000057e+01,2.619124581008034844e-02
5.467999999999999972e+01,2.973313640842794453e-02
5.471999999999999886e+01,3.182360942170600615e-02
5.475999999999999801e+01,2.195767263314853807e-02
5.479999999999999716e+01,2.701441068268814472e-02
5.484000000000000341e+01,2.101706010192351884e-02
5.488000000000000256e+01,2.237350242891664176e-02
5.492000000000000171e+01,2.622813793170684221e-02
5.496000000000000085e+01,2.984618886178269301e-02
5.500000000000000000e+01,2.527969500464514324e-02
5.503999999999999915e+01,3.041259072488179324e-02
5.507999999999999829e+01,2.660878225201249517e-02
5.511999999999999744e+01,2.749023674837193162e-02
5.515999999999999659e+01,2.676717689623197768e-02
5.520000000000000284e+01,2.959102555899847595e-02
5.524000000000000199e+01,2.659660304302119069e-02
5.528000000000000114e+01,2.987258766183162328e-02
5.532000000000000028e+01,2.468697286412223357e-02
5.535999999999999943e+01,2.470128515907910396e-02
5.539999999999999858e+01,2.636952292892241062e-02
5.543999999999999773e+01,2.401963393866025920e-02
5.547999999999999687e+01,2.405283467671689296e-02
5.552000000000000313e+01,2.821188991908859384e-02
5.556000000000000227e+01,2.730606998716220146e-02
5.560000000000000142e+01,2.428851870211386904e-02
5.564000000000000057e+01,2.967352172494968146e-02
5.567999999999999972e+01,2.541685938396224045e-02
5.571999999999999886e+01,2.739745895106653062e-02
5.575999999999999801e+01,2.479150754451591582e-02
5.579999999999999716e+01,2.967830337128629301e-02
5.584000000000000341e+01,2.817564719286052774e-02
5.588000000000000256e+01,3.034686994129354859e-02
5.592000000000000171e+01,2.836493756955268952e-02
5.596000000000000085e+01,2.845953137131710872e-02
5.600000000000000000e+01,3.126959358430088376e-02
5.603999999999999915e+01,2.880835475987237118e-02
5.607999999999999829e+01,3.129888123168562963e-02
5.611999999999999744e+01,3.698408421346977004e-02
5.615999999999999659e+01,2.541783293187142509e-02
5.620000000000000284e+01,2.551223570762726697e-02
5.624000000000000199e+01,2.975972929690257063e-02
5.628000000000000114e+01,3.161116286545664900e-02
5.632000000000000028e+01,3.569886369097859807e-02
5.635999999999999943e+01,3.531394553762878114e-02
5.639999999999999858e+01,2.885905502073529347e-02
5.643999999999999773e+01,3.039090811232816533e-02
5.647999999999999687e+01,3.703426821494364835e-02
5.652000000000000313e+01,3.632977463517809980e-02
5.656000000000000227e+01,3.211107764272561060e-02
5.660000000000000142e+01,3.492071437443829141e-02
5.664000000000000057e+01,2.958382230972943575e-02
5.667999999999999972e+01,3.926203531177195616e-02
5.671999999999999886e+01,2.657727003771859914e-02
5.675999999999999801e+01,3.098417131383996923e-02
5.679999999999999716e+01,3.155740216198549275e-02
5.684000000000000341e+01,3.324876066304233158e-02
5.688000000000000256e+01,3.430115803073972847e-02
5.692000000000000171e+01,3.343671168360382723e-02
5.696000000000000085e+01,2.937753904016085840e-02
5.700000000000000000e+01,4.225030133320272635e-02
5.703999999999999915e+01,3.467691521988216369e-02
5.707999999999999829e+01,3.045795616976795100e-02
5.711999999999999744e+01,3.773993029572719760e-02
5.715999999999999659e+01,2.840940754765458598e-02
5.720000000000000284e+01,3.201743785268270498e-02
5.724000000000000199e+01,3.259048168223004083e-02
5.728000000000000114e+01,3.460113091238675720e-02
5.732000000000000028e+01,3.293785332330305404e-02
5.735999999999999943e+01,3.558741962624701466e-02
5.739999999999999858e+01,3.520200197898298855e-02
5.743999999999999773e+01,3.178160101282908462e-02
5.747999999999999687e+01,3.762584328222629004e-02
5.752000000000000313e+01,3.771960166818714294e-02
5.756000000000000227e+01,3.893149907078658628e-02
5.760000000000000142e+01,4.269915473573384496e-02
5.764000000000000057e+01,3.145167511845739505e-02
5.767999999999999972e+01,3.681667036687689964e-02
5.771999999999999886e+01,3.611171408525289117e-02
5.775999999999999801e+01,3.221204413368550928e-02
5.779999999999999716e+01,3.518099144422980745e-02
5.784000000000000341e+01,3.910834678904102218e-02
5.788000000000000256e+01,3.281263268750756606e-02
5.792000000000000171e+01,3.658024577402029659e-02
5.796000000000000085e+01,3.379870491360159601e-02
5.800000000000000000e+01,3.596895965269752971e-02
5.803999999999999915e+01,4.069497959864130238e-02
5.807999999999999829e+01,3.743422887721731263e-02
5.811999999999999744e+01,4.200051287804444644e-02
5.815999999999999659e+01,3.953843988373408058e-02
5.820000000000000284e+01,3.100642293519849033e-02
5.824000000000000199e+01,3.062091340606655498e-02
5.828000000000000114e+01,3.678455791166651556e-02
5.832000000000000028e+01,3.815614356978773436e-02
5.835999999999999943e+01,4.304191189489623565e-02
5.839999999999999858e+01,4.553165365914734614e-02
5.843999999999999773e+01,3.763859941390934605e-02
5.847999999999999687e+01,3.677390856479117315e-02
5.852000000000000313e+01,3.622869487595307275e-02
5.856000000000000227e+01,4.047555022348520160e-02
5.860000000000000142e+01,3.721484931558297071e-02
5.864000000000000057e+01,3.906568950988526662e-02
5.867999999999999972e+01,4.251389260253237573e-02
5.871999999999999886e+01,3.717665812090770183e-02
5.875999999999999801e+01,3.870805605303109798e-02
5.879999999999999716e+01,3.736422753268193314e-02
5.884000000000000341e+01,3.570093961676235744e-02
5.888000000000000256e+01,3.994787359895150131e-02
5.892000000000000171e+01,3.620805017145469623e-02
5.896000000000000085e+01,4.508733677186083089e-02
5.900000000000000000e+01,4.342410079963349157e-02
5.903999999999999915e+01,4.255955639961961356e-02
5.907999999999999829e+01,4.009767317915247098e-02
5.911999999999999744e+01,3.955263060472821723e-02
5.915999999999999659e+01,3.693104426769002607e-02
5.920000000000000284e+01,4.597015933686989658e-02
5.924000000000000199e+01,4.079284138454846581e-02
5.928000000000000114e+01,4.919305092026938359e-02
5.932000000000000028e+01,4.018212066514541964e-02
5.935999999999999943e+01,4.922131040547216008e-02
5.939999999999999858e+01,4.436354045276831581e-02
5.943999999999999773e+01,4.381864722063772560e-02
5.947999999999999687e+01,4.471139411161668270e-02
5.952000000000000313e+01,4.879887117461235296e-02
5.956000000000000227e+01,4.362171771622105204e-02
5.960000000000000142e+01,4.291717890527478596e-02
5.964000000000000057e+01,3.821927908834492349e-02
5.967999999999999972e+01,4.310552803266430588e-02
5.971999999999999886e+01,4.096344460325550274e-02
5.975999999999999801e+01,4.249530133856946335e-02
5.979999999999999716e+01,4.562453864913745827e-02
5.984000000000000341e+01,6.025475206541543866e-02
5.988000000000000256e+01,4.629235641737335788e-02
5.992000000000000171e+01,5.069956040643452955e-02
5.996000000000000085e+01,5.015499603046350702e-02
