5.0400,-0.241
5.0800,0.088
5.1200,0.029
5.1600,-0.127
5.2000,0.202
5.2400,-0.069
5.2800,0.175
5.3200,0.068
5.3600,-0.042
5.4000,0.009
5.4400,-0.011
5.4800,-0.074
5.5200,0.133
5.5600,-0.081
5.6000,0.076
5.6400,0.079
5.6800,-0.211
5.7200,0.006
5.7600,0.183
5.8000,0.133
5.8400,0.023
5.8800,-0.107
5.9200,-0.086
5.9600,-0.180
6.0000,0.078
6.0400,-0.027
6.0800,0.015
6.1200,0.025
6.1600,0.041
6.2000,0.163
6.2400,-0.126
6.2800,0.011
6.3200,-0.101
6.3600,-0.165
6.4000,0.100
6.4400,-0.062
6.4800,-0.087
6.5200,-0.013
6.5600,0.044
6.6000,0.112
6.6400,-0.005
6.6800,0.012
6.7200,0.065
6.7600,-0.072
6.8000,-0.100
6.8400,0.064
6.8800,-0.048
6.9200,0.041
6.9600,-0.002
7.0000,0.051
7.0400,0.155
7.0800,0.028
7.1200,0.131
7.1600,-0.062
7.2000,-0.055
7.2400,-0.053
7.2800,0.124
7.3200,-0.149
7.3600,-0.020
7.4000,-0.007
7.4400,-0.073
7.4800,-0.068
7.5200,0.008
7.5600,0.013
7.6000,-0.144
7.6400,0.046
7.6800,0.063
7.7200,0.254
7.7600,0.136
7.8000,0.061
7.8400,-0.098
7.8800,-0.069
7.9200,0.014
7.9600,-0.012
8.0000,0.045
8.0400,0.147
8.0800,-0.012
8.1200,-0.007
8.1600,-0.061
8.2000,0.133
8.2400,-0.199
8.2800,0.136
8.3200,-0.009
8.3600,0.058
8.4000,-0.003
8.4400,0.086
8.4800,0.024
8.5200,-0.013
8.5600,0.018
8.6000,-0.084
8.6400,-0.096
8.6800,0.050
8.7200,0.176
8.7600,-0.073
8.8000,-0.016
8.8400,0.010
8.8800,0.043
8.9200,-0.014
8.9600,-0.220
9.0000,0.089
9.0400,-0.069
9.0800,-0.039
9.1200,0.019
9.1600,0.071
9.2000,0.018
9.2400,-0.048
9.2800,0.045
9.3200,-0.037
9.3600,-0.107
9.4000,0.031
9.4400,0.129
9.4800,-0.002
9.5200,0.095
9.5600,-0.016
9.6000,0.019
9.6400,-0.071
9.6800,0.031
9.7200,0.010
9.7600,0.065
9.8000,-0.186
9.8400,0.068
9.8800,-0.062
9.9200,-0.009
9.9600,0.048
10.0000,-0.141
10.0400,0.038
10.0800,-0.025
10.1200,0.181
10.1600,-0.078
10.2000,0.004
10.2400,-0.241
10.2800,0.042
10.3200,0.086
10.3600,0.068
10.4000,-0.081
10.4400,-0.003
10.4800,0.152
10.5200,-0.118
10.5600,-0.094
10.6000,0.055
10.6400,-0.122
10.6800,0.159
10.7200,0.051
10.7600,-0.120
10.8000,0.126
10.8400,-0.134
10.8800,-0.008
10.9200,-0.009
10.9600,-0.018
11.0000,0.090
11.0400,0.089
11.0800,0.021
11.1200,-0.028
11.1600,-0.018
11.2000,0.018
11.2400,0.010
11.2800,-0.093
11.3200,-0.070
11.3600,-0.072
11.4000,-0.025
11.4400,-0.041
11.4800,0.033
11.5200,-0.009
11.5600,0.002
11.6000,0.181
11.6400,-0.059
11.6800,0.041
11.7200,-0.124
11.7600,0.030
11.8000,0.068
11.8400,0.180
11.8800,-0.099
11.9200,-0.092
11.9600,-0.037
12.0000,-0.068
12.0400,0.054
12.0800,0.150
12.1200,-0.108
12.1600,0.065
12.2000,0.050
12.2400,0.027
12.2800,-0.053
12.3200,0.032
12.3600,-0.033
12.4000,0.076
12.4400,0.032
12.4800,0.176
12.5200,0.164
12.5600,-0.113
12.6000,-0.009
12.6400,0.030
12.6800,0.036
12.7200,0.056
12.7600,-0.119
12.8000,-0.060
12.8400,-0.050
12.8800,-0.060
12.9200,-0.032
12.9600,-0.016
13.0000,-0.063
13.0400,-0.072
13.0800,0.038
13.1200,-0.067
13.1600,-0.019
13.2000,0.248
13.2400,-0.013
13.2800,-0.143
13.3200,0.170
13.3600,0.032
13.4000,0.021
13.4400,-0.021
13.4800,-0.080
13.5200,-0.019
13.5600,-0.017
13.6000,-0.089
13.6400,0.002
13.6800,0.102
13.7200,-0.083
13.7600,0.028
13.8000,-0.019
13.8400,-0.019
13.8800,-0.036
13.9200,0.252
13.9600,0.003
14.0000,-0.057
14.0400,0.056
14.0800,-0.025
14.1200,0.016
14.1600,0.049
14.2000,-0.091
14.2400,0.078
14.2800,-0.128
14.3200,-0.062
14.3600,-0.032
14.4000,-0.006
14.4400,0.057
14.4800,0.120
14.5200,0.117
14.5600,0.051
14.6000,-0.035
14.6400,-0.046
14.6800,-0.014
14.7200,-0.088
14.7600,0.000
14.8000,0.108
14.8400,-0.026
14.8800,-0.139
14.9200,0.018
14.9600,-0.093
15.0000,0.004
15.0400,0.210
15.0800,0.213
15.1200,0.103
15.1600,0.096
15.2000,0.202
15.2400,0.134
15.2800,0.110
15.3200,-0.031
15.3600,0.067
15.4000,0.156
15.4400,-0.073
15.4800,-0.140
15.5200,0.092
15.5600,-0.168
15.6000,-0.023
15.6400,0.005
15.6800,0.062
15.7200,0.026
15.7600,0.068
15.8000,0.049
15.8400,-0.009
15.8800,-0.062
15.9200,0.017
15.9600,-0.061
16.0000,0.050
16.0400,-0.113
16.0800,-0.005
16.1200,0.005
16.1600,-0.065
16.2000,0.078
16.2400,0.003
16.2800,-0.075
16.3200,-0.127
16.3600,0.068
16.4000,-0.106
16.4400,0.104
16.4800,0.045
16.5200,0.021
16.5600,-0.005
16.6000,-0.078
16.6400,0.073
16.6800,0.059
16.7200,0.002
16.7600,0.066
16.8000,0.056
16.8400,-0.063
16.8800,0.055
16.9200,0.246
16.9600,0.121
17.0000,-0.009
17.0400,0.059
17.0800,0.200
17.1200,0.247
17.1600,0.129
17.2000,0.044
17.2400,0.089
17.2800,-0.007
17.3200,-0.145
17.3600,0.000
17.4000,0.042
17.4400,-0.158
17.4800,-0.011
17.5200,0.004
17.5600,0.063
17.6000,0.046
17.6400,0.003
17.6800,0.011
17.7200,0.050
17.7600,0.041
17.8000,0.115
17.8400,0.099
17.8800,-0.209
17.9200,0.040
17.9600,0.070
18.0000,-0.144
18.0400,-0.007
18.0800,-0.003
18.1200,-0.070
18.1600,-0.058
18.2000,0.014
18.2400,0.063
18.2800,-0.002
18.3200,0.061
18.3600,0.153
18.4000,0.001
18.4400,0.044
18.4800,-0.098
18.5200,0.074
18.5600,-0.083
18.6000,-0.081
18.6400,-0.071
18.6800,0.004
18.7200,0.079
18.7600,-0.003
18.8000,-0.041
18.8400,0.140
18.8800,0.087
18.9200,-0.056
18.9600,0.026
19.0000,-0.021
19.0400,-0.091
19.0800,0.053
19.1200,0.104
19.1600,-0.076
19.2000,-0.082
19.2400,-0.054
19.2800,-0.003
19.3200,0.112
19.3600,-0.104
19.4000,0.206
19.4400,0.075
19.4800,0.006
19.5200,-0.106
19.5600,-0.004
19.6000,-0.056
19.6400,-0.012
19.6800,0.095
19.7200,-0.081
19.7600,-0.007
19.8000,-0.042
19.8400,-0.034
19.8800,0.154
19.9200,0.002
19.9600,-0.137
20.0000,0.071
20.0400,-0.002
20.0800,0.108
20.1200,-0.099
20.1600,-0.081
20.2000,-0.079
20.2400,-0.034
20.2800,0.001
20.3200,-0.017
20.3600,0.110
20.4000,-0.056
20.4400,-0.081
20.4800,0.027
20.5200,0.002
20.5600,0.001
20.6000,0.057
20.6400,-0.014
20.6800,-0.075
20.7200,0.014
20.7600,-0.028
20.8000,0.009
20.8400,-0.103
20.8800,-0.007
20.9200,0.030
20.9600,-0.084
21.0000,0.162
21.0400,-0.050
21.0800,0.053
21.1200,-0.084
21.1600,-0.055
21.2000,0.047
21.2400,0.004
21.2800,-0.061
21.3200,0.103
21.3600,-0.053
21.4000,-0.045
21.4400,-0.014
21.4800,-0.029
21.5200,-0.048
21.5600,0.068
21.6000,0.044
21.6400,-0.079
21.6800,-0.050
21.7200,-0.019
21.7600,0.036
21.8000,0.126
21.8400,-0.040
21.8800,-0.013
21.9200,-0.073
21.9600,-0.006
22.0000,-0.016
22.0400,0.047
22.0800,-0.042
22.1200,0.058
22.1600,-0.017
22.2000,0.062
22.2400,-0.066
22.2800,-0.066
22.3200,0.107
22.3600,-0.074
22.4000,-0.077
22.4400,0.051
22.4800,0.055
22.5200,-0.031
22.5600,0.051
22.6000,-0.015
22.6400,0.008
22.6800,0.108
22.7200,0.084
22.7600,0.049
22.8000,0.002
22.8400,0.024
22.8800,-0.067
22.9200,0.024
22.9600,-0.012
23.0000,0.024
23.0400,-0.036
23.0800,0.001
23.1200,-0.121
23.1600,-0.001
23.2000,0.040
23.2400,-0.053
23.2800,0.068
23.3200,0.071
23.3600,-0.002
23.4000,0.027
23.4400,0.003
23.4800,-0.054
23.5200,0.167
23.5600,0.019
23.6000,-0.026
23.6400,-0.075
23.6800,-0.001
23.7200,0.134
23.7600,0.036
23.8000,0.077
23.8400,-0.085
23.8800,-0.074
23.9200,0.051
23.9600,-0.017
24.0000,0.057
24.0400,0.110
24.0800,0.047
24.1200,0.111
24.1600,0.060
24.2000,0.175
24.2400,-0.013
24.2800,0.060
24.3200,-0.015
24.3600,0.182
24.4000,-0.046
24.4400,-0.050
24.4800,0.006
24.5200,-0.103
24.5600,-0.005
24.6000,-0.008
24.6400,-0.025
24.6800,0.036
24.7200,0.005
24.7600,0.041
24.8000,-0.021
24.8400,0.076
24.8800,0.095
24.9200,0.065
24.9600,0.137
25.0000,0.134
25.0400,0.063
25.0800,0.106
25.1200,-0.054
25.1600,-0.041
25.2000,0.278
25.2400,0.059
25.2800,-0.098
25.3200,-0.070
25.3600,0.050
25.4000,0.066
25.4400,0.059
25.4800,0.087
25.5200,-0.070
25.5600,0.054
25.6000,0.179
25.6400,0.009
25.6800,-0.056
25.7200,0.203
25.7600,0.038
25.8000,0.120
25.8400,0.168
25.8800,-0.053
25.9200,-0.039
25.9600,0.033
26.0000,-0.049
26.0400,0.034
26.0800,-0.001
26.1200,-0.019
26.1600,-0.068
26.2000,0.049
26.2400,0.049
26.2800,0.055
26.3200,0.019
26.3600,0.092
26.4000,-0.025
26.4400,0.043
26.4800,0.015
26.5200,0.072
26.5600,0.004
26.6000,-0.115
26.6400,-0.007
26.6800,0.003
26.7200,0.028
26.7600,0.040
26.8000,-0.048
26.8400,0.054
26.8800,0.040
26.9200,-0.024
26.9600,-0.065
27.0000,0.092
27.0400,-0.023
27.0800,-0.019
27.1200,-0.004
27.1600,-0.014
27.2000,-0.071
27.2400,-0.064
27.2800,-0.007
27.3200,0.002
27.3600,-0.036
27.4000,0.005
27.4400,-0.019
27.4800,-0.075
27.5200,0.037
27.5600,-0.023
27.6000,0.005
27.6400,0.010
27.6800,0.065
27.7200,-0.073
27.7600,-0.068
27.8000,-0.040
27.8400,-0.031
27.8800,0.082
27.9200,0.101
27.9600,0.007
28.0000,-0.063
28.0400,0.079
28.0800,0.068
28.1200,0.126
28.1600,-0.099
28.2000,0.018
28.2400,0.082
28.2800,0.066
28.3200,-0.012
28.3600,0.033
28.4000,-0.024
28.4400,0.029
28.4800,-0.194
28.5200,-0.032
28.5600,-0.044
28.6000,0.013
28.6400,0.077
28.6800,0.193
28.7200,0.005
28.7600,0.021
28.8000,-0.019
28.8400,0.041
28.8800,0.087
28.9200,0.040
28.9600,0.019
29.0000,-0.011
29.0400,-0.020
29.0800,0.185
29.1200,0.050
29.1600,-0.066
29.2000,0.050
29.2400,-0.074
29.2800,-0.057
29.3200,0.052
29.3600,0.031
29.4000,-0.062
29.4400,0.161
29.4800,0.024
29.5200,-0.113
29.5600,0.091
29.6000,0.059
29.6400,0.097
29.6800,-0.001
29.7200,0.105
29.7600,0.116
29.8000,0.041
29.8400,-0.010
29.8800,0.014
29.9200,-0.015
29.9600,0.044
30.0000,-0.015
30.0400,0.012
30.0800,-0.041
30.1200,-0.084
30.1600,0.078
30.2000,-0.134
30.2400,-0.065
30.2800,0.032
30.3200,-0.020
30.3600,-0.125
30.4000,0.041
30.4400,-0.107
30.4800,0.002
30.5200,-0.067
30.5600,-0.009
30.6000,0.007
30.6400,-0.150
30.6800,0.030
30.7200,-0.067
30.7600,-0.055
30.8000,0.087
30.8400,-0.054
30.8800,-0.032
30.9200,0.015
30.9600,0.030
31.0000,-0.109
31.0400,0.048
31.0800,-0.080
31.1200,-0.018
31.1600,-0.094
31.2000,0.075
31.2400,-0.056
31.2800,-0.048
31.3200,0.099
31.3600,-0.037
31.4000,0.084
31.4400,0.048
31.4800,-0.053
31.5200,-0.045
31.5600,-0.055
31.6000,-0.055
31.6400,0.017
31.6800,0.020
31.7200,-0.039
31.7600,-0.069
31.8000,0.034
31.8400,0.125
31.8800,0.009
31.9200,-0.080
31.9600,-0.008
32.0000,0.167
32.0400,0.089
32.0800,-0.033
32.1200,0.014
32.1600,-0.057
32.2000,0.141
32.2400,-0.019
32.2800,0.136
32.3200,-0.077
32.3600,0.045
32.4000,0.044
32.4400,-0.116
32.4800,0.036
32.5200,0.046
32.5600,0.021
32.6000,-0.079
32.6400,-0.022
32.6800,-0.001
32.7200,0.121
32.7600,0.110
32.8000,0.084
32.8400,-0.030
32.8800,0.077
32.9200,0.061
32.9600,0.047
33.0000,-0.030
33.0400,0.041
33.0800,-0.036
33.1200,0.031
33.1600,-0.045
33.2000,0.116
33.2400,-0.018
33.2800,0.134
33.3200,0.093
33.3600,0.017
33.4000,0.007
33.4400,0.080
33.4800,-0.090
33.5200,0.138
33.5600,-0.063
33.6000,-0.062
33.6400,0.036
33.6800,0.044
33.7200,0.078
33.7600,0.008
33.8000,0.082
33.8400,0.070
33.8800,-0.040
33.9200,0.040
33.9600,0.070
34.0000,-0.034
34.0400,0.001
34.0800,0.091
34.1200,-0.004
34.1600,-0.074
34.2000,0.007
34.2400,0.098
34.2800,-0.009
34.3200,0.012
34.3600,0.062
34.4000,0.080
34.4400,0.114
34.4800,0.004
34.5200,-0.097
34.5600,-0.005
34.6000,0.060
34.6400,0.108
34.6800,0.059
34.7200,0.005
34.7600,-0.074
34.8000,0.119
34.8400,0.049
34.8800,0.067
34.9200,0.068
34.9600,0.007
35.0000,0.034
35.0400,0.026
35.0800,0.001
35.1200,-0.069
35.1600,0.030
35.2000,0.018
35.2400,-0.022
35.2800,0.020
35.3200,0.085
35.3600,-0.063
35.4000,-0.021
35.4400,-0.063
35.4800,0.010
35.5200,0.021
35.5600,0.090
35.6000,-0.014
35.6400,-0.012
35.6800,0.030
35.7200,-0.022
35.7600,-0.021
35.8000,0.060
35.8400,0.039
35.8800,0.038
35.9200,0.035
35.9600,0.060
36.0000,0.051
36.0400,-0.105
36.0800,-0.024
36.1200,0.075
36.1600,0.017
36.2000,-0.101
36.2400,0.048
36.2800,0.074
36.3200,-0.052
36.3600,0.010
36.4000,0.061
36.4400,-0.028
36.4800,0.101
36.5200,0.098
36.5600,-0.021
36.6000,-0.116
36.6400,0.013
36.6800,0.028
36.7200,-0.065
36.7600,-0.027
36.8000,-0.002
36.8400,0.052
36.8800,0.009
36.9200,-0.133
36.9600,0.035
37.0000,-0.048
37.0400,0.010
37.0800,0.007
37.1200,0.005
37.1600,0.098
37.2000,0.069
37.2400,0.073
37.2800,0.202
37.3200,0.192
37.3600,0.113
37.4000,0.289
37.4400,0.265
37.4800,0.398
37.5200,0.385
37.5600,0.478
37.6000,0.544
37.6400,0.778
37.6800,0.767
37.7200,0.947
37.7600,1.281
37.8000,1.570
37.8400,1.844
37.8800,2.301
37.9200,3.019
37.9600,4.335
38.0000,5.743
38.0400,8.167
38.0800,11.964
38.1200,17.052
38.1600,23.970
38.2000,29.133
38.2400,30.868
38.2800,28.535
38.3200,24.180
38.3600,18.699
38.4000,13.152
38.4400,9.397
38.4800,6.451
38.5200,4.543
38.5600,3.557
38.6000,2.730
38.6400,2.280
38.6800,1.723
38.7200,1.433
38.7600,1.204
38.8000,1.068
38.8400,0.740
38.8800,0.693
38.9200,0.472
38.9600,0.551
39.0000,0.354
39.0400,0.304
39.0800,0.299
39.1200,0.230
39.1600,0.128
39.2000,0.161
39.2400,0.139
39.2800,0.137
39.3200,-0.004
39.3600,0.079
39.4000,0.148
39.4400,0.130
39.4800,0.030
39.5200,0.005
39.5600,0.049
39.6000,0.041
39.6400,0.070
39.6800,-0.039
39.7200,-0.055
39.7600,-0.077
39.8000,0.054
39.8400,0.009
39.8800,0.083
39.9200,-0.051
39.9600,0.033
40.0000,0.057
40.0400,0.011
40.0800,-0.058
40.1200,-0.033
40.1600,0.147
40.2000,-0.038
40.2400,0.059
40.2800,-0.055
40.3200,-0.011
40.3600,-0.057
40.4000,0.000
40.4400,0.015
40.4800,-0.011
40.5200,0.031
40.5600,0.095
40.6000,-0.004
40.6400,0.050
40.6800,0.144
40.7200,-0.031
40.7600,-0.043
40.8000,0.000
40.8400,-0.056
40.8800,-0.023
40.9200,0.023
40.9600,-0.056
41.0000,-0.027
41.0400,0.062
41.0800,-0.077
41.1200,0.013
41.1600,-0.009
41.2000,0.050
41.2400,0.013
41.2800,-0.070
41.3200,0.023
41.3600,0.095
41.4000,0.044
41.4400,0.017
41.4800,0.066
41.5200,0.057
41.5600,0.059
41.6000,-0.033
41.6400,0.028
41.6800,0.015
41.7200,0.034
41.7600,0.028
41.8000,0.116
41.8400,0.133
41.8800,-0.044
41.9200,-0.054
41.9600,0.008
42.0000,0.113
42.0400,0.052
42.0800,0.009
42.1200,0.084
42.1600,-0.060
42.2000,-0.026
42.2400,-0.015
42.2800,-0.022
42.3200,-0.050
42.3600,-0.046
42.4000,-0.031
42.4400,-0.049
42.4800,-0.013
42.5200,-0.181
42.5600,0.052
42.6000,0.026
42.6400,0.027
42.6800,-0.061
42.7200,0.027
42.7600,0.071
42.8000,0.024
42.8400,0.020
42.8800,-0.007
42.9200,0.012
42.9600,-0.069
43.0000,-0.021
43.0400,0.021
43.0800,0.103
43.1200,0.060
43.1600,0.060
43.2000,0.034
43.2400,0.029
43.2800,-0.017
43.3200,0.052
43.3600,0.051
43.4000,-0.013
43.4400,0.017
43.4800,0.163
43.5200,0.071
43.5600,0.071
43.6000,0.119
43.6400,0.199
43.6800,0.216
43.7200,0.213
43.7600,0.274
43.8000,0.342
43.8400,0.377
43.8800,0.494
43.9200,0.623
43.9600,0.492
44.0000,0.810
44.0400,0.941
44.0800,1.295
44.1200,1.419
44.1600,1.766
44.2000,2.056
44.2400,2.624
44.2800,3.356
44.3200,4.204
44.3600,4.453
44.4000,5.212
44.4400,5.898
44.4800,5.652
44.5200,5.493
44.5600,5.065
44.6000,4.441
44.6400,3.863
44.6800,3.141
44.7200,2.526
44.7600,1.980
44.8000,1.458
44.8400,1.067
44.8800,0.920
44.9200,0.912
44.9600,0.719
45.0000,0.441
45.0400,0.511
45.0800,0.273
45.1200,0.300
45.1600,0.228
45.2000,0.227
45.2400,0.234
45.2800,0.122
45.3200,0.144
45.3600,0.076
45.4000,0.008
45.4400,-0.039
45.4800,-0.032
45.5200,0.005
45.5600,-0.020
45.6000,-0.041
45.6400,0.045
45.6800,0.025
45.7200,-0.007
45.7600,-0.106
45.8000,0.007
45.8400,0.070
45.8800,0.106
45.9200,-0.015
45.9600,0.016
46.0000,-0.067
46.0400,-0.017
46.0800,0.014
46.1200,0.057
46.1600,-0.059
46.2000,-0.049
46.2400,0.020
46.2800,0.084
46.3200,0.027
46.3600,-0.018
46.4000,-0.056
46.4400,0.025
46.4800,-0.062
46.5200,0.081
46.5600,0.143
46.6000,-0.030
46.6400,-0.069
46.6800,0.016
46.7200,0.121
46.7600,0.013
46.8000,0.047
46.8400,-0.060
46.8800,0.006
46.9200,0.026
46.9600,0.055
47.0000,0.020
47.0400,0.048
47.0800,0.024
47.1200,-0.042
47.1600,-0.001
47.2000,0.016
47.2400,-0.033
47.2800,0.005
47.3200,-0.048
47.3600,-0.013
47.4000,-0.045
47.4400,0.025
47.4800,0.068
47.5200,-0.036
47.5600,0.066
47.6000,-0.007
47.6400,0.022
47.6800,-0.047
47.7200,0.007
47.7600,-0.010
47.8000,-0.024
47.8400,-0.047
47.8800,-0.114
47.9200,0.087
47.9600,-0.028
48.0000,0.010
48.0400,0.112
48.0800,0.046
48.1200,-0.005
48.1600,-0.047
48.2000,0.001
48.2400,-0.024
48.2800,0.107
48.3200,0.073
48.3600,-0.019
48.4000,-0.046
48.4400,-0.003
48.4800,-0.046
48.5200,-0.009
48.5600,-0.026
48.6000,0.072
48.6400,0.029
48.6800,-0.038
48.7200,-0.022
48.7600,0.020
48.8000,0.033
48.8400,0.099
48.8800,0.112
48.9200,-0.025
48.9600,0.009
49.0000,-0.030
49.0400,-0.040
49.0800,-0.007
49.1200,0.041
49.1600,-0.004
49.2000,0.018
49.2400,0.034
49.2800,0.058
49.3200,0.012
49.3600,0.008
49.4000,-0.048
49.4400,-0.009
49.4800,0.035
49.5200,-0.018
49.5600,0.014
49.6000,0.023
49.6400,0.012
49.6800,0.079
49.7200,0.012
49.7600,0.067
49.8000,0.011
49.8400,-0.083
49.8800,-0.016
49.9200,0.068
49.9600,0.080
50.0000,0.034
50.0400,0.078
50.0800,-0.021
50.1200,0.060
50.1600,0.011
50.2000,-0.018
50.2400,-0.011
50.2800,0.053
50.3200,-0.010
50.3600,-0.048
50.4000,0.149
50.4400,-0.020
50.4800,-0.044
50.5200,0.017
50.5600,0.019
50.6000,-0.008
50.6400,0.016
50.6800,0.014
50.7200,-0.044
50.7600,-0.015
50.8000,-0.001
50.8400,0.002
50.8800,0.085
50.9200,-0.006
50.9600,-0.014
51.0000,-0.001
51.0400,0.084
51.0800,0.067
51.1200,-0.012
51.1600,0.023
51.2000,-0.050
51.2400,0.000
51.2800,-0.019
51.3200,0.043
51.3600,-0.021
51.4000,-0.044
51.4400,-0.019
51.4800,-0.083
51.5200,0.092
51.5600,-0.022
51.6000,0.066
51.6400,0.019
51.6800,0.061
51.7200,0.010
51.7600,-0.009
51.8000,0.003
51.8400,-0.043
51.8800,-0.011
51.9200,0.051
51.9600,-0.037
52.0000,-0.023
52.0400,0.059
52.0800,-0.034
52.1200,-0.002
52.1600,-0.005
52.2000,-0.005
52.2400,0.003
52.2800,0.049
52.3200,-0.032
52.3600,-0.043
52.4000,0.024
52.4400,0.012
52.4800,0.003
52.5200,-0.028
52.5600,0.014
52.6000,-0.003
52.6400,-0.051
52.6800,0.002
52.7200,0.024
52.7600,0.023
52.8000,0.007
52.8400,-0.040
52.8800,-0.041
52.9200,0.000
52.9600,-0.005
53.0000,-0.038
53.0400,-0.042
53.0800,0.015
53.1200,-0.023
53.1600,-0.030
53.2000,0.010
53.2400,-0.052
53.2800,-0.010
53.3200,0.042
53.3600,-0.050
53.4000,0.019
53.4400,0.038
53.4800,0.021
53.5200,0.053
53.5600,-0.059
53.6000,0.023
53.6400,-0.009
53.6800,-0.043
53.7200,0.005
53.7600,0.090
53.8000,0.042
53.8400,-0.024
53.8800,-0.037
53.9200,-0.026
53.9600,-0.094
54.0000,0.052
54.0400,0.030
54.0800,-0.018
54.1200,0.009
54.1600,0.005
54.2000,0.024
54.2400,-0.037
54.2800,-0.042
54.3200,0.024
54.3600,-0.036
54.4000,-0.032
54.4400,0.007
54.4800,0.054
54.5200,-0.052
54.5600,-0.047
54.6000,0.051
54.6400,-0.004
54.6800,-0.028
54.7200,-0.034
54.7600,0.047
54.8000,-0.025
54.8400,0.010
54.8800,-0.010
54.9200,-0.041
54.9600,0.004
55.0000,-0.028
55.0400,0.056
55.0800,-0.013
55.1200,-0.029
55.1600,0.039
55.2000,-0.039
55.2400,0.017
55.2800,-0.016
55.3200,0.079
55.3600,0.047
55.4000,-0.015
55.4400,0.004
55.4800,-0.034
55.5200,-0.013
55.5600,-0.028
55.6000,0.011
55.6400,0.081
55.6800,0.038
55.7200,0.014
55.7600,0.055
55.8000,0.009
55.8400,0.006
55.8800,-0.056
55.9200,-0.010
55.9600,0.051
56.0000,0.026
56.0400,0.041
56.0800,0.059
56.1200,0.009
56.1600,-0.004
56.2000,-0.044
56.2400,0.000
56.2800,0.014
56.3200,0.004
56.3600,0.029
56.4000,0.044
56.4400,0.007
56.4800,0.008
56.5200,-0.037
56.5600,-0.021
56.6000,0.020
56.6400,0.057
56.6800,-0.024
56.7200,0.034
56.7600,0.036
56.8000,0.005
56.8400,-0.058
56.8800,-0.004
56.9200,-0.051
56.9600,0.065
57.0000,0.035
57.0400,-0.073
57.0800,0.042
57.1200,0.047
57.1600,-0.007
57.2000,0.000
57.2400,0.006
57.2800,0.029
57.3200,-0.007
57.3600,-0.041
57.4000,-0.033
57.4400,-0.026
57.4800,-0.023
57.5200,-0.045
57.5600,0.083
57.6000,0.008
57.6400,0.062
57.6800,0.003
57.7200,-0.002
57.7600,-0.045
57.8000,-0.001
57.8400,-0.009
57.8800,-0.014
57.9200,0.047
57.9600,-0.063
58.0000,-0.013
58.0400,-0.019
58.0800,0.016
58.1200,-0.046
58.1600,0.004
58.2000,-0.008
58.2400,-0.040
58.2800,-0.008
58.3200,-0.020
58.3600,-0.024
58.4000,-0.018
58.4400,-0.040
58.4800,-0.018
58.5200,0.074
58.5600,-0.017
58.6000,-0.075
58.6400,0.049
58.6800,-0.007
58.7200,0.028
58.7600,-0.003
58.8000,-0.040
58.8400,0.005
58.8800,-0.001
58.9200,-0.022
58.9600,0.026
59.0000,-0.061
59.0400,-0.025
59.0800,0.021
59.1200,-0.017
59.1600,0.022
59.2000,-0.051
59.2400,0.118
59.2800,-0.036
59.3200,-0.037
59.3600,-0.039
59.4000,-0.001
59.4400,-0.039
59.4800,-0.024
59.5200,-0.046
59.5600,0.026
59.6000,0.021
59.6400,-0.095
59.6800,0.104
59.7200,0.013
59.7600,0.062
59.8000,-0.013
59.8400,0.027
59.8800,-0.008
59.9200,0.003
59.9600,-0.060
60.0000,0.021
60.0400,0.005
60.0800,-0.039
60.1200,-0.027
60.1600,0.004
60.2000,-0.009
60.2400,-0.106
60.2800,0.033
60.3200,-0.011
60.3600,0.013
60.4000,0.001
60.4400,0.012
60.4800,0.031
60.5200,0.036
60.5600,0.053
60.6000,-0.063
60.6400,-0.038
60.6800,0.023
60.7200,0.003
60.7600,-0.012
60.8000,-0.001
60.8400,0.005
60.8800,0.050
60.9200,-0.023
60.9600,0.038
61.0000,0.043
61.0400,0.062
61.0800,-0.013
61.1200,-0.048
61.1600,0.007
61.2000,0.064
61.2400,0.040
61.2800,-0.007
61.3200,-0.085
61.3600,0.051
61.4000,0.017
61.4400,-0.027
61.4800,-0.038
61.5200,0.021
61.5600,-0.005
61.6000,0.119
61.6400,0.069
61.6800,0.083
61.7200,0.060
61.7600,0.025
61.8000,-0.048
61.8400,0.007
61.8800,0.025
61.9200,-0.034
61.9600,0.048
62.0000,0.000
62.0400,-0.038
62.0800,0.022
62.1200,0.004
62.1600,-0.038
62.2000,-0.006
62.2400,0.049
62.2800,0.046
62.3200,0.021
62.3600,0.002
62.4000,0.024
62.4400,-0.056
62.4800,-0.021
62.5200,0.018
62.5600,-0.079
62.6000,0.004
62.6400,-0.038
62.6800,-0.011
62.7200,-0.033
62.7600,-0.013
62.8000,-0.018
62.8400,-0.017
62.8800,0.046
62.9200,-0.006
62.9600,-0.036
63.0000,-0.001
63.0400,0.036
63.0800,0.000
63.1200,-0.039
63.1600,-0.043
63.2000,0.036
63.2400,0.030
63.2800,0.006
63.3200,0.050
63.3600,-0.023
63.4000,-0.025
63.4400,-0.012
63.4800,-0.042
63.5200,0.010
63.5600,0.005
63.6000,0.010
63.6400,0.065
63.6800,-0.020
63.7200,0.049
63.7600,0.015
63.8000,-0.071
63.8400,0.031
63.8800,0.038
63.9200,0.001
63.9600,0.088
64.0000,0.104
64.0400,0.092
64.0800,0.212
64.1200,0.222
64.1600,0.217
64.2000,0.191
64.2400,0.342
64.2800,0.420
64.3200,0.573
64.3600,0.742
64.4000,1.082
64.4400,1.255
64.4800,1.693
64.5200,2.075
64.5600,2.559
64.6000,3.040
64.6400,3.311
64.6800,3.362
64.7200,3.224
64.7600,2.848
64.8000,2.684
64.8400,2.319
64.8800,2.036
64.9200,1.601
64.9600,1.387
65.0000,0.943
65.0400,0.718
65.0800,0.573
65.1200,0.363
65.1600,0.326
65.2000,0.329
65.2400,0.126
65.2800,0.084
65.3200,0.131
65.3600,0.184
65.4000,0.027
65.4400,0.056
65.4800,0.039
65.5200,0.076
65.5600,0.059
65.6000,-0.004
65.6400,0.074
65.6800,0.004
65.7200,-0.049
65.7600,-0.006
65.8000,0.008
65.8400,0.059
65.8800,0.049
65.9200,0.060
65.9600,-0.043
66.0000,-0.003
66.0400,-0.040
66.0800,-0.022
66.1200,-0.043
66.1600,-0.029
66.2000,-0.016
66.2400,-0.043
66.2800,-0.032
66.3200,0.049
66.3600,-0.022
66.4000,0.072
66.4400,-0.047
66.4800,-0.025
66.5200,0.007
66.5600,-0.021
66.6000,0.004
66.6400,-0.096
66.6800,0.066
66.7200,0.028
66.7600,-0.047
66.8000,-0.045
66.8400,-0.037
66.8800,-0.008
66.9200,-0.046
66.9600,-0.029
67.0000,-0.074
67.0400,0.027
67.0800,-0.075
67.1200,0.043
67.1600,0.003
67.2000,-0.043
67.2400,-0.019
67.2800,-0.015
67.3200,-0.091
67.3600,0.017
67.4000,-0.065
67.4400,-0.016
67.4800,-0.041
67.5200,-0.042
67.5600,0.041
67.6000,0.015
67.6400,0.061
67.6800,0.034
67.7200,0.086
67.7600,0.053
67.8000,0.171
67.8400,0.166
67.8800,0.207
67.9200,0.193
67.9600,0.112
68.0000,0.107
68.0400,0.246
68.0800,0.306
68.1200,0.262
68.1600,0.401
68.2000,0.384
68.2400,0.434
68.2800,0.507
68.3200,0.575
68.3600,0.492
68.4000,0.621
68.4400,0.708
68.4800,0.804
68.5200,0.856
68.5600,0.990
68.6000,1.261
68.6400,1.368
68.6800,1.756
68.7200,2.584
68.7600,3.608
68.8000,4.653
68.8400,5.079
68.8800,5.057
68.9200,5.814
68.9600,7.787
69.0000,12.950
69.0400,27.397
69.0800,106.467
69.1200,360.772
69.1600,373.898
69.2000,126.198
69.2400,42.550
69.2800,73.110
69.3200,191.425
69.3600,185.519
69.4000,61.307
69.4400,17.697
69.4800,9.064
69.5200,5.856
69.5600,4.258
69.6000,3.565
69.6400,2.826
69.6800,2.426
69.7200,2.028
69.7600,1.752
69.8000,1.544
69.8400,1.385
69.8800,1.287
69.9200,0.901
69.9600,0.943
70.0000,0.959
70.0400,0.816
70.0800,0.650
70.1200,0.793
70.1600,0.507
70.2000,0.542
70.2400,0.526
70.2800,0.530
70.3200,0.386
70.3600,0.343
70.4000,0.322
70.4400,0.312
70.4800,0.246
70.5200,0.225
70.5600,0.149
70.6000,0.170
70.6400,0.143
70.6800,0.065
70.7200,0.101
70.7600,0.101
70.8000,0.151
70.8400,0.119
70.8800,0.099
70.9200,0.000
70.9600,0.082
71.0000,0.051
71.0400,0.042
71.0800,0.093
71.1200,0.014
71.1600,0.023
71.2000,0.124
71.2400,-0.030
71.2800,-0.036
71.3200,-0.032
71.3600,-0.045
71.4000,-0.039
71.4400,0.008
71.4800,-0.007
71.5200,-0.068
71.5600,0.006
71.6000,0.023
71.6400,0.060
71.6800,0.003
71.7200,-0.043
71.7600,-0.026
71.8000,-0.023
71.8400,-0.049
71.8800,0.026
71.9200,-0.069
71.9600,0.046
72.0000,0.017
72.0400,-0.109
72.0800,-0.015
72.1200,-0.031
72.1600,-0.020
72.2000,-0.040
72.2400,0.018
72.2800,0.051
72.3200,-0.016
72.3600,0.028
72.4000,-0.039
72.4400,-0.034
72.4800,-0.006
72.5200,0.024
72.5600,-0.050
72.6000,-0.002
72.6400,0.009
72.6800,0.009
72.7200,-0.035
72.7600,-0.016
72.8000,-0.082
72.8400,0.012
72.8800,0.008
72.9200,0.016
72.9600,0.013
73.0000,0.062
73.0400,0.019
73.0800,0.006
73.1200,0.014
73.1600,-0.035
73.2000,-0.031
73.2400,0.051
73.2800,0.027
73.3200,0.009
73.3600,-0.005
73.4000,0.042
73.4400,-0.009
73.4800,0.061
73.5200,0.003
73.5600,-0.004
73.6000,0.022
73.6400,0.055
73.6800,-0.015
73.7200,-0.034
73.7600,-0.007
73.8000,-0.021
73.8400,0.019
73.8800,0.011
73.9200,0.004
73.9600,0.043
74.0000,0.071
74.0400,0.005
74.0800,-0.009
74.1200,-0.039
74.1600,0.007
74.2000,-0.001
74.2400,0.008
74.2800,-0.001
74.3200,0.003
74.3600,0.034
74.4000,0.034
74.4400,-0.014
74.4800,-0.034
74.5200,-0.027
74.5600,0.016
74.6000,0.026
74.6400,-0.023
74.6800,-0.034
74.7200,0.002
74.7600,0.009
74.8000,-0.060
74.8400,0.008
74.8800,-0.036
74.9200,0.006
74.9600,-0.024
75.0000,-0.025
75.0400,-0.033
75.0800,-0.018
75.1200,-0.002
75.1600,0.055
75.2000,-0.018
75.2400,-0.002
75.2800,0.015
75.3200,-0.010
75.3600,-0.003
75.4000,0.006
75.4400,0.009
75.4800,-0.048
75.5200,0.016
75.5600,-0.032
75.6000,-0.031
75.6400,0.031
75.6800,0.013
75.7200,0.027
75.7600,0.007
75.8000,0.020
75.8400,0.040
75.8800,-0.025
75.9200,-0.051
75.9600,0.027
76.0000,0.051
76.0400,-0.006
76.0800,-0.039
76.1200,0.004
76.1600,0.027
76.2000,0.025
76.2400,0.027
76.2800,-0.016
76.3200,-0.084
76.3600,0.015
76.4000,0.058
76.4400,-0.018
76.4800,0.017
76.5200,0.066
76.5600,-0.021
76.6000,-0.019
76.6400,0.027
76.6800,-0.002
76.7200,-0.053
76.7600,-0.001
76.8000,0.039
76.8400,0.038
76.8800,0.079
76.9200,0.085
76.9600,0.161
77.0000,0.065
77.0400,0.150
77.0800,0.192
77.1200,0.221
77.1600,0.155
77.2000,0.370
77.2400,0.435
77.2800,0.401
77.3200,0.529
77.3600,0.749
77.4000,0.981
77.4400,1.325
77.4800,1.496
77.5200,1.842
77.5600,2.256
77.6000,2.600
77.6400,2.742
77.6800,2.656
77.7200,2.558
77.7600,2.394
77.8000,2.269
77.8400,1.954
77.8800,1.888
77.9200,1.775
77.9600,1.478
78.0000,1.231
78.0400,0.887
78.0800,0.704
78.1200,0.670
78.1600,0.444
78.2000,0.386
78.2400,0.258
78.2800,0.242
78.3200,0.152
78.3600,0.125
78.4000,0.115
78.4400,0.061
78.4800,0.042
78.5200,0.025
78.5600,0.063
78.6000,0.022
78.6400,-0.004
78.6800,-0.035
78.7200,-0.033
78.7600,-0.033
78.8000,-0.023
78.8400,0.012
78.8800,-0.043
78.9200,0.028
78.9600,0.001
79.0000,-0.033
79.0400,-0.031
79.0800,0.000
79.1200,-0.004
79.1600,0.007
79.2000,-0.022
79.2400,-0.032
79.2800,-0.026
79.3200,-0.031
79.3600,-0.024
79.4000,0.012
79.4400,0.015
79.4800,-0.031
79.5200,-0.022
79.5600,-0.025
79.6000,-0.023
79.6400,0.003
79.6800,-0.031
79.7200,-0.006
79.7600,-0.009
79.8000,0.026
79.8400,0.006
79.8800,-0.061
79.9200,0.031
79.9600,0.025
80.0000,-0.017
80.0400,-0.026
80.0800,-0.017
80.1200,0.008
80.1600,0.014
80.2000,-0.030
80.2400,-0.022
80.2800,0.024
80.3200,-0.018
80.3600,0.001
80.4000,-0.053
80.4400,0.016
80.4800,0.008
80.5200,-0.007
80.5600,-0.039
80.6000,0.006
80.6400,-0.034
80.6800,-0.004
80.7200,-0.018
80.7600,-0.006
80.8000,-0.023
80.8400,0.050
80.8800,0.000
80.9200,-0.038
80.9600,-0.005
81.0000,-0.003
81.0400,0.015
81.0800,0.057
81.1200,-0.017
81.1600,-0.023
81.2000,0.026
81.2400,0.024
81.2800,0.021
81.3200,0.055
81.3600,0.070
81.4000,-0.007
81.4400,0.054
81.4800,0.195
81.5200,0.253
81.5600,0.447
81.6000,0.394
81.6400,0.567
81.6800,0.733
81.7200,0.849
81.7600,0.936
81.8000,0.861
81.8400,0.775
81.8800,0.800
81.9200,0.700
81.9600,0.632
82.0000,0.697
82.0400,0.498
82.0800,0.412
82.1200,0.446
82.1600,0.304
82.2000,0.254
82.2400,0.130
82.2800,0.059
82.3200,0.028
82.3600,0.007
82.4000,0.040
82.4400,-0.017
82.4800,-0.024
82.5200,-0.018
82.5600,0.050
82.6000,0.010
82.6400,-0.013
82.6800,-0.031
82.7200,-0.001
82.7600,-0.028
82.8000,-0.014
82.8400,-0.030
82.8800,0.004
82.9200,-0.013
82.9600,0.008
83.0000,-0.056
83.0400,-0.010
83.0800,-0.015
83.1200,-0.003
83.1600,0.018
83.2000,0.036
83.2400,0.005
83.2800,0.020
83.3200,-0.060
83.3600,-0.013
83.4000,-0.045
83.4400,0.014
83.4800,-0.041
83.5200,0.027
83.5600,0.011
83.6000,-0.025
83.6400,-0.012
83.6800,0.007
83.7200,0.000
83.7600,0.005
83.8000,-0.021
83.8400,0.001
83.8800,0.059
83.9200,-0.008
83.9600,-0.001
84.0000,-0.003
84.0400,-0.037
84.0800,-0.003
84.1200,0.015
84.1600,-0.005
84.2000,0.013
84.2400,0.027
84.2800,-0.031
84.3200,-0.024
84.3600,0.022
84.4000,0.028
84.4400,-0.016
84.4800,0.031
84.5200,-0.005
84.5600,0.044
84.6000,-0.032
84.6400,0.008
84.6800,0.041
84.7200,0.012
84.7600,-0.027
84.8000,-0.017
84.8400,0.006
84.8800,0.007
84.9200,-0.004
84.9600,0.046
85.0000,0.000
85.0400,-0.033
85.0800,0.010
85.1200,0.020
85.1600,-0.032
85.2000,0.016
85.2400,0.010
85.2800,0.011
85.3200,-0.027
85.3600,-0.016
85.4000,0.030
85.4400,0.000
85.4800,0.051
85.5200,0.021
85.5600,0.030
85.6000,-0.014
85.6400,0.028
85.6800,-0.027
85.7200,0.009
85.7600,0.038
85.8000,-0.006
85.8400,-0.022
85.8800,-0.006
85.9200,-0.006
85.9600,0.008
86.0000,-0.017
86.0400,-0.009
86.0800,-0.027
86.1200,-0.007
86.1600,0.014
86.2000,-0.037
86.2400,0.000
86.2800,-0.034
86.3200,0.011
86.3600,0.003
86.4000,-0.019
86.4400,-0.030
86.4800,0.027
86.5200,-0.008
86.5600,-0.008
86.6000,0.012
86.6400,-0.042
86.6800,0.023
86.7200,-0.042
86.7600,-0.026
86.8000,-0.047
86.8400,0.033
86.8800,-0.007
86.9200,-0.027
86.9600,0.007
87.0000,-0.011
87.0400,-0.001
87.0800,0.005
87.1200,-0.001
87.1600,0.040
87.2000,0.011
87.2400,-0.021
87.2800,0.009
87.3200,-0.026
87.3600,-0.021
87.4000,-0.026
87.4400,-0.010
87.4800,0.029
87.5200,-0.005
87.5600,-0.018
87.6000,-0.026
87.6400,-0.001
87.6800,-0.020
87.7200,-0.026
87.7600,-0.005
87.8000,-0.009
87.8400,-0.012
87.8800,-0.012
87.9200,-0.011
87.9600,-0.003
88.0000,0.053
88.0400,-0.012
88.0800,0.038
88.1200,-0.004
88.1600,-0.026
88.2000,-0.024
88.2400,-0.021
88.2800,-0.010
88.3200,-0.013
88.3600,-0.002
88.4000,0.012
88.4400,-0.007
88.4800,0.041
88.5200,-0.044
88.5600,0.011
88.6000,-0.006
88.6400,-0.026
88.6800,-0.020
88.7200,-0.020
88.7600,0.025
88.8000,0.014
88.8400,-0.001
88.8800,-0.026
88.9200,0.001
88.9600,0.058
89.0000,-0.022
89.0400,-0.014
89.0800,0.003
89.1200,0.028
89.1600,0.000
89.2000,0.005
89.2400,-0.025
89.2800,-0.039
89.3200,0.026
89.3600,0.001
89.4000,-0.020
89.4400,0.007
89.4800,-0.012
89.5200,-0.028
89.5600,0.013
89.6000,0.013
89.6400,0.019
89.6800,-0.011
89.7200,-0.010
89.7600,-0.018
89.8000,-0.026
89.8400,0.018
89.8800,-0.010
89.9200,-0.025
89.9600,0.000
90.0000,0.000
