2.003999999999999915e+01,1.802930616926206042e-01
2.007999999999999829e+01,1.658422917689395537e-01
2.012000000000000099e+01,1.521771336579055001e-01
2.016000000000000014e+01,1.755845617592929619e-01
2.019999999999999929e+01,1.729568021663133448e-01
2.023999999999999844e+01,1.955689262455724553e-01
2.028000000000000114e+01,2.024008819361829692e-01
2.032000000000000028e+01,1.319225897489284538e-01
2.035999999999999943e+01,1.726685353784760124e-01
2.039999999999999858e+01,1.581919605676067042e-01
2.044000000000000128e+01,1.421344783092701736e-01
2.048000000000000043e+01,1.568388269593052609e-01
2.051999999999999957e+01,2.094046341925251686e-01
2.055999999999999872e+01,9.157623968626610322e-02
2.060000000000000142e+01,9.286057185928729696e-02
2.064000000000000057e+01,1.327952182116057256e-01
2.067999999999999972e+01,1.695712794735525220e-01
2.071999999999999886e+01,1.345590512768732872e-01
2.076000000000000156e+01,1.531852426136769141e-01
2.080000000000000071e+01,1.039673861273164857e-01
2.083999999999999986e+01,1.383641486997076453e-01
2.087999999999999901e+01,1.396261462268950926e-01
2.092000000000000171e+01,9.513182616414349313e-02
2.096000000000000085e+01,1.082201756576676444e-01
2.100000000000000000e+01,1.804688919208078945e-01
2.103999999999999915e+01,1.627858552895481425e-01
2.107999999999999829e+01,1.947970245140740742e-01
2.112000000000000099e+01,1.163664190074217564e-01
2.116000000000000014e+01,1.294389270135528069e-01
2.119999999999999929e+01,7.230087352793879152e-02
2.123999999999999844e+01,6.485703708121656752e-02
2.128000000000000114e+01,9.843010117256056901e-02
2.132000000000000028e+01,1.745977630153112137e-01
2.135999999999999943e+01,2.057979852304467339e-01
2.139999999999999858e+01,1.021021888125976385e-01
2.144000000000000128e+01,1.569615382244354262e-01
2.148000000000000043e+01,1.589649843081666347e-01
2.151999999999999957e+01,1.089013770683515264e-01
2.155999999999999872e+01,1.219424117829324139e-01
2.160000000000000142e+01,1.689007445227547755e-01
2.164000000000000057e+01,1.148835053818764024e-01
2.167999999999999972e+01,1.105605140334314923e-01
2.171999999999999886e+01,1.906410504596023625e-01
2.176000000000000156e+01,1.358255934147785116e-01
2.180000000000000071e+01,1.228159204618966271e-01
2.183999999999999986e+01,1.453012567264789501e-01
2.187999999999999901e+01,1.567396196861645941e-01
2.192000000000000171e+01,6.720243033558577495e-02
2.196000000000000085e+01,1.764516308076676809e-01
2.200000000000000000e+01,1.468606185395040231e-01
2.203999999999999915e+01,1.330434492481366582e-01
2.207999999999999829e+01,1.633986252454935895e-01
2.212000000000000099e+01,1.266986928890933284e-01
2.216000000000000014e+01,1.302268753690604131e-01
2.219999999999999929e+01,5.644494137265698014e-02
2.223999999999999844e+01,7.179965474865625252e-02
2.228000000000000114e+01,9.425090857951004542e-02
2.232000000000000028e+01,1.987391904952814092e-01
2.235999999999999943e+01,1.044348969653647041e-01
2.239999999999999858e+01,1.994508575062674260e-01
2.244000000000000128e+01,7.437537355592196975e-02
2.248000000000000043e+01,1.007554832464141181e-01
2.251999999999999957e+01,1.760410522318635040e-01
2.255999999999999872e+01,1.164306836618476115e-01
2.260000000000000142e+01,1.601562373842982112e-01
2.264000000000000057e+01,4.768698450572302072e-02
2.267999999999999972e+01,1.560918936196813989e-01
2.271999999999999886e+01,1.690432368003786379e-01
2.276000000000000156e+01,1.109952803158326534e-01
2.280000000000000071e+01,1.113189692020635224e-01
2.283999999999999986e+01,1.510819732440801533e-01
2.287999999999999901e+01,1.174791443818370279e-01
2.292000000000000171e+01,1.872122601782722495e-01
2.296000000000000085e+01,1.212606191682253226e-01
2.300000000000000000e+01,1.428679842327701677e-01
2.303999999999999915e+01,1.542173042787191584e-01
2.307999999999999829e+01,1.521531932667209985e-01
2.312000000000000099e+01,2.100384444092752989e-01
2.316000000000000014e+01,1.874582573389673712e-01
2.319999999999999929e+01,1.009784262359959134e-01
2.323999999999999844e+01,1.265118814545164172e-01
2.328000000000000114e+01,2.017396962965296026e-01
2.332000000000000028e+01,1.815139871419297890e-01
2.335999999999999943e+01,1.778510604335328538e-01
2.339999999999999858e+01,1.591970306158364823e-01
2.344000000000000128e+01,1.981258436925587563e-01
2.348000000000000043e+01,1.203022693186608372e-01
2.351999999999999957e+01,1.481812231664343116e-01
2.355999999999999872e+01,1.689575571758340222e-01
2.360000000000000142e+01,1.408223720771928089e-01
2.364000000000000057e+01,1.276722945776255780e-01
2.367999999999999972e+01,1.153080777148342978e-01
2.371999999999999886e+01,1.628932649432429103e-01
2.376000000000000156e+01,1.166026533461436560e-01
2.380000000000000071e+01,1.263172153878873993e-01
2.383999999999999986e+01,8.869796951381259120e-02
2.387999999999999901e+01,1.575701242321799200e-01
2.392000000000000171e+01,9.943490853930242457e-02
2.396000000000000085e+01,1.178149050967058353e-01
2.400000000000000000e+01,5.099643889986108652e-02
2.403999999999999915e+01,9.382477331369348805e-02
2.407999999999999829e+01,1.200843577288622926e-01
2.412000000000000099e+01,1.155759451830698226e-01
2.416000000000000014e+01,2.017820086245152578e-01
2.419999999999999929e+01,1.562476379724598019e-01
2.423999999999999844e+01,1.043995422190134720e-01
2.428000000000000114e+01,8.252469576392269801e-02
2.432000000000000028e+01,1.316431562596274141e-01
2.435999999999999943e+01,8.925240149281730984e-02
2.439999999999999858e+01,7.367951557656475525e-02
2.444000000000000128e+01,1.496099724267679065e-01
2.448000000000000043e+01,1.119435005558908486e-01
2.451999999999999957e+01,2.004896542294295481e-01
2.455999999999999872e+01,1.714946487295311295e-01
2.460000000000000142e+01,1.267197767848459167e-01
2.464000000000000057e+01,1.553047757835140097e-01
2.467999999999999972e+01,8.291441538049548754e-02
2.471999999999999886e+01,1.462028610061587297e-01
2.476000000000000156e+01,9.431670306361357448e-02
2.480000000000000071e+01,1.102684967860535908e-01
2.483999999999999986e+01,8.283078853099665184e-02
2.487999999999999901e+01,1.279641207851701101e-01
2.492000000000000171e+01,1.431183592026932516e-01
2.496000000000000085e+01,1.338154370408173310e-01
2.500000000000000000e+01,1.355534814905069163e-01
2.503999999999999915e+01,1.656871339407418042e-01
2.507999999999999829e+01,1.374432042212825611e-01
2.512000000000000099e+01,8.395327789674703056e-02
2.516000000000000014e+01,5.097049587226711725e-02
2.519999999999999929e+01,1.741765808541180238e-01
2.523999999999999844e+01,1.246222495759938681e-01
2.528000000000000114e+01,8.768659889743528335e-02
2.532000000000000028e+01,1.706528520085664191e-01
2.535999999999999943e+01,9.505794700512767981e-02
2.539999999999999858e+01,1.007114381526149766e-01
2.544000000000000128e+01,1.331828708408488993e-01
2.548000000000000043e+01,1.135875269874088156e-01
2.551999999999999957e+01,3.640347892659707985e-02
2.555999999999999872e+01,1.509064474292936553e-01
2.560000000000000142e+01,1.384021629433585532e-01
2.564000000000000057e+01,8.250843239545663232e-02
2.567999999999999972e+01,1.338950754587216740e-01
2.571999999999999886e+01,1.008722231949102099e-01
2.576000000000000156e+01,1.080777373873513525e-01
2.580000000000000071e+01,1.555116208318206850e-01
2.583999999999999986e+01,1.911099605444855076e-01
2.587999999999999901e+01,1.296772607726679738e-01
2.592000000000000171e+01,7.928559191527624617e-02
2.596000000000000085e+01,5.097881769103336513e-02
2.600000000000000000e+01,8.735469016994296121e-02
2.603999999999999915e+01,9.769578313785401424e-02
2.607999999999999829e+01,1.506318065545755314e-01
2.612000000000000099e+01,8.681562704192480329e-02
2.616000000000000014e+01,5.139513381156139010e-02
2.619999999999999929e+01,1.303546754164971733e-01
2.623999999999999844e+01,1.185939803691958977e-01
2.628000000000000114e+01,1.281293551124734198e-01
2.632000000000000028e+01,1.210961364205723340e-01
2.635999999999999943e+01,1.140601184736899226e-01
2.639999999999999858e+01,1.369974980013182464e-01
2.644000000000000128e+01,1.126012513385997726e-01
2.648000000000000043e+01,1.623538514337353744e-01
2.651999999999999957e+01,1.758166918530255363e-01
2.655999999999999872e+01,9.855931798629011253e-02
2.660000000000000142e+01,1.522477982970396049e-01
2.664000000000000057e+01,1.183714587484449993e-01
2.667999999999999972e+01,1.089466057833224782e-01
2.671999999999999886e+01,3.720004923143115094e-02
2.676000000000000156e+01,1.460967321933962504e-01
2.680000000000000071e+01,1.926717171601453893e-01
2.683999999999999986e+01,6.096446723650587179e-02
2.687999999999999901e+01,6.730271593982485590e-02
2.692000000000000171e+01,8.389321824319921628e-02
2.696000000000000085e+01,1.004809632282403636e-01
2.700000000000000000e+01,6.657973232867830937e-02
2.703999999999999915e+01,1.399589700966834827e-01
2.707999999999999829e+01,8.554221111100521191e-02
2.712000000000000099e+01,7.450930247310805221e-02
2.716000000000000014e+01,5.874056724306767063e-02
2.719999999999999929e+01,7.373413261184971756e-02
2.723999999999999844e+01,8.793611302395118456e-02
2.728000000000000114e+01,4.612720666041220802e-02
2.732000000000000028e+01,9.503299715045365748e-02
2.735999999999999943e+01,9.581637854422705991e-02
2.739999999999999858e+01,7.766470036244053909e-02
2.744000000000000128e+01,9.264188118048143072e-02
2.748000000000000043e+01,1.289152156623966372e-01
2.751999999999999957e+01,9.892266642916378028e-02
2.755999999999999872e+01,9.259281807770342043e-02
2.760000000000000142e+01,1.399018673375073130e-01
2.764000000000000057e+01,6.809227828110105130e-02
2.767999999999999972e+01,1.059297442510317155e-01
2.771999999999999886e+01,1.248321730116150052e-01
2.776000000000000156e+01,1.397876643254850892e-01
2.780000000000000071e+01,9.557691637368032067e-02
2.783999999999999986e+01,9.468048750183354068e-02
2.787999999999999901e+01,1.025075007185202447e-01
2.792000000000000171e+01,9.929062028576939036e-02
2.796000000000000085e+01,1.180864912238173831e-01
2.800000000000000000e+01,8.629134214847608564e-02
2.803999999999999915e+01,9.613089238144745252e-02
2.807999999999999829e+01,9.180663354255488851e-02
2.812000000000000099e+01,9.299109043208673986e-02
2.816000000000000014e+01,9.673749953150061198e-02
2.819999999999999929e+01,8.976141247640638532e-02
2.823999999999999844e+01,9.454687124601660053e-02
2.828000000000000114e+01,9.078656804535732705e-02
2.832000000000000028e+01,9.992298659506514136e-02
2.835999999999999943e+01,9.116028935049266813e-02
2.839999999999999858e+01,9.470147495189816522e-02
2.844000000000000128e+01,9.429666531136757235e-02
2.848000000000000043e+01,1.088226485387223247e-01
2.851999999999999957e+01,1.085829363708105677e-01
2.855999999999999872e+01,8.498791256934819238e-02
2.860000000000000142e+01,8.808576008361992948e-02
2.864000000000000057e+01,8.296541431176343573e-02
2.867999999999999972e+01,9.125053836631230597e-02
2.871999999999999886e+01,9.326914863933039035e-02
2.876000000000000156e+01,8.860395155937067502e-02
2.880000000000000071e+01,9.666642118067726719e-02
2.883999999999999986e+01,9.000507466691926028e-02
2.887999999999999901e+01,9.355343412184073670e-02
2.892000000000000171e+01,7.955292306196150298e-02
2.896000000000000085e+01,9.889318836796406886e-02
2.900000000000000000e+01,8.645041780739198822e-02
2.903999999999999915e+01,9.047692132061745107e-02
2.907999999999999829e+01,9.872837728493658038e-02
2.912000000000000099e+01,8.290978193134616869e-02
2.916000000000000014e+01,1.019115847458065549e-01
2.919999999999999929e+01,9.605098348173266021e-02
2.923999999999999844e+01,9.596686924683367481e-02
2.928000000000000114e+01,8.312656874094248582e-02
2.932000000000000028e+01,8.365601626865716567e-02
2.935999999999999943e+01,9.452277932369493318e-02
2.939999999999999858e+01,9.166391133310057560e-02
2.944000000000000128e+01,8.949583892619031311e-02
2.948000000000000043e+01,9.302677210862377033e-02
2.951999999999999957e+01,8.706453081818518736e-02
2.955999999999999872e+01,9.283870959970763614e-02
2.960000000000000142e+01,7.940779178410538319e-02
2.964000000000000057e+01,1.305264424060640083e-01
2.967999999999999972e+01,1.130128186584594685e-01
2.971999999999999886e+01,1.254728244348143062e-01
2.976000000000000156e+01,1.434521990586644091e-01
2.980000000000000071e+01,1.511740011501464254e-01
2.983999999999999986e+01,1.431163030435634309e-01
2.987999999999999901e+01,1.074463994029621894e-01
2.992000000000000171e+01,1.356705692428277765e-01
2.996000000000000085e+01,1.528483305246493007e-01
3.000000000000000000e+01,1.518800611651657251e-01
3.003999999999999915e+01,1.422319304655375038e-01
3.007999999999999829e+01,1.026050665844273901e-01
3.012000000000000099e+01,1.363384566680503063e-01
3.016000000000000014e+01,1.211607861509771816e-01
3.019999999999999929e+01,1.028251959383387204e-01
3.023999999999999844e+01,1.057859522981527550e-01
3.028000000000000114e+01,1.158438082681203796e-01
3.032000000000000028e+01,5.253635134825650893e-02
3.035999999999999943e+01,1.391073444196362363e-01
3.039999999999999858e+01,4.581865700717163703e-02
3.044000000000000128e+01,6.848799519987824880e-02
3.048000000000000043e+01,1.171867799923883430e-01
3.051999999999999957e+01,1.600208662209838886e-02
3.055999999999999872e+01,9.703859278199535032e-02
3.060000000000000142e+01,4.712395938141229756e-02
3.064000000000000057e+01,8.082463000482256743e-02
3.067999999999999972e+01,1.579093998001220578e-01
3.071999999999999886e+01,1.071984272573990871e-01
3.076000000000000156e+01,1.503577808401644622e-01
3.080000000000000071e+01,1.225183967087626336e-01
3.083999999999999986e+01,9.230998482300137309e-02
3.087999999999999901e+01,8.103142261577064853e-02
3.092000000000000171e+01,7.921654637746339267e-02
3.096000000000000085e+01,8.923190053020169099e-02
3.100000000000000000e+01,1.031890157819424503e-01
3.103999999999999915e+01,1.273986725987180380e-01
3.107999999999999829e+01,1.090081107879128514e-01
3.112000000000000099e+01,8.193776312292820607e-02
3.116000000000000014e+01,2.567760497120890814e-02
3.119999999999999929e+01,7.669820624781309437e-02
3.123999999999999844e+01,8.117436403603243977e-02
3.128000000000000114e+01,1.093134827132394155e-01
3.132000000000000028e+01,6.250966397746340886e-02
3.135999999999999943e+01,6.145653356812277868e-02
3.139999999999999858e+01,6.118980338042177836e-02
3.144000000000000128e+01,7.748642038577646662e-02
3.148000000000000043e+01,2.436204162272817553e-02
3.151999999999999957e+01,1.345265964777350165e-01
3.155999999999999872e+01,4.905460775077647578e-02
3.160000000000000142e+01,1.564410179516840735e-02
3.164000000000000057e+01,6.584896975796579455e-02
3.167999999999999972e+01,9.001945241425116095e-02
3.171999999999999886e+01,6.843437234025186167e-02
3.176000000000000156e+01,1.123211887700024114e-01
3.180000000000000071e+01,8.994242063268954868e-02
3.183999999999999986e+01,4.310697278953486145e-02
3.187999999999999901e+01,2.624530544227082068e-02
3.192000000000000171e+01,1.363856280668562238e-01
3.196000000000000085e+01,1.155749061873625610e-01
3.200000000000000000e+01,1.083141975452312639e-01
3.203999999999999915e+01,8.451416842642167637e-02
3.207999999999999829e+01,8.533418968747763511e-02
3.211999999999999744e+01,1.114995460035735075e-01
3.215999999999999659e+01,1.038350155502941602e-01
3.220000000000000284e+01,9.847332483342949305e-02
3.224000000000000199e+01,9.928960060054464742e-02
3.228000000000000114e+01,1.217492811842653677e-01
3.232000000000000028e+01,1.028468796098114535e-01
3.235999999999999943e+01,8.066975245337967837e-02
3.239999999999999858e+01,1.376181885562803575e-01
3.243999999999999773e+01,1.354944158463313175e-01
3.247999999999999687e+01,1.604746321351631366e-01
3.252000000000000313e+01,1.366049671467861881e-01
3.256000000000000227e+01,1.363344934660508656e-01
3.260000000000000142e+01,1.339770775975338279e-01
3.264000000000000057e+01,1.654494817693922815e-01
3.267999999999999972e+01,1.653255648081332074e-01
3.271999999999999886e+01,1.509194744029862811e-01
3.275999999999999801e+01,1.364905293163838629e-01
3.279999999999999716e+01,1.306266021517986931e-01
3.284000000000000341e+01,1.439745694756123240e-01
3.288000000000000256e+01,1.392388598263206156e-01
3.292000000000000171e+01,1.190884565009459189e-01
3.296000000000000085e+01,1.530216126878888305e-01
3.300000000000000000e+01,1.325270141817895819e-01
3.303999999999999915e+01,1.468854505271010025e-01
3.307999999999999829e+01,1.373726257970792897e-01
3.311999999999999744e+01,1.379404532803957251e-01
3.315999999999999659e+01,1.221902537259204058e-01
3.320000000000000284e+01,1.279342655025522413e-01
3.324000000000000199e+01,1.307404625175306312e-01
3.328000000000000114e+01,1.385702601692468117e-01
3.332000000000000028e+01,1.430366205283575831e-01
3.335999999999999943e+01,1.352637785419645855e-01
3.339999999999999858e+01,1.293964528129864511e-01
3.343999999999999773e+01,1.518979551804373052e-01
3.347999999999999687e+01,1.387292703170664998e-01
3.352000000000000313e+01,1.447405531267922374e-01
3.356000000000000227e+01,1.434784506669834758e-01
3.360000000000000142e+01,1.279439579406538297e-01
3.364000000000000057e+01,1.309241025138327685e-01
3.367999999999999972e+01,1.494488027516537310e-01
3.371999999999999886e+01,1.630862415540763055e-01
3.375999999999999801e+01,1.447099503199049120e-01
3.379999999999999716e+01,1.304749418851215426e-01
3.384000000000000341e+01,1.540714223113947845e-01
3.388000000000000256e+01,1.184889835139068398e-01
3.392000000000000171e+01,1.284265447155139295e-01
3.396000000000000085e+01,1.545987761253407866e-01
3.400000000000000000e+01,1.688972748815641967e-01
3.403999999999999915e+01,4.699275485187739965e-02
3.407999999999999829e+01,1.073096803807088578e-01
3.411999999999999744e+01,5.639689259694190965e-02
3.415999999999999659e+01,1.238089320519064063e-01
3.420000000000000284e+01,9.103512470877316021e-02
3.424000000000000199e+01,7.482486026305019966e-02
3.428000000000000114e+01,7.438929430173191193e-02
3.432000000000000028e+01,1.023499849611066298e-01
3.435999999999999943e+01,9.323261670804700030e-02
3.439999999999999858e+01,9.515687207403002168e-02
3.443999999999999773e+01,7.183578225086124924e-02
3.447999999999999687e+01,1.581622227360344746e-01
3.452000000000000313e+01,9.854970067996725314e-02
3.456000000000000227e+01,1.430627840623211744e-01
3.460000000000000142e+01,1.520755197244640367e-01
3.464000000000000057e+01,1.113886607040963650e-01
3.467999999999999972e+01,1.117196388069215396e-01
3.471999999999999886e+01,1.238811101037831236e-01
3.475999999999999801e+01,1.675942576100072912e-01
3.479999999999999716e+01,1.434643358148414150e-01
3.484000000000000341e+01,1.216987490956579071e-01
3.488000000000000256e+01,1.141302083799627248e-01
3.492000000000000171e+01,1.531014520235934318e-01
3.496000000000000085e+01,1.242296375489402027e-01
3.500000000000000000e+01,1.750291957940087739e-01
3.503999999999999915e+01,1.532526182596545827e-01
3.507999999999999829e+01,1.504061839603629269e-01
3.511999999999999744e+01,1.854222287026780769e-01
3.515999999999999659e+01,2.559342136560301406e-01
3.520000000000000284e+01,2.191607968266589268e-01
3.524000000000000199e+01,2.210387146350057397e-01
3.528000000000000114e+01,1.669063048230103041e-01
3.532000000000000028e+01,1.727241098773991124e-01
3.535999999999999943e+01,1.714401198474809762e-01
3.539999999999999858e+01,2.080186284296049182e-01
3.543999999999999773e+01,2.004195287062220110e-01
3.547999999999999687e+01,1.738859341541323655e-01
3.552000000000000313e+01,2.073025684473093211e-01
3.556000000000000227e+01,1.973304500310911480e-01
3.560000000000000142e+01,2.157546777004137328e-01
3.564000000000000057e+01,1.600251171093974023e-01
3.567999999999999972e+01,2.289312676668751600e-01
3.571999999999999886e+01,1.511096923476257514e-01
3.575999999999999801e+01,2.428881246689960083e-01
3.579999999999999716e+01,2.194927250564707166e-01
3.584000000000000341e+01,2.308044659744011018e-01
3.588000000000000256e+01,2.784010446361271929e-01
3.592000000000000171e+01,3.181070201456354107e-01
3.596000000000000085e+01,2.836592297610168179e-01
3.600000000000000000e+01,3.012732296831630019e-01
3.603999999999999915e+01,2.904866074120894259e-01
3.607999999999999829e+01,2.654986155016481608e-01
3.611999999999999744e+01,2.594408395164585213e-01
3.615999999999999659e+01,2.581140324942214348e-01
3.620000000000000284e+01,3.238371267244896101e-01
3.624000000000000199e+01,3.106733913783739642e-01
3.628000000000000114e+01,3.109179526791421289e-01
3.632000000000000028e+01,3.143157997084051747e-01
3.635999999999999943e+01,3.121896159653375635e-01
3.639999999999999858e+01,2.879736128612944146e-01
3.643999999999999773e+01,3.410625414985810622e-01
3.647999999999999687e+01,3.973047670474679771e-01
3.652000000000000313e+01,3.068193226351576541e-01
3.656000000000000227e+01,4.230097605917494397e-01
3.660000000000000142e+01,4.035163951016445538e-01
3.664000000000000057e+01,3.950648097940658854e-01
3.667999999999999972e+01,3.755672856188950748e-01
3.671999999999999886e+01,3.489680614158179317e-01
3.675999999999999801e+01,4.501600126823286918e-01
3.679999999999999716e+01,3.951581470526936424e-01
3.684000000000000341e+01,3.795965751006185607e-01
3.688000000000000256e+01,3.774433417320745554e-01
3.692000000000000171e+01,4.226188797204631364e-01
3.696000000000000085e+01,4.188838323901603045e-01
3.700000000000000000e+01,4.167244238989885052e-01
3.703999999999999915e+01,4.524276286466953345e-01
3.707999999999999829e+01,4.037221320678511249e-01
3.711999999999999744e+01,4.977959330874403010e-01
3.715999999999999659e+01,4.490863449221662584e-01
3.720000000000000284e+01,4.555940197720798057e-01
3.724000000000000199e+01,5.275739741471230371e-01
3.728000000000000114e+01,4.260055065821353737e-01
3.732000000000000028e+01,4.790490587261934663e-01
3.735999999999999943e+01,5.186801779045137062e-01
3.739999999999999858e+01,5.094007425176835246e-01
3.743999999999999773e+01,4.772427132512851444e-01
3.747999999999999687e+01,5.657762848994136728e-01
3.752000000000000313e+01,5.288811311178703845e-01
3.756000000000000227e+01,6.166218198863165911e-01
3.760000000000000142e+01,6.167984548381785226e-01
3.764000000000000057e+01,5.980407459332647280e-01
3.767999999999999972e+01,6.226676254611268613e-01
3.771999999999999886e+01,6.472924997345330667e-01
3.775999999999999801e+01,5.898752618359350830e-01
3.779999999999999716e+01,6.870700771957006792e-01
3.784000000000000341e+01,7.676971043039181319e-01
3.788000000000000256e+01,7.623377915835513052e-01
3.792000000000000171e+01,7.782753622247244873e-01
3.796000000000000085e+01,7.658124448699493714e-01
3.800000000000000000e+01,7.746464164682671516e-01
3.803999999999999915e+01,8.371200153755153917e-01
3.807999999999999829e+01,7.915195665871662678e-01
3.811999999999999744e+01,8.634553746106399252e-01
3.815999999999999659e+01,8.896360700238447050e-01
3.820000000000000284e+01,9.734006399729958625e-01
3.824000000000000199e+01,9.845892978048439437e-01
3.828000000000000114e+01,9.799990453474679564e-01
3.832000000000000028e+01,9.935503153742688554e-01
3.835999999999999943e+01,1.000000000000000000e+00
3.839999999999999858e+01,9.535949639110838927e-01
3.843999999999999773e+01,8.803671677931020900e-01
3.847999999999999687e+01,8.473686271882980847e-01
3.852000000000000313e+01,8.853643860349456052e-01
3.856000000000000227e+01,8.610392688446681930e-01
3.860000000000000142e+01,9.282184841257266061e-01
3.864000000000000057e+01,8.841683020169301965e-01
3.867999999999999972e+01,8.827139310265407213e-01
3.871999999999999886e+01,7.976398205452188694e-01
3.875999999999999801e+01,8.064365953446845925e-01
3.879999999999999716e+01,8.097095099141864427e-01
3.884000000000000341e+01,7.435619431381603750e-01
3.888000000000000256e+01,7.097551877452580316e-01
3.892000000000000171e+01,6.948788439819620910e-01
3.896000000000000085e+01,7.304868029953280884e-01
3.900000000000000000e+01,7.534712908785741181e-01
3.903999999999999915e+01,6.589156316594753093e-01
3.907999999999999829e+01,6.605974217137220439e-01
3.911999999999999744e+01,6.102133885860804297e-01
3.915999999999999659e+01,5.740267006100120417e-01
3.920000000000000284e+01,5.796470128886628270e-01
3.924000000000000199e+01,5.631777043064695176e-01
3.928000000000000114e+01,5.277741664943363942e-01
3.932000000000000028e+01,4.671256245777842819e-01
3.935999999999999943e+01,5.248022733509084548e-01
3.939999999999999858e+01,4.420622311289986728e-01
3.943999999999999773e+01,3.750972480466620018e-01
3.947999999999999687e+01,3.980589645251801922e-01
3.952000000000000313e+01,4.367957457348241035e-01
3.956000000000000227e+01,4.297775121863769421e-01
3.960000000000000142e+01,4.085581550268937434e-01
3.964000000000000057e+01,4.606997172269499119e-01
3.967999999999999972e+01,4.063450379800326306e-01
3.971999999999999886e+01,3.922197009153646774e-01
3.975999999999999801e+01,3.315505158627058968e-01
3.979999999999999716e+01,3.592303583195503025e-01
3.984000000000000341e+01,3.529879137204680606e-01
3.988000000000000256e+01,3.806640448164859136e-01
3.992000000000000171e+01,3.460193949319793627e-01
3.996000000000000085e+01,3.579148816746372530e-01
4.000000000000000000e+01,3.784858418187013185e-01
4.003999999999999915e+01,3.185925435675850959e-01
4.007999999999999829e+01,3.770244863301223659e-01
4.011999999999999744e+01,3.392152321133931059e-01
4.015999999999999659e+01,3.179699345689956935e-01
4.020000000000000284e+01,3.519421097230233109e-01
4.024000000000000199e+01,2.865177074499858922e-01
4.028000000000000114e+01,2.849881027635282615e-01
4.032000000000000028e+01,2.992336187237264467e-01
4.035999999999999943e+01,2.614133981711075361e-01
4.039999999999999858e+01,3.024760805592554003e-01
4.043999999999999773e+01,2.867399487734471064e-01
4.047999999999999687e+01,3.254324620477173635e-01
4.052000000000000313e+01,2.663061118829222473e-01
4.056000000000000227e+01,2.623972595785403761e-01
4.060000000000000142e+01,2.726858530736862574e-01
4.064000000000000057e+01,2.877057286587522134e-01
4.067999999999999972e+01,3.027238058768232931e-01
4.071999999999999886e+01,2.932858240514346071e-01
4.075999999999999801e+01,2.909456743296415238e-01
4.079999999999999716e+01,2.586275406944682498e-01
4.084000000000000341e+01,2.752161468198878747e-01
4.088000000000000256e+01,3.202014680733463181e-01
4.092000000000000171e+01,2.397583015381349048e-01
4.096000000000000085e+01,2.918396872817351495e-01
4.100000000000000000e+01,2.808115203219947453e-01
4.103999999999999915e+01,2.421719278498787042e-01
4.107999999999999829e+01,2.650606472535265157e-01
4.111999999999999744e+01,2.650710299890433608e-01
4.115999999999999659e+01,3.084662443898916750e-01
4.120000000000000284e+01,2.650865038028226706e-01
4.124000000000000199e+01,2.934900999887888884e-01
4.128000000000000114e+01,2.295968163169167797e-01
4.132000000000000028e+01,2.761403882399497411e-01
4.135999999999999943e+01,2.579967382040663781e-01
4.139999999999999858e+01,2.382736457076009839e-01
4.143999999999999773e+01,2.564134739854287415e-01
4.147999999999999687e+01,3.084719897894160345e-01
4.152000000000000313e+01,2.280024348623436170e-01
4.156000000000000227e+01,2.776909325243843152e-01
4.160000000000000142e+01,2.532260584967842565e-01
4.164000000000000057e+01,2.240263699481330195e-01
4.167999999999999972e+01,3.407616865515641358e-01
4.171999999999999886e+01,2.736938778319897847e-01
4.175999999999999801e+01,2.752540533954171420e-01
4.179999999999999716e+01,2.791790504999372979e-01
4.184000000000000341e+01,3.170227602926057875e-01
4.188000000000000256e+01,3.020119926031819557e-01
4.192000000000000171e+01,2.743779578753229309e-01
4.196000000000000085e+01,3.587585178923568541e-01
4.200000000000000000e+01,3.705634285950788476e-01
4.203999999999999915e+01,3.129480816143929145e-01
4.207999999999999829e+01,2.513867980749797115e-01
4.211999999999999744e+01,2.994735788372192564e-01
4.215999999999999659e+01,3.459809702586303937e-01
4.220000000000000284e+01,3.262235040148678267e-01
4.224000000000000199e+01,3.151416677359950014e-01
4.228000000000000114e+01,2.740819509874722337e-01
4.232000000000000028e+01,3.442480069370489892e-01
4.235999999999999943e+01,3.394718971079560554e-01
4.239999999999999858e+01,2.605424715047524042e-01
4.243999999999999773e+01,3.188707848767825537e-01
4.247999999999999687e+01,3.377550652526611907e-01
4.252000000000000313e+01,3.353388012301508625e-01
4.256000000000000227e+01,4.133832855379015458e-01
4.260000000000000142e+01,3.581109273917761904e-01
4.264000000000000057e+01,3.919766424640668823e-01
4.267999999999999972e+01,3.840317968927428605e-01
4.271999999999999886e+01,4.076391838903040132e-01
4.275999999999999801e+01,4.564880285822708883e-01
4.279999999999999716e+01,4.225062661612903336e-01
4.284000000000000341e+01,3.711682177520421178e-01
4.288000000000000256e+01,4.476217725661857383e-01
4.292000000000000171e+01,4.065354514683042209e-01
4.296000000000000085e+01,4.041010045930046868e-01
4.300000000000000000e+01,4.008760742969650348e-01
4.303999999999999915e+01,4.733788426278127681e-01
4.307999999999999829e+01,4.906606757235173477e-01
4.311999999999999744e+01,5.292397556317066654e-01
4.315999999999999659e+01,5.607175856320057994e-01
4.320000000000000284e+01,5.424964192459651446e-01
4.324000000000000199e+01,5.534609801475582902e-01
4.328000000000000114e+01,5.959778127589074881e-01
4.332000000000000028e+01,6.455926564035481263e-01
4.335999999999999943e+01,6.186877097463677755e-01
4.339999999999999858e+01,5.941476964613402467e-01
4.343999999999999773e+01,6.311361600028897456e-01
4.347999999999999687e+01,5.742502030367441224e-01
4.352000000000000313e+01,5.560161594340518043e-01
4.356000000000000227e+01,5.235812690021967031e-01
4.360000000000000142e+01,4.674793680315713629e-01
4.364000000000000057e+01,4.326747502185253058e-01
4.367999999999999972e+01,4.081235574358870188e-01
4.371999999999999886e+01,4.380012361712235514e-01
4.375999999999999801e+01,4.371122906718585277e-01
4.379999999999999716e+01,4.188671262828616015e-01
4.384000000000000341e+01,4.518954529640414330e-01
4.388000000000000256e+01,3.926270815128551916e-01
4.392000000000000171e+01,4.146084006571131297e-01
4.396000000000000085e+01,3.924127069962586312e-01
4.400000000000000000e+01,3.757373774793320576e-01
4.403999999999999915e+01,3.527497067703803668e-01
4.407999999999999829e+01,3.928682520379935261e-01
4.411999999999999744e+01,3.462120464093738081e-01
4.415999999999999659e+01,3.587178263049621285e-01
4.420000000000000284e+01,3.838436092023986834e-01
4.424000000000000199e+01,3.490154546895183896e-01
4.428000000000000114e+01,3.859708494286876457e-01
4.432000000000000028e+01,3.361515072505058543e-01
4.435999999999999943e+01,3.738926640915657407e-01
4.439999999999999858e+01,3.650902972547086511e-01
4.443999999999999773e+01,3.917845192490357897e-01
4.447999999999999687e+01,3.340705571354642411e-01
4.452000000000000313e+01,3.568174803452025534e-01
4.456000000000000227e+01,3.219770301371819854e-01
4.460000000000000142e+01,3.210554855258879181e-01
4.464000000000000057e+01,3.785071127793381285e-01
4.467999999999999972e+01,2.750323906519206441e-01
4.471999999999999886e+01,3.072378724414334128e-01
4.475999999999999801e+01,3.039437166379652111e-01
4.479999999999999716e+01,3.322019387837600868e-01
4.484000000000000341e+01,2.776296964012086033e-01
4.488000000000000256e+01,2.435659766365254053e-01
4.492000000000000171e+01,3.010070310758649059e-01
4.496000000000000085e+01,2.708845461214954842e-01
4.500000000000000000e+01,3.220118272485358313e-01
4.503999999999999915e+01,2.224677978708626547e-01
4.507999999999999829e+01,2.657036224511463707e-01
4.511999999999999744e+01,2.655513625126174060e-01
4.515999999999999659e+01,2.346325761915641628e-01
4.520000000000000284e+01,2.502542927443967002e-01
4.524000000000000199e+01,2.398425717589497130e-01
4.528000000000000114e+01,1.994531799870898903e-01
4.532000000000000028e+01,2.418912710804156929e-01
4.535999999999999943e+01,2.598736274403555813e-01
4.539999999999999858e+01,2.423563909397385696e-01
4.543999999999999773e+01,1.530525927703700328e-01
4.547999999999999687e+01,2.254610095274904302e-01
4.552000000000000313e+01,1.258992746921019090e-01
4.556000000000000227e+01,2.117151766382143752e-01
4.560000000000000142e+01,1.902464037034930777e-01
4.564000000000000057e+01,1.640430958253703553e-01
4.567999999999999972e+01,2.143565183041660493e-01
4.571999999999999886e+01,1.905168570583001542e-01
4.575999999999999801e+01,1.493211139158507339e-01
4.579999999999999716e+01,2.083075257811086156e-01
4.584000000000000341e+01,1.671089044192289874e-01
4.588000000000000256e+01,1.361638618554648350e-01
4.592000000000000171e+01,1.328270394787955944e-01
4.596000000000000085e+01,1.200226212722451252e-01
4.600000000000000000e+01,1.924122750854269093e-01
4.603999999999999915e+01,1.654057568591356109e-01
4.607999999999999829e+01,1.170989430585635815e-01
4.611999999999999744e+01,1.129661548083903677e-01
4.615999999999999659e+01,1.001546319160004916e-01
4.620000000000000284e+01,1.236286680777429342e-01
4.624000000000000199e+01,1.660336274961905501e-01
4.628000000000000114e+01,1.492736392977052629e-01
4.632000000000000028e+01,1.112133722995975182e-01
4.635999999999999943e+01,9.760596740699867269e-02
4.639999999999999858e+01,1.147622050859406079e-01
4.643999999999999773e+01,1.137735611877177949e-01
4.647999999999999687e+01,1.151500659364379786e-01
4.652000000000000313e+01,1.220471109630056339e-01
4.656000000000000227e+01,1.226319909314671913e-01
4.660000000000000142e+01,1.027054588795244389e-01
4.664000000000000057e+01,5.911212876782550446e-02
4.667999999999999972e+01,9.124675169867527136e-02
4.671999999999999886e+01,1.304796233038190978e-01
4.675999999999999801e+01,1.073921920062191893e-01
4.679999999999999716e+01,1.694988886438816844e-01
4.684000000000000341e+01,9.197826150972054915e-02
4.688000000000000256e+01,7.125326838622349224e-02
4.692000000000000171e+01,1.278339394974982168e-01
4.696000000000000085e+01,1.023731414653628879e-01
4.700000000000000000e+01,1.305525969960932287e-01
4.703999999999999915e+01,1.121887133701550687e-01
4.707999999999999829e+01,1.316881447229961699e-01
4.711999999999999744e+01,7.861228462091672531e-02
4.715999999999999659e+01,7.681014763846312488e-02
4.720000000000000284e+01,1.002497786816066161e-01
4.724000000000000199e+01,1.150107505684990900e-01
4.728000000000000114e+01,8.086185844703594472e-02
4.732000000000000028e+01,5.617779856286019002e-02
4.735999999999999943e+01,1.072217392494335259e-01
4.739999999999999858e+01,9.594542176568797431e-02
4.743999999999999773e+01,1.122774307085442347e-01
4.747999999999999687e+01,1.025761586766047034e-01
4.752000000000000313e+01,1.118058993662187639e-01
4.756000000000000227e+01,1.076239200131016288e-01
4.760000000000000142e+01,1.081737092150154705e-01
4.764000000000000057e+01,1.229214362731201327e-01
4.767999999999999972e+01,1.171578267967855053e-01
4.771999999999999886e+01,5.775130081294535533e-02
4.775999999999999801e+01,8.117242823665703211e-02
4.779999999999999716e+01,8.802646355716894910e-02
4.784000000000000341e+01,7.436917352634751788e-02
4.788000000000000256e+01,9.384217113714336811e-02
4.792000000000000171e+01,6.440534947200798888e-02
4.796000000000000085e+01,5.705496011709517562e-02
4.800000000000000000e+01,7.810178353843712229e-02
4.803999999999999915e+01,7.153767070829093744e-02
4.807999999999999829e+01,1.067811787952458458e-01
4.811999999999999744e+01,1.286130059803409220e-01
4.815999999999999659e+01,1.023238778729454040e-01
4.820000000000000284e+01,3.264688052152806691e-02
4.824000000000000199e+01,6.472990313774801274e-02
4.828000000000000114e+01,9.838935300207123091e-02
4.832000000000000028e+01,9.576056688873976763e-02
4.835999999999999943e+01,1.152182410433958415e-01
4.839999999999999858e+01,8.497728226265681417e-02
4.843999999999999773e+01,7.682278934145829463e-02
4.847999999999999687e+01,6.866704322968172902e-02
4.852000000000000313e+01,1.125739625027136759e-01
4.856000000000000227e+01,7.522837167217755194e-02
4.860000000000000142e+01,1.025670071585142729e-01
4.864000000000000057e+01,6.758547114360340113e-02
4.867999999999999972e+01,1.130651112127577101e-01
4.871999999999999886e+01,6.624839143850259904e-02
4.875999999999999801e+01,1.030482421749937816e-01
4.879999999999999716e+01,6.963946050552337341e-02
4.884000000000000341e+01,7.882720008168975223e-02
4.888000000000000256e+01,6.829253420549383224e-02
4.892000000000000171e+01,1.090317144630892632e-01
4.896000000000000085e+01,6.694071815731782171e-02
4.900000000000000000e+01,7.533472636810879808e-02
4.903999999999999915e+01,6.163979868329749756e-02
4.907999999999999829e+01,8.659717297487215526e-02
4.911999999999999744e+01,9.498754742387130467e-02
4.915999999999999659e+01,8.917746645241730885e-02
4.920000000000000284e+01,8.415502982314415625e-02
4.924000000000000199e+01,1.556495723748977378e-01
4.928000000000000114e+01,8.909465611475796132e-02
4.932000000000000028e+01,6.986937790226491196e-02
4.935999999999999943e+01,9.166296286293931783e-02
4.939999999999999858e+01,1.260769142764064377e-01
4.943999999999999773e+01,1.186807775324870973e-01
4.947999999999999687e+01,7.420763867964925986e-02
4.952000000000000313e+01,1.220284427539132938e-01
4.956000000000000227e+01,1.083179868385706207e-01
4.960000000000000142e+01,1.119609946075951074e-01
4.964000000000000057e+01,1.077143581757405155e-01
4.967999999999999972e+01,1.239765798549336828e-01
4.971999999999999886e+01,7.397446947493474534e-02
4.975999999999999801e+01,1.273101797196440066e-01
4.979999999999999716e+01,1.088596330352399749e-01
4.984000000000000341e+01,6.989790078832749942e-02
4.988000000000000256e+01,8.536547060897037298e-02
4.992000000000000171e+01,6.454491628301849138e-02
4.996000000000000085e+01,9.263173915470129804e-02
5.000000000000000000e+01,1.278170399543505364e-01
5.003999999999999915e+01,1.014711143137112526e-01
5.007999999999999829e+01,1.650526291146983959e-01
5.011999999999999744e+01,1.379155763420174263e-01
5.015999999999999659e+01,1.383870401087401170e-01
5.020000000000000284e+01,1.435904541559658298e-01
5.024000000000000199e+01,9.199573899447748004e-02
5.028000000000000114e+01,1.413723391764457882e-01
5.032000000000000028e+01,1.331619685324709756e-01
5.035999999999999943e+01,1.320501009784511848e-01
5.039999999999999858e+01,1.482917530243285376e-01
5.043999999999999773e+01,1.558549695760745313e-01
5.047999999999999687e+01,1.326520315835703623e-01
5.052000000000000313e+01,1.204918439080371051e-01
5.056000000000000227e+01,1.390955895648005314e-01
5.060000000000000142e+01,1.608536190422679424e-01
5.064000000000000057e+01,1.794551574659603299e-01
5.067999999999999972e+01,1.231151116324947226e-01
5.071999999999999886e+01,1.306705930832746387e-01
5.075999999999999801e+01,1.248145781534433091e-01
5.079999999999999716e+01,1.473559717042215167e-01
5.084000000000000341e+01,1.383423886639563172e-01
5.088000000000000256e+01,1.056623039162435385e-01
5.092000000000000171e+01,9.664655278377820569e-02
5.096000000000000085e+01,6.002006949150882203e-02
5.100000000000000000e+01,4.311368936212973263e-02
5.103999999999999915e+01,7.038167866365886705e-02
5.107999999999999829e+01,1.071147630054659766e-01
5.111999999999999744e+01,9.336055731589748552e-02
5.115999999999999659e+01,1.080037852689273437e-01
5.120000000000000284e+01,8.951436737533803589e-02
5.124000000000000199e+01,1.404424435725625253e-01
5.128000000000000114e+01,9.591895002094517897e-02
5.132000000000000028e+01,9.241445663554348489e-02
5.135999999999999943e+01,1.094189387838028771e-01
5.139999999999999858e+01,8.224692814137801733e-02
5.143999999999999773e+01,7.716159304173096645e-02
5.147999999999999687e+01,9.810717232454836678e-02
5.152000000000000313e+01,7.645396162157495901e-02
5.156000000000000227e+01,1.218517257492811867e-01
5.160000000000000142e+01,7.653102574704968852e-02
5.164000000000000057e+01,7.065165385968173728e-02
5.167999999999999972e+01,1.018470712566080516e-01
5.171999999999999886e+01,7.703331009733291324e-02
5.175999999999999801e+01,9.481627427537869801e-02
5.179999999999999716e+01,1.078651340596039482e-01
5.184000000000000341e+01,1.067137257404014022e-01
5.188000000000000256e+01,8.426242723450969030e-02
5.192000000000000171e+01,8.468668502949587562e-02
5.196000000000000085e+01,8.510993286645918143e-02
5.200000000000000000e+01,6.975522936553686659e-02
5.203999999999999915e+01,1.127742149480104317e-01
5.207999999999999829e+01,9.978404713627081479e-02
5.211999999999999744e+01,9.625904705499808978e-02
5.215999999999999659e+01,7.380071798381759862e-02
5.220000000000000284e+01,7.027372874004055026e-02
5.224000000000000199e+01,7.463422119649602837e-02
5.228000000000000114e+01,4.586214329229779119e-02
5.232000000000000028e+01,8.335224612975075664e-02
5.235999999999999943e+01,7.429938164880943441e-02
5.239999999999999858e+01,7.786709330389857131e-02
5.243999999999999773e+01,1.106211752752155886e-01
5.247999999999999687e+01,6.054532671149726042e-02
5.252000000000000313e+01,6.963204798927515038e-02
5.256000000000000227e+01,8.345088449836926547e-02
5.260000000000000142e+01,5.782639534276591553e-02
5.264000000000000057e+01,1.118745118443195685e-01
5.267999999999999972e+01,1.430450996571499545e-01
5.271999999999999886e+01,9.927424579742370747e-02
5.275999999999999801e+01,1.020444232133408263e-01
5.279999999999999716e+01,8.509246916299260943e-02
5.284000000000000341e+01,7.997227479343374523e-02
5.288000000000000256e+01,9.457231498826078331e-02
5.292000000000000171e+01,9.102792652171588783e-02
5.296000000000000085e+01,5.908409847540924825e-02
5.300000000000000000e+01,8.866941544626270877e-02
5.303999999999999915e+01,6.461218774788470010e-02
5.307999999999999829e+01,1.012952634494375947e-01
5.311999999999999744e+01,1.111566051718988896e-01
5.315999999999999659e+01,7.368618828271424059e-02
5.320000000000000284e+01,7.881259737880443039e-02
5.324000000000000199e+01,8.709347481684763526e-02
5.328000000000000114e+01,1.158834619858237630e-01
5.332000000000000028e+01,7.446513267158250127e-02
5.335999999999999943e+01,4.724514100957125096e-02
5.339999999999999858e+01,7.524354465222903021e-02
5.343999999999999773e+01,8.351986156104532211e-02
5.347999999999999687e+01,9.100642754256346723e-02
5.352000000000000313e+01,9.218131493108644436e-02
5.356000000000000227e+01,7.126758234675141523e-02
5.360000000000000142e+01,5.745257931026752363e-02
5.364000000000000057e+01,1.209437101990070429e-01
5.367999999999999972e+01,1.213261746455552847e-01
5.371999999999999886e+01,1.122415856428631009e-01
5.375999999999999801e+01,7.633530739350324890e-02
5.379999999999999716e+01,8.933667473632170286e-02
5.384000000000000341e+01,8.734906655575540302e-02
5.388000000000000256e+01,8.299404098809200214e-02
5.392000000000000171e+01,1.062477947628232972e-01
5.396000000000000085e+01,6.639290166579892016e-02
5.400000000000000000e+01,1.227765006667534686e-01
5.403999999999999915e+01,1.089518335084676270e-01
5.407999999999999829e+01,8.802667968927546660e-02
5.411999999999999744e+01,1.065430273230902197e-01
5.415999999999999659e+01,1.021819497119120790e-01
5.420000000000000284e+01,1.057084907940146618e-01
5.424000000000000199e+01,7.846914013485817296e-02
5.428000000000000114e+01,1.458906067265521023e-01
5.432000000000000028e+01,8.630682769713883540e-02
5.435999999999999943e+01,5.590955318122600021e-02
5.439999999999999858e+01,7.441996619413865366e-02
5.443999999999999773e+01,1.023957090925548402e-01
5.447999999999999687e+01,1.067052019034085281e-01
5.452000000000000313e+01,6.841611441170888930e-02
5.456000000000000227e+01,8.928973934610630325e-02
5.460000000000000142e+01,6.283170631681159191e-02
5.464000000000000057e+01,1.089467938544607800e-01
5.467999999999999972e+01,9.668636809702302326e-02
5.471999999999999886e+01,1.041463055096901319e-01
5.475999999999999801e+01,1.171273591301629502e-01
5.479999999999999716e+01,1.056533378205031237e-01
5.484000000000000341e+01,1.304654794526989015e-01
5.488000000000000256e+01,9.216903851599851649e-02
5.492000000000000171e+01,8.858107169514282953e-02
5.496000000000000085e+01,7.947037413802769679e-02
5.500000000000000000e+01,7.509196235459533741e-02
5.503999999999999915e+01,8.727854727235216659e-02
5.507999999999999829e+01,6.238852148990001872e-02
5.511999999999999744e+01,9.587240006563418904e-02
5.515999999999999659e+01,8.281350702732913349e-02
5.520000000000000284e+01,1.044631076753042703e-01
5.524000000000000199e+01,1.300561636628390361e-01
5.528000000000000114e+01,1.193614701378299392e-01
5.532000000000000028e+01,9.683329336829388234e-02
5.535999999999999943e+01,1.011251493803243112e-01
5.539999999999999858e+01,1.069939302886745297e-01
5.543999999999999773e+01,1.168061805154673310e-01
5.547999999999999687e+01,8.244222312077849335e-02
5.552000000000000313e+01,1.167072117562064221e-01
5.556000000000000227e+01,1.115290816143981178e-01
5.560000000000000142e+01,1.166052096443935676e-01
5.564000000000000057e+01,7.908283565357750178e-02
5.567999999999999972e+01,9.599016911790923812e-02
5.571999999999999886e+01,9.948635287791494919e-02
5.575999999999999801e+01,1.242806669157784094e-01
5.579999999999999716e+01,1.348749896320871888e-01
5.584000000000000341e+01,1.154923796469787267e-01
5.588000000000000256e+01,1.110971306568014488e-01
5.592000000000000171e+01,9.486844035874489323e-02
5.596000000000000085e+01,7.785017247153346032e-02
5.600000000000000000e+01,1.357716618340126247e-01
5.603999999999999915e+01,1.165071177795702073e-01
5.607999999999999829e+01,1.343879971864437306e-01
5.611999999999999744e+01,1.046144844925141759e-01
5.615999999999999659e+01,1.143802117912643829e-01
5.620000000000000284e+01,1.235146808644527749e-01
5.624000000000000199e+01,1.222154045931925642e-01
5.628000000000000114e+01,1.229989845814929844e-01
5.632000000000000028e+01,1.201366657304907687e-01
5.635999999999999943e+01,1.146608342089597832e-01
5.639999999999999858e+01,1.295989644708363531e-01
5.643999999999999773e+01,1.143177800630819224e-01
5.647999999999999687e+01,1.088601600451962054e-01
5.652000000000000313e+01,1.194163631393698882e-01
5.656000000000000227e+01,9.673547196984957908e-02
5.660000000000000142e+01,1.280948365274651446e-01
5.664000000000000057e+01,1.249625007927726433e-01
5.667999999999999972e+01,1.197600599003327271e-01
5.671999999999999886e+01,1.140840844042889379e-01
5.675999999999999801e+01,1.037701705018604509e-01
5.679999999999999716e+01,1.045431584218011467e-01
5.684000000000000341e+01,1.267002255610677475e-01
5.688000000000000256e+01,1.213430648463283551e-01
5.692000000000000171e+01,1.239232412289268670e-01
5.696000000000000085e+01,1.191182171290914166e-01
5.700000000000000000e+01,1.232360536555961450e-01
5.703999999999999915e+01,1.057370177531451599e-01
5.707999999999999829e+01,1.263683084081142771e-01
5.711999999999999744e+01,1.237620790610957922e-01
5.715999999999999659e+01,1.286508443118990763e-01
5.720000000000000284e+01,1.214723691635069130e-01
5.724000000000000199e+01,1.110824154009250053e-01
5.728000000000000114e+01,1.248074514940064189e-01
5.732000000000000028e+01,1.095624530126332458e-01
5.735999999999999943e+01,1.295598810052416283e-01
5.739999999999999858e+01,1.233634177731432330e-01
5.743999999999999773e+01,1.143487581357163219e-01
5.747999999999999687e+01,1.238656031379101879e-01
5.752000000000000313e+01,1.351146673132288534e-01
5.756000000000000227e+01,1.113584944924279341e-01
5.760000000000000142e+01,1.360706360101944512e-01
5.764000000000000057e+01,1.213314298439238381e-01
5.767999999999999972e+01,1.421490664267699988e-01
5.771999999999999886e+01,1.329899017096937974e-01
5.775999999999999801e+01,1.498620903119919634e-01
5.779999999999999716e+01,1.312355527444473702e-01
5.784000000000000341e+01,1.181303466594986751e-01
5.788000000000000256e+01,1.657657794676605512e-01
5.792000000000000171e+01,1.266274259224809406e-01
5.796000000000000085e+01,1.561181889497844921e-01
5.800000000000000000e+01,1.437994621158717734e-01
5.803999999999999915e+01,1.362132335346556700e-01
5.807999999999999829e+01,1.633356999356276873e-01
5.811999999999999744e+01,1.328717406870735251e-01
5.815999999999999659e+01,1.339610931771322844e-01
5.820000000000000284e+01,1.208506220922265229e-01
5.824000000000000199e+01,1.432377043813965745e-01
5.828000000000000114e+01,1.324926356763875546e-01
5.832000000000000028e+01,1.130696822452171152e-01
5.835999999999999943e+01,1.606981789267309668e-01
5.839999999999999858e+01,1.704614497487034752e-01
5.843999999999999773e+01,1.565587472649863088e-01
5.847999999999999687e+01,1.292450879855220891e-01
5.852000000000000313e+01,1.650386539579382361e-01
5.856000000000000227e+01,1.456123666607155309e-01
5.860000000000000142e+01,1.411736304712263579e-01
5.864000000000000057e+01,1.438339760974268189e-01
5.867999999999999972e+01,1.701591977195150984e-01
5.871999999999999886e+01,1.373203412111609623e-01
5.875999999999999801e+01,1.305129079165932848e-01
5.879999999999999716e+01,1.489480534228070918e-01
5.884000000000000341e+01,1.303068510318027007e-01
5.888000000000000256e+01,1.700398158019757466e-01
5.892000000000000171e+01,1.813737575630852139e-01
5.896000000000000085e+01,1.666752207372539096e-01
5.900000000000000000e+01,1.669642629769209075e-01
5.903999999999999915e+01,1.443762210563275805e-01
5.907999999999999829e+01,1.872619851548318615e-01
5.911999999999999744e+01,1.867606432562979868e-01
5.915999999999999659e+01,1.831034058043825297e-01
5.920000000000000284e+01,1.818122060563363840e-01
5.924000000000000199e+01,1.686877970498603108e-01
5.928000000000000114e+01,1.689732922617537547e-01
5.932000000000000028e+01,1.621586670594621915e-01
5.935999999999999943e+01,1.600766323704916338e-01
5.939999999999999858e+01,1.658825798257466122e-01
5.943999999999999773e+01,1.701103457156195597e-01
5.947999999999999687e+01,1.632937663305035758e-01
5.952000000000000313e+01,1.919748297843117957e-01
5.956000000000000227e+01,1.780576652034048524e-01
5.960000000000000142e+01,1.325861363065073129e-01
5.964000000000000057e+01,1.691542439539995279e-01
5.967999999999999972e+01,1.662795207892340810e-01
5.971999999999999886e+01,1.957470656071471915e-01
5.975999999999999801e+01,1.834052435780099688e-01
5.979999999999999716e+01,1.663298763103515931e-01
5.984000000000000341e+01,2.305053123571833007e-01
5.988000000000000256e+01,2.063294046261581194e-01
5.992000000000000171e+01,1.726868767912491942e-01
5.996000000000000085e+01,1.800639530102793318e-01
