2.003999999999999915e+01,2.274053873505375162e-02
2.007999999999999829e+01,3.028748188370046848e-02
2.012000000000000099e+01,3.118911469010874141e-02
2.016000000000000014e+01,2.836258408482504947e-02
2.019999999999999929e+01,3.412473030424025000e-02
2.023999999999999844e+01,3.875173341930079896e-02
2.028000000000000114e+01,4.110914841836960099e-02
2.032000000000000028e+01,2.434235355416093649e-02
2.035999999999999943e+01,3.739458022035197643e-02
2.039999999999999858e+01,3.699482720665925317e-02
2.044000000000000128e+01,2.719468718743300525e-02
2.048000000000000043e+01,3.084513944872718100e-02
2.051999999999999957e+01,2.363663306964913433e-02
2.055999999999999872e+01,3.652333122060808651e-02
2.060000000000000142e+01,2.720661475744307056e-02
2.064000000000000057e+01,1.189285218103682505e-02
2.067999999999999972e+01,3.936321120737972662e-02
2.071999999999999886e+01,3.847173806400666640e-02
2.076000000000000156e+01,4.989641658255283829e-02
2.080000000000000071e+01,2.842148142048969012e-02
2.083999999999999986e+01,3.546906715340106264e-02
2.087999999999999901e+01,3.117150980243290487e-02
2.092000000000000171e+01,1.650119216588042184e-02
2.096000000000000085e+01,2.208815005877838231e-02
2.100000000000000000e+01,3.010537966771827112e-02
2.103999999999999915e+01,3.034287003058529913e-02
2.107999999999999829e+01,3.398301563996238700e-02
2.112000000000000099e+01,3.405707908747642593e-02
2.116000000000000014e+01,2.051711308870014100e-02
2.119999999999999929e+01,3.598586560751350361e-02
2.123999999999999844e+01,1.855501249961668750e-02
2.128000000000000114e+01,2.316414123310961415e-02
2.132000000000000028e+01,2.550370088709977279e-02
2.135999999999999943e+01,2.622194690450806165e-02
2.139999999999999858e+01,2.580507105056865230e-02
2.144000000000000128e+01,3.446308575174154148e-02
2.148000000000000043e+01,2.934501318631796765e-02
2.151999999999999957e+01,1.758165590470310916e-02
2.155999999999999872e+01,2.834447662274770102e-02
2.160000000000000142e+01,3.132756834513677341e-02
2.164000000000000057e+01,2.847569593628788975e-02
2.167999999999999972e+01,3.291601802102912810e-02
2.171999999999999886e+01,2.439057562064527937e-02
2.176000000000000156e+01,1.294731748390932739e-02
2.180000000000000071e+01,2.954040678123034946e-02
2.183999999999999986e+01,1.841993912041799478e-02
2.187999999999999901e+01,3.290486519270149207e-02
2.192000000000000171e+01,3.231720263079092270e-02
2.196000000000000085e+01,3.270125625788179724e-02
2.200000000000000000e+01,3.259845370696314026e-02
2.203999999999999915e+01,3.265705042095586041e-02
2.207999999999999829e+01,3.222879242128410399e-02
2.212000000000000099e+01,3.487908134923693032e-02
2.216000000000000014e+01,2.553599591208646422e-02
2.219999999999999929e+01,3.045385262731584858e-02
2.223999999999999844e+01,2.678167367321647452e-02
2.228000000000000114e+01,3.801869304659048765e-02
2.232000000000000028e+01,4.876886209933613270e-02
2.235999999999999943e+01,3.537088462130894700e-02
2.239999999999999858e+01,3.639591663421209988e-02
2.244000000000000128e+01,2.656202515103013931e-02
2.248000000000000043e+01,3.390622714380427810e-02
2.251999999999999957e+01,2.747436090647100218e-02
2.255999999999999872e+01,2.233834919610324168e-02
2.260000000000000142e+01,2.076708423249301952e-02
2.264000000000000057e+01,2.535358559080674520e-02
2.267999999999999972e+01,3.496340825940717767e-02
2.271999999999999886e+01,3.176954842488594749e-02
2.276000000000000156e+01,1.431343372023179822e-02
2.280000000000000071e+01,1.516986409272471324e-02
2.283999999999999986e+01,7.760397133852721917e-03
2.287999999999999901e+01,1.979792246028272765e-02
2.292000000000000171e+01,2.940384431642890234e-02
2.296000000000000085e+01,2.523370599636651571e-02
2.300000000000000000e+01,2.673514955472062332e-02
2.303999999999999915e+01,3.212547526910565499e-02
2.307999999999999829e+01,2.795339862366484976e-02
2.312000000000000099e+01,1.746019390431281793e-02
2.316000000000000014e+01,4.002733552118806909e-02
2.319999999999999929e+01,3.293618094155471160e-02
2.323999999999999844e+01,2.487200184820258231e-02
2.328000000000000114e+01,3.139291203126587382e-02
2.332000000000000028e+01,2.413776862767468348e-02
2.335999999999999943e+01,4.038121823763494295e-02
2.339999999999999858e+01,3.652813229548886043e-02
2.344000000000000128e+01,2.538154207069021409e-02
2.348000000000000043e+01,4.842974978330952252e-02
2.351999999999999957e+01,3.420267430550787136e-02
2.355999999999999872e+01,2.127147165898793726e-02
2.360000000000000142e+01,3.540426732817160416e-02
2.364000000000000057e+01,3.867816146644968006e-02
2.367999999999999972e+01,2.396235298776225667e-02
2.371999999999999886e+01,2.447989655013800905e-02
2.376000000000000156e+01,2.872427176996526776e-02
2.380000000000000071e+01,1.416862818090951388e-02
2.383999999999999986e+01,3.348366176345149436e-02
2.387999999999999901e+01,3.772614258825915390e-02
2.392000000000000171e+01,7.448430065052870884e-03
2.396000000000000085e+01,1.233790633145918220e-02
2.400000000000000000e+01,3.100216666495315618e-02
2.403999999999999915e+01,3.038022154953868778e-02
2.407999999999999829e+01,3.640226014732474841e-02
2.412000000000000099e+01,3.107921496721574930e-02
2.416000000000000014e+01,3.645174690683014584e-02
2.419999999999999929e+01,2.885855975602363149e-02
2.423999999999999844e+01,3.066444176778905170e-02
2.428000000000000114e+01,3.716954702137289374e-02
2.432000000000000028e+01,3.281576319098631483e-02
2.435999999999999943e+01,2.440976547166004776e-02
2.439999999999999858e+01,2.750966765352856613e-02
2.444000000000000128e+01,1.278194480739904167e-02
2.448000000000000043e+01,2.722506419470371170e-02
2.451999999999999957e+01,1.833039497699425965e-02
2.455999999999999872e+01,3.585148693638349343e-02
2.460000000000000142e+01,3.035891911047811781e-02
2.464000000000000057e+01,4.398924843009714009e-02
2.467999999999999972e+01,8.351603643456459100e-03
2.471999999999999886e+01,2.198070151648625833e-02
2.476000000000000156e+01,2.118551745032850805e-02
2.480000000000000071e+01,3.059973118559501659e-02
2.483999999999999986e+01,2.251045456996437349e-02
2.487999999999999901e+01,1.928247585642921258e-02
2.492000000000000171e+01,2.675008817389754393e-02
2.496000000000000085e+01,3.421708952719361430e-02
2.500000000000000000e+01,1.721186531773753747e-02
2.503999999999999915e+01,1.803303615403569621e-02
2.507999999999999829e+01,2.663265475166017027e-02
2.512000000000000099e+01,2.518371729720265614e-02
2.516000000000000014e+01,2.940640125848456923e-02
2.519999999999999929e+01,2.325640327665545737e-02
2.523999999999999844e+01,3.444661296838236880e-02
2.528000000000000114e+01,2.262317532174970211e-02
2.532000000000000028e+01,2.943645623451521254e-02
2.535999999999999943e+01,3.576294247177350116e-02
2.539999999999999858e+01,3.268913249290660017e-02
2.544000000000000128e+01,2.896646562519080217e-02
2.548000000000000043e+01,2.994304396447301786e-02
2.551999999999999957e+01,1.762980001965750582e-02
2.555999999999999872e+01,2.233264225040508186e-02
2.560000000000000142e+01,1.747312824820370161e-02
2.564000000000000057e+01,2.379540948917494708e-02
2.567999999999999972e+01,2.914471087895895152e-02
2.571999999999999886e+01,3.190039637285715934e-02
2.576000000000000156e+01,3.125214831460685488e-02
2.580000000000000071e+01,2.314837549420315638e-02
2.583999999999999986e+01,1.893353608191584644e-02
2.587999999999999901e+01,2.265922275209494852e-02
2.592000000000000171e+01,1.795700479051605403e-02
2.596000000000000085e+01,3.399834491302997086e-02
2.600000000000000000e+01,2.021937641343366995e-02
2.603999999999999915e+01,2.880460423914650223e-02
2.607999999999999829e+01,2.118287383281107494e-02
2.612000000000000099e+01,3.414264076157191852e-02
2.616000000000000014e+01,2.927481414575865137e-02
2.619999999999999929e+01,2.181338042013150624e-02
2.623999999999999844e+01,1.467548651523091496e-02
2.628000000000000114e+01,1.985384531207507602e-02
2.632000000000000028e+01,2.567987274936530187e-02
2.635999999999999943e+01,2.502276774104189930e-02
2.639999999999999858e+01,2.679603329206797085e-02
2.644000000000000128e+01,1.900695798577059156e-02
2.648000000000000043e+01,2.158937490983606905e-02
2.651999999999999957e+01,2.692629194514317009e-02
2.655999999999999872e+01,3.307294569161924047e-02
2.660000000000000142e+01,2.382296911272702503e-02
2.664000000000000057e+01,1.667924013084593621e-02
2.667999999999999972e+01,2.379653530468132938e-02
2.671999999999999886e+01,1.405862925048223522e-02
2.676000000000000156e+01,3.187097038668734034e-02
2.680000000000000071e+01,1.564936192437049040e-02
2.683999999999999986e+01,2.989514831517083374e-02
2.687999999999999901e+01,2.080318929914338338e-02
2.692000000000000171e+01,2.581019515418114807e-02
2.696000000000000085e+01,2.968218090986923796e-02
2.700000000000000000e+01,1.783341630654116869e-02
2.703999999999999915e+01,1.911123670467364602e-02
2.707999999999999829e+01,1.682308403466795804e-02
2.712000000000000099e+01,2.101690704529693768e-02
2.716000000000000014e+01,2.099650374138461659e-02
2.719999999999999929e+01,2.000314840884559117e-02
2.723999999999999844e+01,1.139223099468142202e-02
2.728000000000000114e+01,2.741442409079792447e-02
2.732000000000000028e+01,2.009887983398571040e-02
2.735999999999999943e+01,3.514755606417998418e-02
2.739999999999999858e+01,3.577199867858141258e-02
2.744000000000000128e+01,4.093365869875360136e-02
2.748000000000000043e+01,2.680917623686506629e-02
2.751999999999999957e+01,1.543921219053449000e-02
2.755999999999999872e+01,2.335426241601877562e-02
2.760000000000000142e+01,3.110668632303835793e-02
2.764000000000000057e+01,2.540726307342356521e-02
2.767999999999999972e+01,2.262442484574436058e-02
2.771999999999999886e+01,1.108958757870205994e-02
2.776000000000000156e+01,3.666677278991909567e-02
2.780000000000000071e+01,1.962065178951400216e-02
2.783999999999999986e+01,9.056519648851239085e-03
2.787999999999999901e+01,2.539440048867837307e-02
2.792000000000000171e+01,2.341852896646664378e-02
2.796000000000000085e+01,2.760052114514106175e-02
2.800000000000000000e+01,2.871525053662590810e-02
2.803999999999999915e+01,2.037939708576180092e-02
2.807999999999999829e+01,2.586025364497517021e-02
2.812000000000000099e+01,2.527264652871055381e-02
2.816000000000000014e+01,2.779182139283100858e-02
2.819999999999999929e+01,2.185616255723402471e-02
2.823999999999999844e+01,2.161898341071228496e-02
2.828000000000000114e+01,2.256725240911925182e-02
2.832000000000000028e+01,2.221294411802709340e-02
2.835999999999999943e+01,2.358083714105110515e-02
2.839999999999999858e+01,2.609254449232758719e-02
2.844000000000000128e+01,2.307778953408889250e-02
2.848000000000000043e+01,2.317461476078654450e-02
2.851999999999999957e+01,2.743224645938054443e-02
2.855999999999999872e+01,2.107528625314048984e-02
2.860000000000000142e+01,2.363524048171877778e-02
2.864000000000000057e+01,2.234529687622917316e-02
2.867999999999999972e+01,1.990658979655209396e-02
2.871999999999999886e+01,2.385362937535241701e-02
2.876000000000000156e+01,2.302169447293899926e-02
2.880000000000000071e+01,2.375740702970321333e-02
2.883999999999999986e+01,2.434532086550836999e-02
2.887999999999999901e+01,2.064747715200006273e-02
2.892000000000000171e+01,2.353537585090530529e-02
2.896000000000000085e+01,2.259613227882327144e-02
2.900000000000000000e+01,2.234538571791768596e-02
2.903999999999999915e+01,2.499066521658723297e-02
2.907999999999999829e+01,2.121740371977949915e-02
2.912000000000000099e+01,2.298170320146866383e-02
2.916000000000000014e+01,2.246979863872270930e-02
2.919999999999999929e+01,2.444668052285576751e-02
2.923999999999999844e+01,2.955548460813378631e-02
2.928000000000000114e+01,2.353507711238719130e-02
2.932000000000000028e+01,2.555705127174361796e-02
2.935999999999999943e+01,2.438507307225853613e-02
2.939999999999999858e+01,2.118041702728301959e-02
2.944000000000000128e+01,2.159353185050423563e-02
2.948000000000000043e+01,2.671947924544196273e-02
2.951999999999999957e+01,2.380479599007612190e-02
2.955999999999999872e+01,2.231865020824071871e-02
2.960000000000000142e+01,2.745323247223274352e-02
2.964000000000000057e+01,2.399553880011816992e-02
2.967999999999999972e+01,2.442684882469414384e-02
2.971999999999999886e+01,1.124428608792642746e-02
2.976000000000000156e+01,1.783296892553053875e-02
2.980000000000000071e+01,2.069366480504941652e-02
2.983999999999999986e+01,1.204731792967478343e-02
2.987999999999999901e+01,1.717586275076724706e-02
2.992000000000000171e+01,1.549721293423740424e-02
2.996000000000000085e+01,1.835582665035518854e-02
3.000000000000000000e+01,2.186217636680264781e-02
3.003999999999999915e+01,1.791307893139744770e-02
3.007999999999999829e+01,2.158045710121269528e-02
3.012000000000000099e+01,2.638176450093685302e-02
3.016000000000000014e+01,1.303142421797761664e-02
3.019999999999999929e+01,9.566453224376160816e-03
3.023999999999999844e+01,1.485240650849539538e-02
3.028000000000000114e+01,1.171053496767528353e-02
3.032000000000000028e+01,1.067497838374994318e-02
3.035999999999999943e+01,2.422464067079900529e-02
3.039999999999999858e+01,2.027091437894886286e-02
3.044000000000000128e+01,1.809937788513730703e-02
3.048000000000000043e+01,1.754796824384992349e-02
3.051999999999999957e+01,2.364066019555945142e-02
3.055999999999999872e+01,2.000902302604130878e-02
3.060000000000000142e+01,1.637687812869423332e-02
3.064000000000000057e+01,1.793026392167811414e-02
3.067999999999999972e+01,2.450711745947850226e-02
3.071999999999999886e+01,1.617360711875454743e-02
3.076000000000000156e+01,1.432213908637638110e-02
3.080000000000000071e+01,3.532114554091381892e-02
3.083999999999999986e+01,2.520342254473468754e-02
3.087999999999999901e+01,1.735408843355460903e-02
3.092000000000000171e+01,2.344172873301750282e-02
3.096000000000000085e+01,1.494313690236618274e-02
3.100000000000000000e+01,1.373691016153195769e-02
3.103999999999999915e+01,1.771622143275519701e-02
3.107999999999999829e+01,1.375391355555327828e-02
3.112000000000000099e+01,2.729398465897389658e-02
3.116000000000000014e+01,1.749638869803995384e-02
3.119999999999999929e+01,1.855656239690263096e-02
3.123999999999999844e+01,2.156100421494399136e-02
3.128000000000000114e+01,1.759621261154609845e-02
3.132000000000000028e+01,1.719632736854313781e-02
3.135999999999999943e+01,6.423872937017076519e-03
3.139999999999999858e+01,1.218142054519943257e-02
3.144000000000000128e+01,3.430690724757568671e-02
3.148000000000000043e+01,2.061582956107186823e-02
3.151999999999999957e+01,1.016553454045207062e-02
3.155999999999999872e+01,1.527286242210862746e-02
3.160000000000000142e+01,1.227651699589739354e-02
3.164000000000000057e+01,2.402747754787229462e-02
3.167999999999999972e+01,1.697856352897607335e-02
3.171999999999999886e+01,1.495313629138515787e-02
3.176000000000000156e+01,2.475787103013052382e-02
3.180000000000000071e+01,2.354178992350356228e-02
3.183999999999999986e+01,1.389791254667042258e-02
3.187999999999999901e+01,1.413943521044636574e-02
3.192000000000000171e+01,1.000475501053900082e-02
3.196000000000000085e+01,1.494515792715042646e-02
3.200000000000000000e+01,1.664380518823362076e-02
3.203999999999999915e+01,2.417211906522430398e-02
3.207999999999999829e+01,2.026325535901523853e-02
3.211999999999999744e+01,2.474294349859202172e-02
3.215999999999999659e+01,2.257714672986375209e-02
3.220000000000000284e+01,2.391335414156135417e-02
3.224000000000000199e+01,1.808848077901307333e-02
3.228000000000000114e+01,2.433222629407347931e-02
3.232000000000000028e+01,2.854910736829177273e-02
3.235999999999999943e+01,2.748538471557366095e-02
3.239999999999999858e+01,2.397987940462312575e-02
3.243999999999999773e+01,2.194152774252828425e-02
3.247999999999999687e+01,2.248847090735678345e-02
3.252000000000000313e+01,2.021612709719767392e-02
3.256000000000000227e+01,2.422986748757466335e-02
3.260000000000000142e+01,1.966092337791378042e-02
3.264000000000000057e+01,1.976989451393122016e-02
3.267999999999999972e+01,2.319705673470716725e-02
3.271999999999999886e+01,2.537747834977240394e-02
3.275999999999999801e+01,2.583240744317008564e-02
3.279999999999999716e+01,2.352063491233460923e-02
3.284000000000000341e+01,2.533702908195924891e-02
3.288000000000000256e+01,2.685271486045367334e-02
3.292000000000000171e+01,2.158875485985306542e-02
3.296000000000000085e+01,2.234946009802877068e-02
3.300000000000000000e+01,2.055605588124076802e-02
3.303999999999999915e+01,2.215010186694868141e-02
3.307999999999999829e+01,2.723007031267272310e-02
3.311999999999999744e+01,1.949421793941811046e-02
3.315999999999999659e+01,3.032139974475867028e-02
3.320000000000000284e+01,1.905132455531955912e-02
3.324000000000000199e+01,2.459297438930881097e-02
3.328000000000000114e+01,2.732280501243036785e-02
3.332000000000000028e+01,2.781727278319542918e-02
3.335999999999999943e+01,2.363260771038711017e-02
3.339999999999999858e+01,2.934047834042285280e-02
3.343999999999999773e+01,2.354621707865162811e-02
3.347999999999999687e+01,2.858660682345547446e-02
3.352000000000000313e+01,2.574655304897713326e-02
3.356000000000000227e+01,2.612172541576617685e-02
3.360000000000000142e+01,2.292901320893035721e-02
3.364000000000000057e+01,2.024649953407348796e-02
3.367999999999999972e+01,1.884634979598141802e-02
3.371999999999999886e+01,7.235737745239587820e-03
3.375999999999999801e+01,1.247929828776666965e-02
3.379999999999999716e+01,2.614972091600590437e-02
3.384000000000000341e+01,1.891348070076468574e-02
3.388000000000000256e+01,2.383156862238428389e-02
3.392000000000000171e+01,2.210459880133364488e-02
3.396000000000000085e+01,1.454289035822090015e-02
3.400000000000000000e+01,1.573217501705776594e-02
3.403999999999999915e+01,2.680689925382671521e-02
3.407999999999999829e+01,1.000622689960566948e-02
3.411999999999999744e+01,2.448340104235936787e-02
3.415999999999999659e+01,1.513677200064594310e-02
3.420000000000000284e+01,1.843066798623581998e-02
3.424000000000000199e+01,1.815872196259157509e-02
3.428000000000000114e+01,2.501713738923448671e-02
3.432000000000000028e+01,2.830971227098858303e-02
3.435999999999999943e+01,2.576755585240703833e-02
3.439999999999999858e+01,1.641828679953992107e-02
3.443999999999999773e+01,1.176842696034403196e-02
3.447999999999999687e+01,2.462100760427313184e-02
3.452000000000000313e+01,2.888377735587639022e-02
3.456000000000000227e+01,1.726387145140703336e-02
3.460000000000000142e+01,1.796037054059331645e-02
3.464000000000000057e+01,1.654960804145580791e-02
3.467999999999999972e+01,3.491018117392589298e-02
3.471999999999999886e+01,2.118171381030377332e-02
3.475999999999999801e+01,1.004583370780177433e-02
3.479999999999999716e+01,1.787097304498978453e-02
3.484000000000000341e+01,3.866077647961776997e-02
3.488000000000000256e+01,2.266169569391813035e-02
3.492000000000000171e+01,1.557568852782617239e-02
3.496000000000000085e+01,1.707862835814037000e-02
3.500000000000000000e+01,2.976353476002702517e-02
3.503999999999999915e+01,2.283830970510933658e-02
3.507999999999999829e+01,3.049838991753856671e-02
3.511999999999999744e+01,2.811009712104778346e-02
3.515999999999999659e+01,2.701788948590688744e-02
3.520000000000000284e+01,2.624938567816579443e-02
3.524000000000000199e+01,2.256331287625514340e-02
3.528000000000000114e+01,3.767620462241923207e-02
3.532000000000000028e+01,3.463754313617151831e-02
3.535999999999999943e+01,2.770893278614964400e-02
3.539999999999999858e+01,3.147610529636537396e-02
3.543999999999999773e+01,2.243982813436158283e-02
3.547999999999999687e+01,4.419523133014123528e-02
3.552000000000000313e+01,3.224097189641068201e-02
3.556000000000000227e+01,3.924774581365040454e-02
3.560000000000000142e+01,3.102011782205478171e-02
3.564000000000000057e+01,3.186764030686155963e-02
3.567999999999999972e+01,2.704251933071721500e-02
3.571999999999999886e+01,3.145461397300777090e-02
3.575999999999999801e+01,4.510392496590583111e-02
3.579999999999999716e+01,4.124994622321226379e-02
3.584000000000000341e+01,3.237158165900659579e-02
3.588000000000000256e+01,4.812648502220102237e-02
3.592000000000000171e+01,4.394714568101529273e-02
3.596000000000000085e+01,3.992946040082262504e-02
3.600000000000000000e+01,5.309011607094131502e-02
3.603999999999999915e+01,3.367556437360390287e-02
3.607999999999999829e+01,4.456651298357833940e-02
3.611999999999999744e+01,3.795417771534238816e-02
3.615999999999999659e+01,5.143733252447623555e-02
3.620000000000000284e+01,4.790339595280625890e-02
3.624000000000000199e+01,6.511320563359976332e-02
3.628000000000000114e+01,5.752686886895393842e-02
3.632000000000000028e+01,5.139870217635181954e-02
3.635999999999999943e+01,6.552809289966980699e-02
3.639999999999999858e+01,6.020944073774078115e-02
3.643999999999999773e+01,7.044850080315116780e-02
3.647999999999999687e+01,6.577730242289865636e-02
3.652000000000000313e+01,6.888476120535005909e-02
3.656000000000000227e+01,6.777816573383252385e-02
3.660000000000000142e+01,8.547055897208707953e-02
3.664000000000000057e+01,7.820474867676900643e-02
3.667999999999999972e+01,7.110060562155168240e-02
3.671999999999999886e+01,9.300546516691178545e-02
3.675999999999999801e+01,8.363163994542024970e-02
3.679999999999999716e+01,8.608806895401872883e-02
3.684000000000000341e+01,9.000267755290529414e-02
3.688000000000000256e+01,9.018942878826545495e-02
3.692000000000000171e+01,1.140370849213919735e-01
3.696000000000000085e+01,9.688223928730395340e-02
3.700000000000000000e+01,1.165154579079828445e-01
3.703999999999999915e+01,1.261003386640288937e-01
3.707999999999999829e+01,1.306608562959148678e-01
3.711999999999999744e+01,1.323038393457458273e-01
3.715999999999999659e+01,1.443185101160367467e-01
3.720000000000000284e+01,1.344541974792269334e-01
3.724000000000000199e+01,1.652674817547104269e-01
3.728000000000000114e+01,1.599401804509735792e-01
3.732000000000000028e+01,1.815150649204716471e-01
3.735999999999999943e+01,1.919071716389083304e-01
3.739999999999999858e+01,2.039195318757373587e-01
3.743999999999999773e+01,2.246829481813638063e-01
3.747999999999999687e+01,2.357221620316308497e-01
3.752000000000000313e+01,2.558365607704147227e-01
3.756000000000000227e+01,2.730334329810427674e-01
3.760000000000000142e+01,2.944435812139199471e-01
3.764000000000000057e+01,3.184463694243478971e-01
3.767999999999999972e+01,3.432590978899414114e-01
3.771999999999999886e+01,3.497582533757946921e-01
3.775999999999999801e+01,3.946661238045663378e-01
3.779999999999999716e+01,4.449217196602601732e-01
3.784000000000000341e+01,4.557954666334085858e-01
3.788000000000000256e+01,5.334390743412361635e-01
3.792000000000000171e+01,5.650562238456924291e-01
3.796000000000000085e+01,5.978074460858968653e-01
3.800000000000000000e+01,6.577849939016455760e-01
3.803999999999999915e+01,7.469336321573559756e-01
3.807999999999999829e+01,7.748218294357984703e-01
3.811999999999999744e+01,8.114610952299735613e-01
3.815999999999999659e+01,8.628477863464762976e-01
3.820000000000000284e+01,9.186098281455051806e-01
3.824000000000000199e+01,9.511963961524254607e-01
3.828000000000000114e+01,9.755173494466230499e-01
3.832000000000000028e+01,1.000000000000000000e+00
3.835999999999999943e+01,9.875317663543826674e-01
3.839999999999999858e+01,9.551293353990895074e-01
3.843999999999999773e+01,9.442810093541907923e-01
3.847999999999999687e+01,8.995610111828707955e-01
3.852000000000000313e+01,8.473857210802997475e-01
3.856000000000000227e+01,8.169266017623283416e-01
3.860000000000000142e+01,7.516234304483307982e-01
3.864000000000000057e+01,6.999332474989230501e-01
3.867999999999999972e+01,6.581285890594746890e-01
3.871999999999999886e+01,6.198889724323614070e-01
3.875999999999999801e+01,5.703045400025422706e-01
3.879999999999999716e+01,5.447051742379781514e-01
3.884000000000000341e+01,4.999819376060727349e-01
3.888000000000000256e+01,4.743818587731544190e-01
3.892000000000000171e+01,4.424609410745214411e-01
3.896000000000000085e+01,4.142671332589462074e-01
3.900000000000000000e+01,3.744043866783269836e-01
3.903999999999999915e+01,3.635506851642987813e-01
3.907999999999999829e+01,3.387591548619524051e-01
3.911999999999999744e+01,3.131569543961156832e-01
3.915999999999999659e+01,3.001953697469907922e-01
3.920000000000000284e+01,2.825335881342304067e-01
3.924000000000000199e+01,2.598474829346330006e-01
3.928000000000000114e+01,2.451021490953393944e-01
3.932000000000000028e+01,2.420250519353255581e-01
3.935999999999999943e+01,2.310064871866247815e-01
3.939999999999999858e+01,2.183669390112067676e-01
3.943999999999999773e+01,1.994065614883181181e-01
3.947999999999999687e+01,1.958418881602032036e-01
3.952000000000000313e+01,1.639157267835172072e-01
3.956000000000000227e+01,1.783394335041865453e-01
3.960000000000000142e+01,1.703980097150528950e-01
3.964000000000000057e+01,1.668319629666605852e-01
3.967999999999999972e+01,1.537038177100915060e-01
3.971999999999999886e+01,1.520818527768416362e-01
3.975999999999999801e+01,1.392771540228893157e-01
3.979999999999999716e+01,1.417061016434047194e-01
3.984000000000000341e+01,1.225802415355885383e-01
3.988000000000000256e+01,1.235499395971984826e-01
3.992000000000000171e+01,1.324604207338745399e-01
3.996000000000000085e+01,1.253262613800983361e-01
4.000000000000000000e+01,1.133298560284525663e-01
4.003999999999999915e+01,1.236979032625429437e-01
4.007999999999999829e+01,1.152662296820182453e-01
4.011999999999999744e+01,1.094272414737486182e-01
4.015999999999999659e+01,9.937426490704838467e-02
4.020000000000000284e+01,1.029343052596714547e-01
4.024000000000000199e+01,1.048733775612028102e-01
4.028000000000000114e+01,1.053535462215022533e-01
4.032000000000000028e+01,8.800638052634519870e-02
4.035999999999999943e+01,1.025854302578444177e-01
4.039999999999999858e+01,1.181365337099362228e-01
4.043999999999999773e+01,1.020848923996858088e-01
4.047999999999999687e+01,8.327784168756989513e-02
4.052000000000000313e+01,9.574875462005252857e-02
4.056000000000000227e+01,1.018988587058986817e-01
4.060000000000000142e+01,9.362497079292603219e-02
4.064000000000000057e+01,8.599901363820761091e-02
4.067999999999999972e+01,8.258638888303228287e-02
4.071999999999999886e+01,8.046995106120496954e-02
4.075999999999999801e+01,8.208065607020473275e-02
4.079999999999999716e+01,7.591198352642006264e-02
4.084000000000000341e+01,7.428077366624334654e-02
4.088000000000000256e+01,7.637670883341168837e-02
4.092000000000000171e+01,7.020707761125218049e-02
4.096000000000000085e+01,7.132999378989930694e-02
4.100000000000000000e+01,6.386321768818972733e-02
4.103999999999999915e+01,7.697821202197435708e-02
4.107999999999999829e+01,7.404858636614090883e-02
4.111999999999999744e+01,7.144277289925929364e-02
4.115999999999999659e+01,7.402268268411520136e-02
4.120000000000000284e+01,6.493369397342269034e-02
4.124000000000000199e+01,7.156456902847461998e-02
4.128000000000000114e+01,7.252290312674616879e-02
4.132000000000000028e+01,7.574981720707807398e-02
4.135999999999999943e+01,6.293211642300038100e-02
4.139999999999999858e+01,5.870348051512525034e-02
4.143999999999999773e+01,6.419835595943501616e-02
4.147999999999999687e+01,6.077942055408568078e-02
4.152000000000000313e+01,6.708399796526651193e-02
4.156000000000000227e+01,6.609540276800456027e-02
4.160000000000000142e+01,6.299967338045968368e-02
4.164000000000000057e+01,6.217252983235623670e-02
4.167999999999999972e+01,6.004857194675073534e-02
4.171999999999999886e+01,6.845844892697411366e-02
4.175999999999999801e+01,5.336878919090778939e-02
4.179999999999999716e+01,5.659202231399660527e-02
4.184000000000000341e+01,7.196972927630333750e-02
4.188000000000000256e+01,6.822362101639004028e-02
4.192000000000000171e+01,6.496340326656860342e-02
4.196000000000000085e+01,6.640273237887638069e-02
4.200000000000000000e+01,6.022476958126628255e-02
4.203999999999999915e+01,5.955667349856611642e-02
4.207999999999999829e+01,5.840208878852586050e-02
4.211999999999999744e+01,6.518832742304739303e-02
4.215999999999999659e+01,6.873299637389343464e-02
4.220000000000000284e+01,6.547069546412029317e-02
4.224000000000000199e+01,5.410491600440385518e-02
4.228000000000000114e+01,7.158617723957595713e-02
4.232000000000000028e+01,6.248870213282044922e-02
4.235999999999999943e+01,7.235238484638555068e-02
4.239999999999999858e+01,7.719180181475286673e-02
4.243999999999999773e+01,7.117266137335945264e-02
4.247999999999999687e+01,7.309435086608162546e-02
4.252000000000000313e+01,7.793289701679195769e-02
4.256000000000000227e+01,6.429589510296566945e-02
4.260000000000000142e+01,6.897180069174753403e-02
4.264000000000000057e+01,6.959582699449008703e-02
4.267999999999999972e+01,7.410909495003398240e-02
4.271999999999999886e+01,7.538080347231936040e-02
4.275999999999999801e+01,6.741459721909623393e-02
4.279999999999999716e+01,7.014430927805066773e-02
4.284000000000000341e+01,8.486644980285208695e-02
4.288000000000000256e+01,8.710940419492081699e-02
4.292000000000000171e+01,7.217332653350361227e-02
4.296000000000000085e+01,8.592223833622283924e-02
4.300000000000000000e+01,8.330243793823691179e-02
4.303999999999999915e+01,8.991998714628055001e-02
4.307999999999999829e+01,8.713756375850960356e-02
4.311999999999999744e+01,7.625167792859370575e-02
4.315999999999999659e+01,9.858856819891630152e-02
4.320000000000000284e+01,8.964689158218364096e-02
4.324000000000000199e+01,9.836987947207305460e-02
4.328000000000000114e+01,1.098476742535438172e-01
4.332000000000000028e+01,1.052808900470647985e-01
4.335999999999999943e+01,1.076825698163771244e-01
4.339999999999999858e+01,1.061944478886175797e-01
4.343999999999999773e+01,1.079473268141912939e-01
4.347999999999999687e+01,1.160204172013258872e-01
4.352000000000000313e+01,1.117763968481772369e-01
4.356000000000000227e+01,1.179041813631123009e-01
4.360000000000000142e+01,1.217628046187097385e-01
4.364000000000000057e+01,1.205971848264615065e-01
4.367999999999999972e+01,1.199174877599017142e-01
4.371999999999999886e+01,1.354438908868519087e-01
4.375999999999999801e+01,1.425427159310451997e-01
4.379999999999999716e+01,1.472103196990769969e-01
4.384000000000000341e+01,1.476640024685619001e-01
4.388000000000000256e+01,1.533034582775244514e-01
4.392000000000000171e+01,1.565116950068434487e-01
4.396000000000000085e+01,1.496717205373978565e-01
4.400000000000000000e+01,1.611446791966029968e-01
4.403999999999999915e+01,1.731035671710504653e-01
4.407999999999999829e+01,1.802002838292384168e-01
4.411999999999999744e+01,1.770867285396653112e-01
4.415999999999999659e+01,1.862897532330108352e-01
4.420000000000000284e+01,1.998682384347796048e-01
4.424000000000000199e+01,1.957815247116984625e-01
4.428000000000000114e+01,1.920186810192084648e-01
4.432000000000000028e+01,1.929554273870339176e-01
4.435999999999999943e+01,2.110706677292542022e-01
4.439999999999999858e+01,2.105483300091926524e-01
4.443999999999999773e+01,2.148876482236516117e-01
4.447999999999999687e+01,2.116097199228969272e-01
4.452000000000000313e+01,2.167588499301241756e-01
4.456000000000000227e+01,2.074840604236248831e-01
4.460000000000000142e+01,2.106879226316303033e-01
4.464000000000000057e+01,2.087054964184193173e-01
4.467999999999999972e+01,1.971610632186126255e-01
4.471999999999999886e+01,1.943678193430253553e-01
4.475999999999999801e+01,1.988671924246462608e-01
4.479999999999999716e+01,1.863496315425829108e-01
4.484000000000000341e+01,1.803143706936374546e-01
4.488000000000000256e+01,1.848130025521602660e-01
4.492000000000000171e+01,1.794255044617490136e-01
4.496000000000000085e+01,1.630174314107667721e-01
4.500000000000000000e+01,1.563329348753351444e-01
4.503999999999999915e+01,1.507826406702104105e-01
4.507999999999999829e+01,1.531732239904234627e-01
4.511999999999999744e+01,1.474603814771239529e-01
4.515999999999999659e+01,1.479057174989493184e-01
4.520000000000000284e+01,1.506197045235819765e-01
4.524000000000000199e+01,1.218930983242773464e-01
4.528000000000000114e+01,1.200688236005645337e-01
4.532000000000000028e+01,1.158133554232509965e-01
4.535999999999999943e+01,1.172298784088643547e-01
4.539999999999999858e+01,1.175117188267190416e-01
4.543999999999999773e+01,1.036937831940195204e-01
4.547999999999999687e+01,9.473752253232933795e-02
4.552000000000000313e+01,8.772579137545337413e-02
4.556000000000000227e+01,9.513749363747101007e-02
4.560000000000000142e+01,7.353956443041176350e-02
4.564000000000000057e+01,7.819571857774981760e-02
4.567999999999999972e+01,7.863798540648286872e-02
4.571999999999999886e+01,8.086272172320614626e-02
4.575999999999999801e+01,7.060832462362748307e-02
4.579999999999999716e+01,6.959132764999108323e-02
4.584000000000000341e+01,6.419838260875306013e-02
4.588000000000000256e+01,6.334299250487675226e-02
4.592000000000000171e+01,6.329769348373139037e-02
4.596000000000000085e+01,6.325216788905403675e-02
4.600000000000000000e+01,5.024132223804935599e-02
4.603999999999999915e+01,5.246423718044559981e-02
4.607999999999999829e+01,5.760407394419571336e-02
4.611999999999999744e+01,5.269573904650418777e-02
4.615999999999999659e+01,4.260114355015672677e-02
4.620000000000000284e+01,4.741618422052663873e-02
4.624000000000000199e+01,5.271719447563445043e-02
4.628000000000000114e+01,4.489082612193633776e-02
4.632000000000000028e+01,4.192614811487320459e-02
4.635999999999999943e+01,4.123014234362401553e-02
4.639999999999999858e+01,4.847503825941006789e-02
4.643999999999999773e+01,3.821683919752900949e-02
4.647999999999999687e+01,4.076145361764147573e-02
4.652000000000000313e+01,2.904424807817420143e-02
4.656000000000000227e+01,3.272287632803939222e-02
4.660000000000000142e+01,3.089112467777357582e-02
4.664000000000000057e+01,3.651408807451756583e-02
4.667999999999999972e+01,3.046825328336599109e-02
4.671999999999999886e+01,4.370778347472793063e-02
4.675999999999999801e+01,3.442025053750379093e-02
4.679999999999999716e+01,3.696315487353175888e-02
4.684000000000000341e+01,2.362360833049014300e-02
4.688000000000000256e+01,2.389720097960404410e-02
4.692000000000000171e+01,2.530503037113936149e-02
4.696000000000000085e+01,3.108837079101065687e-02
4.700000000000000000e+01,2.714768301261284711e-02
4.703999999999999915e+01,3.114790863601266807e-02
4.707999999999999829e+01,3.174459095528552738e-02
4.711999999999999744e+01,2.812741231416865037e-02
4.715999999999999659e+01,2.613066584157032815e-02
4.720000000000000284e+01,2.737498904653425449e-02
4.724000000000000199e+01,1.970560683470043081e-02
4.728000000000000114e+01,2.094952448382265270e-02
4.732000000000000028e+01,1.976228528797653941e-02
4.735999999999999943e+01,1.841278146695404447e-02
4.739999999999999858e+01,1.949403259592157739e-02
4.743999999999999773e+01,2.300603940705168299e-02
4.747999999999999687e+01,2.311451023578138878e-02
4.752000000000000313e+01,2.938120279782231725e-02
4.756000000000000227e+01,1.587592939541093706e-02
4.760000000000000142e+01,2.992128464535343674e-02
4.764000000000000057e+01,1.836038299845324170e-02
4.767999999999999972e+01,2.316771770784228912e-02
4.771999999999999886e+01,1.776484636500857278e-02
4.775999999999999801e+01,2.014083792539293413e-02
4.779999999999999716e+01,2.494759175749380539e-02
4.784000000000000341e+01,1.922001437851565686e-02
4.788000000000000256e+01,1.495081866947657774e-02
4.792000000000000171e+01,2.218795337914961779e-02
4.796000000000000085e+01,1.678393126432920282e-02
4.800000000000000000e+01,2.288624103256620135e-02
4.803999999999999915e+01,1.861628692827454676e-02
4.807999999999999829e+01,2.018043745233694466e-02
4.811999999999999744e+01,1.266883498971277909e-02
4.815999999999999659e+01,2.752183374387234469e-02
4.820000000000000284e+01,1.547207643010954300e-02
4.824000000000000199e+01,8.608171962642983954e-03
4.828000000000000114e+01,1.551949599106178246e-02
4.832000000000000028e+01,1.108617920603781164e-02
4.835999999999999943e+01,1.070427172001836916e-02
4.839999999999999858e+01,1.793917517429236691e-02
4.843999999999999773e+01,2.403945170592892630e-02
4.847999999999999687e+01,2.122604551811986193e-02
4.852000000000000313e+01,1.176784883065724874e-02
4.856000000000000227e+01,1.705726783041109154e-02
4.860000000000000142e+01,8.733159654311270850e-03
4.864000000000000057e+01,1.467047759671196404e-02
4.867999999999999972e+01,9.263161315223701966e-03
4.871999999999999886e+01,1.844139997195543348e-02
4.875999999999999801e+01,2.065072516669530164e-02
4.879999999999999716e+01,1.945653854073214548e-02
4.884000000000000341e+01,1.096931256174821408e-02
4.888000000000000256e+01,8.478269532258428387e-03
4.892000000000000171e+01,1.425230167205493795e-02
4.896000000000000085e+01,1.986409847358107383e-02
4.900000000000000000e+01,1.818285885077701794e-02
4.903999999999999915e+01,2.249780510615772069e-02
4.907999999999999829e+01,1.627844284781147094e-02
4.911999999999999744e+01,1.832415941961476613e-02
4.915999999999999659e+01,1.664224340489468823e-02
4.920000000000000284e+01,2.241508929623388727e-02
4.924000000000000199e+01,1.554680179260444287e-02
4.928000000000000114e+01,1.775391443625056256e-02
4.932000000000000028e+01,1.607133374437684156e-02
4.935999999999999943e+01,2.314002730874982830e-02
4.939999999999999858e+01,1.643314466303500559e-02
4.943999999999999773e+01,7.457207655189299067e-03
4.947999999999999687e+01,1.290477581915675138e-02
4.952000000000000313e+01,1.316614488697080004e-02
4.956000000000000227e+01,2.298911026033028174e-02
4.960000000000000142e+01,1.466078378691347897e-02
4.964000000000000057e+01,1.735262818257135228e-02
4.967999999999999972e+01,2.798543430342158647e-02
4.971999999999999886e+01,2.468060639387815655e-02
4.975999999999999801e+01,1.230005551672670380e-02
4.979999999999999716e+01,1.353269728033413243e-02
4.984000000000000341e+01,1.217216464816294613e-02
4.988000000000000256e+01,1.178385926150198222e-02
4.992000000000000171e+01,1.625731011701435705e-02
4.996000000000000085e+01,1.116885063272072230e-02
5.000000000000000000e+01,1.223865827644249338e-02
5.003999999999999915e+01,2.400451675559122158e-02
5.007999999999999829e+01,5.626380025189920732e-03
5.011999999999999744e+01,2.063321047075509021e-02
5.015999999999999659e+01,1.586812254309004355e-02
5.020000000000000284e+01,1.580273230511975574e-02
5.024000000000000199e+01,1.589925751377808949e-02
5.028000000000000114e+01,1.875071774423123575e-02
5.032000000000000028e+01,1.738837558810654368e-02
5.035999999999999943e+01,1.975335198424460481e-02
5.039999999999999858e+01,1.855278216889848925e-02
5.043999999999999773e+01,1.670381307260870515e-02
5.047999999999999687e+01,2.474058447720947629e-02
5.052000000000000313e+01,1.689497236262432756e-02
5.056000000000000227e+01,1.715240175871690642e-02
5.060000000000000142e+01,2.129921777779520894e-02
5.064000000000000057e+01,1.004984350726687362e-02
5.067999999999999972e+01,1.533082418366348357e-02
5.071999999999999886e+01,1.688420082827005175e-02
5.075999999999999801e+01,1.876156611543668487e-02
5.079999999999999716e+01,2.128704813271029700e-02
5.084000000000000341e+01,2.365032922382803021e-02
5.088000000000000256e+01,1.920679933579134968e-02
5.092000000000000171e+01,1.443900630825694677e-02
5.096000000000000085e+01,1.842251682387520406e-02
5.100000000000000000e+01,1.608540958991826544e-02
5.103999999999999915e+01,1.585499657828810804e-02
5.107999999999999829e+01,2.470001666170273946e-02
5.111999999999999744e+01,1.539377272090174976e-02
5.115999999999999659e+01,1.370439024030692572e-02
5.120000000000000284e+01,1.817329685290698660e-02
5.124000000000000199e+01,1.956286366270983124e-02
5.128000000000000114e+01,1.738690036882676454e-02
5.132000000000000028e+01,2.039684629853394035e-02
5.135999999999999943e+01,2.129983668808443226e-02
5.139999999999999858e+01,9.237605864615064735e-03
5.143999999999999773e+01,2.180892778370608492e-02
5.147999999999999687e+01,1.687724697888372261e-02
5.152000000000000313e+01,1.048686827334364621e-02
5.156000000000000227e+01,1.009272157286520734e-02
5.160000000000000142e+01,1.212940670050487689e-02
5.164000000000000057e+01,1.481422393387708293e-02
5.167999999999999972e+01,1.847130136052871699e-02
5.171999999999999886e+01,1.337681905140636861e-02
5.175999999999999801e+01,1.719571860657670426e-02
5.179999999999999716e+01,1.615258815480878976e-02
5.184000000000000341e+01,1.381282933739147803e-02
5.188000000000000256e+01,2.087264561384608377e-02
5.192000000000000171e+01,1.723614168314470396e-02
5.196000000000000085e+01,1.651666720317651604e-02
5.200000000000000000e+01,1.158342108788173661e-02
5.203999999999999915e+01,1.540149828440108559e-02
5.207999999999999829e+01,1.387135956612934803e-02
5.211999999999999744e+01,2.157873665707844141e-02
5.215999999999999659e+01,2.102075309921389024e-02
5.220000000000000284e+01,2.143503925287322184e-02
5.224000000000000199e+01,1.082888370138357717e-02
5.228000000000000114e+01,2.420804155733149304e-02
5.232000000000000028e+01,9.874200370704211763e-03
5.235999999999999943e+01,1.644646417980490105e-02
5.239999999999999858e+01,1.507749908850215120e-02
5.243999999999999773e+01,1.873240004393663879e-02
5.247999999999999687e+01,1.671496505093237814e-02
5.252000000000000313e+01,1.583186930452029975e-02
5.256000000000000227e+01,1.900025973524083200e-02
5.260000000000000142e+01,1.260678814955008484e-02
5.264000000000000057e+01,1.609909660207298893e-02
5.267999999999999972e+01,1.716034632076234717e-02
5.271999999999999886e+01,1.692498378160057354e-02
5.275999999999999801e+01,2.301000256805410538e-02
5.279999999999999716e+01,1.839871725514997253e-02
5.284000000000000341e+01,1.362526762472229640e-02
5.288000000000000256e+01,2.116855759085065070e-02
5.292000000000000171e+01,2.773936631536533248e-02
5.296000000000000085e+01,1.648307205098036715e-02
5.300000000000000000e+01,1.624701015817254374e-02
5.303999999999999915e+01,1.860387012938526444e-02
5.307999999999999829e+01,2.306746166372979079e-02
5.311999999999999744e+01,2.153460160902372772e-02
5.315999999999999659e+01,1.189846288750746189e-02
5.320000000000000284e+01,2.008923466128973920e-02
5.324000000000000199e+01,2.114911129872971279e-02
5.328000000000000114e+01,1.102650158982245582e-02
5.332000000000000028e+01,2.018937767191569463e-02
5.335999999999999943e+01,9.580393954590586680e-03
5.339999999999999858e+01,2.230848943478878563e-02
5.343999999999999773e+01,1.267170773692039530e-02
5.347999999999999687e+01,2.604787934554637918e-02
5.352000000000000313e+01,2.597267751324160157e-02
5.356000000000000227e+01,2.395262408796292042e-02
5.360000000000000142e+01,1.950152876882164585e-02
5.364000000000000057e+01,1.472622009792277399e-02
5.367999999999999972e+01,1.643337327029721281e-02
5.371999999999999886e+01,2.332647959662080203e-02
5.375999999999999801e+01,1.660615319736243392e-02
5.379999999999999716e+01,1.928543703626308184e-02
5.384000000000000341e+01,1.985781072971131919e-02
5.388000000000000256e+01,1.848533868756679563e-02
5.392000000000000171e+01,1.646453106349901260e-02
5.396000000000000085e+01,1.557808904423874617e-02
5.400000000000000000e+01,1.258473980821656242e-02
5.403999999999999915e+01,1.477734958352470984e-02
5.407999999999999829e+01,1.696988141634860406e-02
5.411999999999999744e+01,1.105915215450583439e-02
5.415999999999999659e+01,1.406184868731464449e-02
5.420000000000000284e+01,1.868510625102814612e-02
5.424000000000000199e+01,1.390859549509614740e-02
5.428000000000000114e+01,2.371774144938216394e-02
5.432000000000000028e+01,1.991346492850334243e-02
5.435999999999999943e+01,1.254371468123254181e-02
5.439999999999999858e+01,1.117024842328141407e-02
5.443999999999999773e+01,1.190353862233217361e-02
5.447999999999999687e+01,1.960549634117052589e-02
5.452000000000000313e+01,1.191133479114910368e-02
5.456000000000000227e+01,1.523743416743809052e-02
5.460000000000000142e+01,1.629457363186781818e-02
5.464000000000000057e+01,1.654132701579487039e-02
5.467999999999999972e+01,2.278436951425012041e-02
5.471999999999999886e+01,1.914146144607031461e-02
5.475999999999999801e+01,2.506024486588023098e-02
5.479999999999999716e+01,2.238958860489717595e-02
5.484000000000000341e+01,2.620141542019420455e-02
5.488000000000000256e+01,2.417888653972435214e-02
5.492000000000000171e+01,1.097390133198578900e-02
5.496000000000000085e+01,2.353697904181039496e-02
5.500000000000000000e+01,2.426934717796322416e-02
5.503999999999999915e+01,2.678435539833350088e-02
5.507999999999999829e+01,2.508564836067105411e-02
5.511999999999999744e+01,1.836290840871303287e-02
5.515999999999999659e+01,2.654996863014563724e-02
5.520000000000000284e+01,2.112362248421160299e-02
5.524000000000000199e+01,2.720374074458427674e-02
5.528000000000000114e+01,2.453236443254872348e-02
5.532000000000000028e+01,2.477807907374878285e-02
5.535999999999999943e+01,2.259278403668279686e-02
5.539999999999999858e+01,2.786236439243659768e-02
5.543999999999999773e+01,1.984267012923392193e-02
5.547999999999999687e+01,2.851548235136108084e-02
5.552000000000000313e+01,2.649204026187063077e-02
5.556000000000000227e+01,2.819601190708729069e-02
5.560000000000000142e+01,1.871753967197025900e-02
5.564000000000000057e+01,2.933491408230284522e-02
5.567999999999999972e+01,2.471825413446964576e-02
5.571999999999999886e+01,2.885298485833415194e-02
5.575999999999999801e+01,2.472242082892348036e-02
5.579999999999999716e+01,2.091593769582662105e-02
5.584000000000000341e+01,1.727147251352916316e-02
5.588000000000000256e+01,2.934713907216545542e-02
5.592000000000000171e+01,2.165099269043289226e-02
5.596000000000000085e+01,1.978909517506625623e-02
5.600000000000000000e+01,2.748891184504142701e-02
5.603999999999999915e+01,2.967852140763065777e-02
5.607999999999999829e+01,2.733030666112921253e-02
5.611999999999999744e+01,1.639267639553218525e-02
5.615999999999999659e+01,2.636122068206472185e-02
5.620000000000000284e+01,2.401288632704366016e-02
5.624000000000000199e+01,2.506785079829047108e-02
5.628000000000000114e+01,3.033643321641329993e-02
5.632000000000000028e+01,2.215369344569074334e-02
5.635999999999999943e+01,2.320854709448973846e-02
5.639999999999999858e+01,2.393923791144380794e-02
5.643999999999999773e+01,3.001799534777425602e-02
5.647999999999999687e+01,3.204512682980182464e-02
5.652000000000000313e+01,2.062093978384721069e-02
5.656000000000000227e+01,2.426864221501298657e-02
5.660000000000000142e+01,2.013725630159051913e-02
5.664000000000000057e+01,2.702616938745615663e-02
5.667999999999999972e+01,2.824282340301114899e-02
5.671999999999999886e+01,2.783881102260563414e-02
5.675999999999999801e+01,2.386936884616710705e-02
5.679999999999999716e+01,2.686863665552973596e-02
5.684000000000000341e+01,2.533009406708199365e-02
5.688000000000000256e+01,3.383947280483574210e-02
5.692000000000000171e+01,2.079435645197867319e-02
5.696000000000000085e+01,2.541415574096215005e-02
5.700000000000000000e+01,2.646852962694848030e-02
5.703999999999999915e+01,3.173653537109114714e-02
5.707999999999999829e+01,2.582212432528814550e-02
5.711999999999999744e+01,3.384516726321293995e-02
5.715999999999999659e+01,3.100992223091161848e-02
5.720000000000000284e+01,2.768846533253128267e-02
5.724000000000000199e+01,2.339460626718328079e-02
5.728000000000000114e+01,2.963486688282454540e-02
5.732000000000000028e+01,3.360621737434660306e-02
5.735999999999999943e+01,3.725342260616736761e-02
5.739999999999999858e+01,2.728726174011718991e-02
5.743999999999999773e+01,2.915173290524359848e-02
5.747999999999999687e+01,3.117825204024797861e-02
5.752000000000000313e+01,2.963935529049964782e-02
5.756000000000000227e+01,3.409680037171020778e-02
5.760000000000000142e+01,2.753390185890666406e-02
5.764000000000000057e+01,3.490846684807530353e-02
5.767999999999999972e+01,3.012824396376545533e-02
5.771999999999999886e+01,3.069611112835665331e-02
5.775999999999999801e+01,3.029158564422464173e-02
5.779999999999999716e+01,3.053530502041312128e-02
5.784000000000000341e+01,3.126520631140755624e-02
5.788000000000000256e+01,3.556050012543557348e-02
5.792000000000000171e+01,4.131435938473753539e-02
5.796000000000000085e+01,3.815470944951149940e-02
5.800000000000000000e+01,3.061933402716900468e-02
5.803999999999999915e+01,4.042476665995432816e-02
5.807999999999999829e+01,3.240319002193908782e-02
5.811999999999999744e+01,2.972971075455142428e-02
5.815999999999999659e+01,2.478733673867017373e-02
5.820000000000000284e+01,2.989290821068782064e-02
5.824000000000000199e+01,3.467435053080238777e-02
5.828000000000000114e+01,3.264911732370249370e-02
5.832000000000000028e+01,4.050976812333233895e-02
5.835999999999999943e+01,4.188787221546718537e-02
5.839999999999999858e+01,3.224564735704088525e-02
5.843999999999999773e+01,3.475820018948164863e-02
5.847999999999999687e+01,3.743281929611661646e-02
5.852000000000000313e+01,3.573172243387949532e-02
5.856000000000000227e+01,2.965491033494302431e-02
5.860000000000000142e+01,3.638113356631263173e-02
5.864000000000000057e+01,4.132466186832175342e-02
5.867999999999999972e+01,3.281691117967172611e-02
5.871999999999999886e+01,3.370886078641657790e-02
5.875999999999999801e+01,3.541113650331254026e-02
5.879999999999999716e+01,3.257563769885788579e-02
5.884000000000000341e+01,3.476412208876431681e-02
5.888000000000000256e+01,3.695261639690432254e-02
5.892000000000000171e+01,3.541365676864714068e-02
5.896000000000000085e+01,3.695391839902374687e-02
5.900000000000000000e+01,4.076308363177132132e-02
5.903999999999999915e+01,3.890003299239444545e-02
5.907999999999999829e+01,4.092652419660477991e-02
5.911999999999999744e+01,4.117032925752653338e-02
5.915999999999999659e+01,3.557985696515462981e-02
5.920000000000000284e+01,3.955115743193651778e-02
5.924000000000000199e+01,4.125358291888635981e-02
5.928000000000000114e+01,3.452871440606692516e-02
5.932000000000000028e+01,3.768974820429337597e-02
5.935999999999999943e+01,4.101286438451227229e-02
5.939999999999999858e+01,4.222917219127687166e-02
5.943999999999999773e+01,3.728708041458216743e-02
5.947999999999999687e+01,3.558628309245281951e-02
5.952000000000000313e+01,3.712678095706144904e-02
5.956000000000000227e+01,4.660842139350661328e-02
5.960000000000000142e+01,3.421148843953428914e-02
5.964000000000000057e+01,3.283490939779878937e-02
5.967999999999999972e+01,3.567201053761437368e-02
5.971999999999999886e+01,3.332309928530192283e-02
5.975999999999999801e+01,3.972565265412474761e-02
5.979999999999999716e+01,4.256283187203586255e-02
5.984000000000000341e+01,3.826923676209156161e-02
5.988000000000000256e+01,4.483393627973290829e-02
5.992000000000000171e+01,5.334342888434186192e-02
5.996000000000000085e+01,3.721927216740639893e-02
