5.0400,0.109
5.0800,0.163
5.1200,0.075
5.1600,0.075
5.2000,0.206
5.2400,0.085
5.2800,-0.011
5.3200,0.093
5.3600,0.371
5.4000,0.250
5.4400,0.097
5.4800,0.093
5.5200,0.125
5.5600,0.213
5.6000,-0.191
5.6400,-0.071
5.6800,0.179
5.7200,0.039
5.7600,-0.052
5.8000,-0.047
5.8400,-0.068
5.8800,-0.051
5.9200,-0.209
5.9600,0.059
6.0000,-0.018
6.0400,-0.144
6.0800,-0.011
6.1200,0.014
6.1600,-0.002
6.2000,-0.114
6.2400,-0.015
6.2800,-0.205
6.3200,0.000
6.3600,-0.166
6.4000,0.184
6.4400,-0.059
6.4800,0.194
6.5200,-0.030
6.5600,0.176
6.6000,0.036
6.6400,0.115
6.6800,0.027
6.7200,0.007
6.7600,0.049
6.8000,-0.118
6.8400,-0.036
6.8800,-0.049
6.9200,-0.218
6.9600,0.026
7.0000,0.050
7.0400,0.059
7.0800,0.060
7.1200,0.005
7.1600,0.157
7.2000,-0.016
7.2400,-0.112
7.2800,0.125
7.3200,-0.099
7.3600,-0.166
7.4000,0.115
7.4400,0.124
7.4800,-0.152
7.5200,-0.072
7.5600,-0.011
7.6000,-0.016
7.6400,-0.098
7.6800,0.081
7.7200,-0.055
7.7600,-0.010
7.8000,-0.099
7.8400,0.005
7.8800,0.176
7.9200,-0.016
7.9600,-0.021
8.0000,-0.008
8.0400,0.179
8.0800,-0.066
8.1200,-0.096
8.1600,0.041
8.2000,-0.079
8.2400,-0.082
8.2800,-0.092
8.3200,0.171
8.3600,0.177
8.4000,0.205
8.4400,0.041
8.4800,-0.155
8.5200,-0.047
8.5600,0.015
8.6000,0.262
8.6400,-0.002
8.6800,-0.011
8.7200,0.138
8.7600,-0.144
8.8000,-0.004
8.8400,-0.023
8.8800,0.040
8.9200,-0.004
8.9600,0.015
9.0000,-0.048
9.0400,-0.087
9.0800,-0.061
9.1200,0.260
9.1600,-0.034
9.2000,-0.136
9.2400,0.034
9.2800,0.000
9.3200,-0.030
9.3600,-0.055
9.4000,-0.068
9.4400,0.068
9.4800,0.129
9.5200,0.150
9.5600,0.143
9.6000,-0.222
9.6400,-0.026
9.6800,-0.040
9.7200,0.084
9.7600,-0.114
9.8000,0.050
9.8400,0.000
9.8800,0.087
9.9200,0.006
9.9600,0.075
10.0000,0.066
10.0400,-0.021
10.0800,-0.104
10.1200,0.011
10.1600,0.168
10.2000,0.085
10.2400,0.076
10.2800,0.118
10.3200,0.058
10.3600,0.159
10.4000,0.080
10.4400,0.178
10.4800,0.025
10.5200,0.033
10.5600,0.170
10.6000,0.033
10.6400,0.095
10.6800,-0.054
10.7200,-0.026
10.7600,0.180
10.8000,0.129
10.8400,-0.074
10.8800,0.030
10.9200,-0.025
10.9600,0.145
11.0000,-0.002
11.0400,0.061
11.0800,0.019
11.1200,-0.093
11.1600,-0.042
11.2000,-0.187
11.2400,0.124
11.2800,-0.002
11.3200,0.019
11.3600,0.253
11.4000,0.109
11.4400,-0.005
11.4800,0.008
11.5200,0.081
11.5600,-0.020
11.6000,-0.092
11.6400,-0.026
11.6800,0.112
11.7200,0.004
11.7600,0.044
11.8000,0.058
11.8400,-0.111
11.8800,-0.013
11.9200,-0.008
11.9600,-0.091
12.0000,-0.091
12.0400,-0.022
12.0800,-0.068
12.1200,0.238
12.1600,0.080
12.2000,0.056
12.2400,-0.050
12.2800,-0.061
12.3200,0.020
12.3600,0.092
12.4000,0.008
12.4400,0.141
12.4800,0.081
12.5200,0.014
12.5600,0.151
12.6000,0.066
12.6400,-0.010
12.6800,-0.039
12.7200,0.032
12.7600,0.048
12.8000,0.100
12.8400,-0.036
12.8800,-0.143
12.9200,0.030
12.9600,0.143
13.0000,0.014
13.0400,0.085
13.0800,-0.039
13.1200,0.129
13.1600,0.180
13.2000,0.120
13.2400,0.023
13.2800,0.072
13.3200,0.109
13.3600,-0.080
13.4000,-0.090
13.4400,0.033
13.4800,0.129
13.5200,-0.062
13.5600,0.161
13.6000,0.005
13.6400,-0.049
13.6800,-0.059
13.7200,0.056
13.7600,-0.017
13.8000,0.024
13.8400,0.119
13.8800,-0.058
13.9200,0.018
13.9600,-0.027
14.0000,0.198
14.0400,0.009
14.0800,-0.014
14.1200,-0.159
14.1600,0.016
14.2000,0.117
14.2400,0.039
14.2800,-0.003
14.3200,0.068
14.3600,0.059
14.4000,-0.025
14.4400,0.038
14.4800,0.013
14.5200,0.054
14.5600,-0.105
14.6000,-0.063
14.6400,0.185
14.6800,0.025
14.7200,-0.003
14.7600,0.092
14.8000,-0.050
14.8400,0.106
14.8800,-0.075
14.9200,-0.058
14.9600,0.039
15.0000,0.020
15.0400,-0.117
15.0800,0.082
15.1200,0.038
15.1600,-0.113
15.2000,0.022
15.2400,-0.077
15.2800,-0.077
15.3200,-0.077
15.3600,-0.012
15.4000,0.102
15.4400,0.107
15.4800,0.156
15.5200,-0.128
15.5600,-0.156
15.6000,0.142
15.6400,0.079
15.6800,0.145
15.7200,0.180
15.7600,0.167
15.8000,-0.134
15.8400,-0.061
15.8800,-0.074
15.9200,0.025
15.9600,-0.025
16.0000,-0.066
16.0400,-0.001
16.0800,-0.079
16.1200,0.210
16.1600,0.193
16.2000,0.161
16.2400,-0.033
16.2800,0.091
16.3200,-0.053
16.3600,0.026
16.4000,0.023
16.4400,-0.141
16.4800,-0.033
16.5200,0.035
16.5600,0.062
16.6000,0.118
16.6400,0.084
16.6800,0.094
16.7200,0.022
16.7600,0.066
16.8000,0.100
16.8400,0.087
16.8800,-0.022
16.9200,0.087
16.9600,-0.079
17.0000,0.023
17.0400,0.067
17.0800,0.020
17.1200,-0.004
17.1600,-0.029
17.2000,0.050
17.2400,0.031
17.2800,0.093
17.3200,0.006
17.3600,0.171
17.4000,-0.025
17.4400,0.005
17.4800,-0.074
17.5200,0.080
17.5600,0.087
17.6000,-0.048
17.6400,0.022
17.6800,0.031
17.7200,-0.017
17.7600,0.042
17.8000,0.053
17.8400,0.101
17.8800,-0.073
17.9200,-0.084
17.9600,0.048
18.0000,0.249
18.0400,0.053
18.0800,0.047
18.1200,0.028
18.1600,0.126
18.2000,0.064
18.2400,-0.041
18.2800,0.067
18.3200,0.028
18.3600,0.025
18.4000,0.089
18.4400,0.044
18.4800,-0.013
18.5200,0.059
18.5600,0.014
18.6000,-0.047
18.6400,-0.035
18.6800,-0.084
18.7200,-0.024
18.7600,0.055
18.8000,0.127
18.8400,-0.160
18.8800,-0.084
18.9200,0.049
18.9600,0.078
19.0000,-0.024
19.0400,-0.174
19.0800,0.027
19.1200,-0.010
19.1600,0.154
19.2000,-0.059
19.2400,-0.062
19.2800,0.051
19.3200,0.110
19.3600,0.030
19.4000,-0.006
19.4400,-0.018
19.4800,0.034
19.5200,0.164
19.5600,0.003
19.6000,-0.079
19.6400,0.088
19.6800,-0.133
19.7200,-0.082
19.7600,0.063
19.8000,0.035
19.8400,-0.048
19.8800,0.015
19.9200,-0.066
19.9600,-0.069
20.0000,-0.082
20.0400,0.067
20.0800,0.026
20.1200,-0.112
20.1600,-0.026
20.2000,0.070
20.2400,0.011
20.2800,0.094
20.3200,-0.058
20.3600,0.000
20.4000,0.023
20.4400,-0.005
20.4800,0.069
20.5200,0.013
20.5600,0.103
20.6000,-0.083
20.6400,0.032
20.6800,-0.089
20.7200,0.020
20.7600,0.073
20.8000,-0.088
20.8400,-0.046
20.8800,-0.062
20.9200,-0.035
20.9600,-0.081
21.0000,-0.021
21.0400,0.111
21.0800,-0.009
21.1200,-0.121
21.1600,0.006
21.2000,0.075
21.2400,0.039
21.2800,-0.167
21.3200,0.060
21.3600,0.104
21.4000,-0.104
21.4400,0.026
21.4800,-0.022
21.5200,-0.042
21.5600,0.004
21.6000,0.126
21.6400,-0.085
21.6800,-0.080
21.7200,-0.074
21.7600,0.043
21.8000,-0.065
21.8400,-0.064
21.8800,-0.043
21.9200,-0.056
21.9600,0.029
22.0000,0.013
22.0400,0.102
22.0800,-0.021
22.1200,-0.071
22.1600,0.044
22.2000,0.006
22.2400,0.029
22.2800,0.066
22.3200,0.065
22.3600,0.030
22.4000,0.011
22.4400,0.063
22.4800,0.088
22.5200,-0.091
22.5600,-0.056
22.6000,-0.101
22.6400,0.050
22.6800,-0.029
22.7200,0.100
22.7600,-0.018
22.8000,-0.017
22.8400,-0.034
22.8800,0.057
22.9200,0.029
22.9600,-0.043
23.0000,-0.078
23.0400,-0.091
23.0800,0.119
23.1200,-0.011
23.1600,0.059
23.2000,0.163
23.2400,-0.074
23.2800,0.028
23.3200,0.082
23.3600,0.011
23.4000,0.046
23.4400,0.073
23.4800,-0.071
23.5200,-0.003
23.5600,0.010
23.6000,0.094
23.6400,0.049
23.6800,-0.044
23.7200,0.038
23.7600,-0.057
23.8000,0.062
23.8400,0.027
23.8800,-0.087
23.9200,-0.019
23.9600,0.092
24.0000,0.112
24.0400,0.226
24.0800,0.102
24.1200,0.019
24.1600,0.013
24.2000,-0.002
24.2400,0.054
24.2800,0.033
24.3200,-0.076
24.3600,-0.097
24.4000,0.109
24.4400,0.095
24.4800,0.059
24.5200,0.072
24.5600,0.141
24.6000,-0.020
24.6400,0.110
24.6800,0.161
24.7200,-0.063
24.7600,0.047
24.8000,0.009
24.8400,0.119
24.8800,0.057
24.9200,0.012
24.9600,-0.028
25.0000,0.091
25.0400,0.022
25.0800,-0.005
25.1200,0.138
25.1600,-0.138
25.2000,-0.075
25.2400,-0.006
25.2800,-0.044
25.3200,0.044
25.3600,-0.002
25.4000,-0.049
25.4400,0.044
25.4800,-0.016
25.5200,-0.075
25.5600,-0.020
25.6000,0.068
25.6400,0.020
25.6800,0.031
25.7200,0.039
25.7600,-0.076
25.8000,-0.040
25.8400,0.003
25.8800,-0.026
25.9200,0.009
25.9600,-0.001
26.0000,0.170
26.0400,0.088
26.0800,0.127
26.1200,0.059
26.1600,-0.043
26.2000,0.010
26.2400,0.120
26.2800,-0.010
26.3200,-0.073
26.3600,-0.073
26.4000,0.071
26.4400,0.042
26.4800,0.062
26.5200,0.080
26.5600,0.071
26.6000,-0.026
26.6400,0.011
26.6800,-0.091
26.7200,-0.013
26.7600,-0.005
26.8000,0.016
26.8400,-0.027
26.8800,0.040
26.9200,0.046
26.9600,0.045
27.0000,0.005
27.0400,0.082
27.0800,-0.061
27.1200,0.048
27.1600,0.013
27.2000,0.067
27.2400,-0.007
27.2800,-0.060
27.3200,-0.073
27.3600,-0.020
27.4000,0.012
27.4400,0.010
27.4800,0.031
27.5200,-0.016
27.5600,0.014
27.6000,-0.056
27.6400,-0.021
27.6800,0.007
27.7200,0.038
27.7600,0.004
27.8000,-0.035
27.8400,-0.035
27.8800,-0.041
27.9200,-0.072
27.9600,0.014
28.0000,-0.010
28.0400,0.095
28.0800,0.025
28.1200,-0.031
28.1600,-0.074
28.2000,0.028
28.2400,-0.007
28.2800,0.009
28.3200,0.008
28.3600,0.103
28.4000,-0.014
28.4400,0.085
28.4800,-0.166
28.5200,-0.034
28.5600,0.077
28.6000,-0.078
28.6400,0.050
28.6800,-0.079
28.7200,-0.009
28.7600,0.026
28.8000,0.069
28.8400,-0.042
28.8800,-0.061
28.9200,0.020
28.9600,0.046
29.0000,-0.077
29.0400,0.132
29.0800,-0.054
29.1200,-0.074
29.1600,0.053
29.2000,0.098
29.2400,0.005
29.2800,-0.077
29.3200,-0.005
29.3600,0.065
29.4000,0.001
29.4400,0.124
29.4800,0.101
29.5200,0.091
29.5600,-0.084
29.6000,0.042
29.6400,-0.046
29.6800,0.105
29.7200,-0.044
29.7600,-0.006
29.8000,0.086
29.8400,-0.045
29.8800,-0.056
29.9200,-0.068
29.9600,0.027
30.0000,0.117
30.0400,-0.097
30.0800,0.110
30.1200,0.074
30.1600,0.043
30.2000,-0.013
30.2400,0.014
30.2800,0.024
30.3200,0.067
30.3600,0.129
30.4000,0.023
30.4400,0.084
30.4800,0.100
30.5200,0.109
30.5600,-0.024
30.6000,-0.090
30.6400,0.019
30.6800,-0.034
30.7200,-0.034
30.7600,0.006
30.8000,0.040
30.8400,0.001
30.8800,0.061
30.9200,0.053
30.9600,0.221
31.0000,0.024
31.0400,-0.021
31.0800,-0.006
31.1200,0.041
31.1600,-0.049
31.2000,-0.067
31.2400,-0.002
31.2800,0.151
31.3200,-0.086
31.3600,0.019
31.4000,0.006
31.4400,-0.122
31.4800,-0.012
31.5200,0.101
31.5600,0.129
31.6000,0.011
31.6400,-0.049
31.6800,0.010
31.7200,0.089
31.7600,0.054
31.8000,0.114
31.8400,0.033
31.8800,-0.035
31.9200,0.052
31.9600,0.071
32.0000,0.006
32.0400,0.033
32.0800,-0.003
32.1200,-0.092
32.1600,0.002
32.2000,-0.041
32.2400,0.042
32.2800,-0.066
32.3200,-0.044
32.3600,-0.011
32.4000,0.036
32.4400,0.031
32.4800,-0.003
32.5200,-0.025
32.5600,-0.028
32.6000,-0.064
32.6400,0.009
32.6800,-0.017
32.7200,-0.008
32.7600,0.064
32.8000,0.037
32.8400,-0.020
32.8800,-0.026
32.9200,0.525
32.9600,2.311
33.0000,1.968
33.0400,0.173
33.0800,0.008
33.1200,-0.047
33.1600,-0.086
33.2000,0.046
33.2400,-0.006
33.2800,-0.014
33.3200,-0.008
33.3600,-0.051
33.4000,-0.055
33.4400,-0.043
33.4800,-0.014
33.5200,-0.081
33.5600,0.015
33.6000,0.107
33.6400,0.032
33.6800,0.042
33.7200,-0.038
33.7600,0.065
33.8000,0.079
33.8400,0.062
33.8800,0.074
33.9200,0.004
33.9600,-0.072
34.0000,-0.008
34.0400,0.067
34.0800,0.115
34.1200,0.074
34.1600,-0.062
34.2000,0.102
34.2400,0.221
34.2800,-0.009
34.3200,0.026
34.3600,0.128
34.4000,0.059
34.4400,0.122
34.4800,0.028
34.5200,-0.063
34.5600,-0.036
34.6000,0.011
34.6400,0.149
34.6800,0.119
34.7200,0.034
34.7600,-0.066
34.8000,0.045
34.8400,-0.006
34.8800,0.026
34.9200,0.041
34.9600,0.033
35.0000,0.046
35.0400,0.036
35.0800,0.000
35.1200,0.030
35.1600,-0.059
35.2000,0.086
35.2400,-0.075
35.2800,0.067
35.3200,-0.078
35.3600,0.005
35.4000,0.068
35.4400,0.023
35.4800,-0.083
35.5200,-0.024
35.5600,0.051
35.6000,0.034
35.6400,0.053
35.6800,0.000
35.7200,0.089
35.7600,-0.007
35.8000,-0.051
35.8400,0.030
35.8800,-0.037
35.9200,0.018
35.9600,-0.017
36.0000,-0.050
36.0400,0.070
36.0800,-0.095
36.1200,-0.011
36.1600,0.130
36.2000,-0.026
36.2400,-0.062
36.2800,-0.050
36.3200,0.000
36.3600,0.061
36.4000,0.002
36.4400,0.100
36.4800,-0.003
36.5200,-0.024
36.5600,-0.003
36.6000,-0.119
36.6400,0.064
36.6800,-0.068
36.7200,-0.005
36.7600,-0.012
36.8000,0.003
36.8400,-0.068
36.8800,-0.004
36.9200,-0.018
36.9600,0.044
37.0000,0.063
37.0400,0.031
37.0800,-0.025
37.1200,0.033
37.1600,-0.084
37.2000,-0.033
37.2400,0.073
37.2800,-0.026
37.3200,-0.004
37.3600,0.003
37.4000,-0.086
37.4400,-0.004
37.4800,-0.062
37.5200,-0.035
37.5600,0.031
37.6000,-0.078
37.6400,0.087
37.6800,0.003
37.7200,0.000
37.7600,-0.011
37.8000,-0.100
37.8400,0.014
37.8800,0.100
37.9200,0.011
37.9600,-0.072
38.0000,0.087
38.0400,-0.104
38.0800,-0.017
38.1200,0.004
38.1600,0.093
38.2000,0.129
38.2400,0.071
38.2800,0.206
38.3200,0.229
38.3600,0.208
38.4000,0.166
38.4400,0.312
38.4800,0.471
38.5200,0.466
38.5600,0.622
38.6000,0.726
38.6400,0.900
38.6800,1.126
38.7200,1.413
38.7600,1.824
38.8000,2.269
38.8400,3.025
38.8800,3.857
38.9200,4.843
38.9600,5.660
39.0000,6.561
39.0400,7.206
39.0800,7.940
39.1200,8.253
39.1600,7.940
39.2000,8.090
39.2400,7.386
39.2800,6.829
39.3200,6.009
39.3600,4.945
39.4000,4.210
39.4400,3.363
39.4800,2.721
39.5200,2.119
39.5600,1.705
39.6000,1.313
39.6400,1.143
39.6800,0.896
39.7200,0.776
39.7600,0.732
39.8000,0.446
39.8400,0.342
39.8800,0.257
39.9200,0.295
39.9600,0.254
40.0000,0.103
40.0400,0.105
40.0800,0.055
40.1200,0.052
40.1600,0.043
40.2000,0.017
40.2400,0.021
40.2800,-0.037
40.3200,0.078
40.3600,0.003
40.4000,-0.061
40.4400,-0.023
40.4800,0.063
40.5200,-0.014
40.5600,0.079
40.6000,-0.075
40.6400,0.027
40.6800,-0.029
40.7200,0.031
40.7600,-0.161
40.8000,0.032
40.8400,0.052
40.8800,-0.094
40.9200,0.053
40.9600,-0.089
41.0000,0.086
41.0400,0.029
41.0800,-0.058
41.1200,-0.037
41.1600,0.183
41.2000,-0.020
41.2400,-0.037
41.2800,-0.052
41.3200,-0.012
41.3600,0.009
41.4000,-0.040
41.4400,0.036
41.4800,-0.062
41.5200,-0.036
41.5600,0.104
41.6000,-0.004
41.6400,-0.057
41.6800,0.003
41.7200,-0.052
41.7600,0.008
41.8000,0.041
41.8400,-0.070
41.8800,-0.004
41.9200,-0.039
41.9600,-0.030
42.0000,-0.031
42.0400,0.065
42.0800,0.045
42.1200,-0.098
42.1600,-0.031
42.2000,0.004
42.2400,-0.054
42.2800,-0.051
42.3200,0.081
42.3600,0.030
42.4000,-0.010
42.4400,-0.051
42.4800,-0.035
42.5200,0.013
42.5600,0.039
42.6000,-0.004
42.6400,-0.020
42.6800,0.000
42.7200,-0.030
42.7600,-0.053
42.8000,-0.026
42.8400,0.012
42.8800,-0.031
42.9200,0.073
42.9600,-0.023
43.0000,-0.026
43.0400,-0.035
43.0800,0.011
43.1200,0.009
43.1600,0.025
43.2000,-0.013
43.2400,-0.075
43.2800,0.014
43.3200,-0.011
43.3600,0.028
43.4000,-0.041
43.4400,0.034
43.4800,-0.023
43.5200,0.014
43.5600,0.058
43.6000,-0.029
43.6400,-0.054
43.6800,-0.053
43.7200,-0.004
43.7600,-0.016
43.8000,0.034
43.8400,-0.105
43.8800,-0.019
43.9200,-0.033
43.9600,0.031
44.0000,-0.033
44.0400,-0.089
44.0800,0.042
44.1200,-0.061
44.1600,-0.046
44.2000,0.013
44.2400,-0.023
44.2800,0.045
44.3200,0.043
44.3600,-0.073
44.4000,-0.043
44.4400,-0.035
44.4800,0.074
44.5200,-0.004
44.5600,0.042
44.6000,0.028
44.6400,0.058
44.6800,0.015
44.7200,0.036
44.7600,0.108
44.8000,0.049
44.8400,0.012
44.8800,0.192
44.9200,0.241
44.9600,0.297
45.0000,0.316
45.0400,0.449
45.0800,0.472
45.1200,0.577
45.1600,0.664
45.2000,0.730
45.2400,0.900
45.2800,1.027
45.3200,1.126
45.3600,1.271
45.4000,1.428
45.4400,1.453
45.4800,1.488
45.5200,1.680
45.5600,1.608
45.6000,1.714
45.6400,1.688
45.6800,1.605
45.7200,1.621
45.7600,1.477
45.8000,1.378
45.8400,1.315
45.8800,1.003
45.9200,0.849
45.9600,0.742
46.0000,0.610
46.0400,0.549
46.0800,0.411
46.1200,0.455
46.1600,0.248
46.2000,0.346
46.2400,0.154
46.2800,0.221
46.3200,0.124
46.3600,0.048
46.4000,0.069
46.4400,0.115
46.4800,-0.033
46.5200,-0.028
46.5600,0.047
46.6000,0.033
46.6400,-0.052
46.6800,-0.033
46.7200,0.002
46.7600,-0.004
46.8000,0.002
46.8400,-0.113
46.8800,0.007
46.9200,0.053
46.9600,0.043
47.0000,0.017
47.0400,0.007
47.0800,-0.060
47.1200,-0.017
47.1600,-0.011
47.2000,-0.043
47.2400,-0.001
47.2800,-0.061
47.3200,0.009
47.3600,-0.015
47.4000,-0.049
47.4400,0.002
47.4800,-0.001
47.5200,0.027
47.5600,-0.030
47.6000,0.046
47.6400,-0.020
47.6800,-0.068
47.7200,0.031
47.7600,-0.060
47.8000,-0.033
47.8400,0.024
47.8800,0.001
47.9200,-0.048
47.9600,0.004
48.0000,0.031
48.0400,-0.049
48.0800,-0.030
48.1200,0.033
48.1600,-0.016
48.2000,0.028
48.2400,-0.058
48.2800,-0.029
48.3200,0.029
48.3600,-0.071
48.4000,-0.016
48.4400,-0.016
48.4800,0.019
48.5200,0.041
48.5600,0.051
48.6000,0.040
48.6400,0.008
48.6800,0.011
48.7200,-0.011
48.7600,-0.063
48.8000,0.008
48.8400,0.020
48.8800,0.056
48.9200,0.035
48.9600,-0.151
49.0000,0.023
49.0400,-0.023
49.0800,-0.112
49.1200,0.048
49.1600,-0.018
49.2000,-0.031
49.2400,-0.005
49.2800,-0.020
49.3200,-0.043
49.3600,-0.011
49.4000,-0.033
49.4400,-0.038
49.4800,-0.046
49.5200,0.040
49.5600,0.009
49.6000,0.028
49.6400,0.013
49.6800,-0.022
49.7200,0.036
49.7600,0.056
49.8000,-0.047
49.8400,-0.061
49.8800,0.092
49.9200,0.032
49.9600,-0.061
50.0000,0.057
50.0400,-0.045
50.0800,-0.060
50.1200,0.054
50.1600,0.074
50.2000,0.020
50.2400,-0.038
50.2800,-0.045
50.3200,0.008
50.3600,0.026
50.4000,0.021
50.4400,-0.028
50.4800,0.018
50.5200,-0.029
50.5600,0.021
50.6000,-0.046
50.6400,0.051
50.6800,-0.032
50.7200,0.012
50.7600,0.023
50.8000,0.057
50.8400,-0.058
50.8800,0.030
50.9200,0.067
50.9600,0.022
51.0000,-0.085
51.0400,0.104
51.0800,0.021
51.1200,-0.047
51.1600,-0.027
51.2000,0.068
51.2400,0.065
51.2800,0.051
51.3200,-0.023
51.3600,-0.002
51.4000,-0.044
51.4400,-0.028
51.4800,-0.011
51.5200,-0.030
51.5600,0.049
51.6000,0.074
51.6400,-0.021
51.6800,-0.019
51.7200,-0.045
51.7600,-0.007
51.8000,-0.002
51.8400,0.027
51.8800,0.065
51.9200,-0.084
51.9600,-0.017
52.0000,-0.032
52.0400,0.008
52.0800,0.001
52.1200,-0.034
52.1600,0.002
52.2000,-0.004
52.2400,-0.044
52.2800,0.032
52.3200,-0.037
52.3600,0.034
52.4000,-0.024
52.4400,-0.029
52.4800,0.059
52.5200,-0.024
52.5600,0.015
52.6000,-0.025
52.6400,-0.027
52.6800,-0.020
52.7200,-0.019
52.7600,-0.048
52.8000,0.013
52.8400,-0.002
52.8800,0.016
52.9200,0.065
52.9600,0.004
53.0000,-0.023
53.0400,0.057
53.0800,-0.085
53.1200,0.031
53.1600,0.075
53.2000,-0.004
53.2400,0.012
53.2800,-0.003
53.3200,-0.032
53.3600,-0.042
53.4000,-0.005
53.4400,0.002
53.4800,-0.005
53.5200,0.027
53.5600,0.036
53.6000,0.054
53.6400,0.001
53.6800,-0.019
53.7200,0.000
53.7600,0.004
53.8000,0.079
53.8400,-0.008
53.8800,0.041
53.9200,-0.019
53.9600,-0.011
54.0000,-0.017
54.0400,-0.019
54.0800,-0.042
54.1200,-0.033
54.1600,0.050
54.2000,-0.013
54.2400,-0.095
54.2800,0.104
54.3200,0.035
54.3600,-0.018
54.4000,-0.053
54.4400,0.012
54.4800,0.008
54.5200,-0.036
54.5600,-0.063
54.6000,0.039
54.6400,-0.012
54.6800,-0.013
54.7200,0.042
54.7600,-0.064
54.8000,-0.033
54.8400,-0.031
54.8800,-0.042
54.9200,-0.016
54.9600,0.001
55.0000,-0.023
55.0400,-0.024
55.0800,-0.011
55.1200,-0.005
55.1600,0.025
55.2000,-0.050
55.2400,0.005
55.2800,-0.028
55.3200,-0.016
55.3600,-0.040
55.4000,0.002
55.4400,0.012
55.4800,-0.001
55.5200,0.002
55.5600,0.043
55.6000,-0.005
55.6400,-0.029
55.6800,-0.051
55.7200,0.023
55.7600,0.026
55.8000,0.023
55.8400,0.058
55.8800,0.053
55.9200,-0.032
55.9600,0.004
56.0000,0.051
56.0400,0.018
56.0800,-0.005
56.1200,-0.021
56.1600,0.019
56.2000,0.063
56.2400,0.004
56.2800,0.006
56.3200,0.031
56.3600,0.013
56.4000,0.017
56.4400,-0.063
56.4800,0.024
56.5200,-0.008
56.5600,-0.006
56.6000,-0.040
56.6400,-0.031
56.6800,0.004
56.7200,0.029
56.7600,0.011
56.8000,-0.023
56.8400,-0.012
56.8800,0.013
56.9200,0.073
56.9600,0.015
57.0000,0.040
57.0400,0.029
57.0800,0.065
57.1200,0.019
57.1600,0.012
57.2000,-0.050
57.2400,-0.015
57.2800,-0.019
57.3200,-0.019
57.3600,-0.009
57.4000,-0.027
57.4400,0.078
57.4800,0.060
57.5200,0.018
57.5600,-0.031
57.6000,-0.046
57.6400,0.091
57.6800,-0.063
57.7200,-0.038
57.7600,0.005
57.8000,-0.037
57.8400,-0.041
57.8800,-0.003
57.9200,0.008
57.9600,-0.028
58.0000,0.065
58.0400,0.046
58.0800,-0.041
58.1200,0.081
58.1600,-0.019
58.2000,-0.040
58.2400,-0.016
58.2800,-0.040
58.3200,-0.007
58.3600,-0.041
58.4000,0.051
58.4400,-0.026
58.4800,-0.036
58.5200,-0.015
58.5600,0.021
58.6000,-0.021
58.6400,-0.021
58.6800,-0.023
58.7200,-0.008
58.7600,0.028
58.8000,-0.010
58.8400,0.040
58.8800,0.040
58.9200,-0.040
58.9600,-0.040
59.0000,-0.018
59.0400,-0.002
59.0800,-0.006
59.1200,0.047
59.1600,-0.056
59.2000,-0.029
59.2400,0.059
59.2800,-0.032
59.3200,0.031
59.3600,0.003
59.4000,-0.043
59.4400,-0.011
59.4800,0.011
59.5200,-0.020
59.5600,-0.036
59.6000,-0.005
59.6400,0.078
59.6800,0.011
59.7200,0.011
59.7600,-0.040
59.8000,-0.008
59.8400,-0.020
59.8800,0.065
59.9200,-0.009
59.9600,-0.007
60.0000,-0.016
60.0400,-0.120
60.0800,0.017
60.1200,0.002
60.1600,0.012
60.2000,-0.018
60.2400,-0.028
60.2800,0.014
60.3200,-0.055
60.3600,0.044
60.4000,-0.003
60.4400,-0.031
60.4800,-0.025
60.5200,-0.039
60.5600,-0.061
60.6000,0.047
60.6400,-0.099
60.6800,-0.004
60.7200,-0.012
60.7600,0.074
60.8000,-0.002
60.8400,0.051
60.8800,0.041
60.9200,0.028
60.9600,-0.003
61.0000,0.035
61.0400,-0.019
61.0800,0.029
61.1200,-0.050
61.1600,0.021
61.2000,-0.087
61.2400,-0.027
61.2800,0.037
61.3200,-0.011
61.3600,0.065
61.4000,-0.009
61.4400,0.010
61.4800,0.029
61.5200,0.046
61.5600,-0.029
61.6000,-0.001
61.6400,0.131
61.6800,0.144
61.7200,0.088
61.7600,0.016
61.8000,-0.040
61.8400,-0.016
61.8800,0.014
61.9200,-0.032
61.9600,0.008
62.0000,-0.015
62.0400,-0.039
62.0800,-0.019
62.1200,0.029
62.1600,0.030
62.2000,-0.007
62.2400,0.004
62.2800,-0.003
62.3200,-0.009
62.3600,-0.020
62.4000,0.015
62.4400,-0.001
62.4800,-0.009
62.5200,-0.038
62.5600,-0.019
62.6000,-0.056
62.6400,0.029
62.6800,0.047
62.7200,0.043
62.7600,0.134
62.8000,0.053
62.8400,-0.044
62.8800,0.019
62.9200,-0.011
62.9600,-0.005
63.0000,-0.021
63.0400,-0.015
63.0800,-0.033
63.1200,0.016
63.1600,-0.058
63.2000,-0.022
63.2400,-0.024
63.2800,-0.022
63.3200,-0.006
63.3600,-0.015
63.4000,0.002
63.4400,-0.003
63.4800,-0.017
63.5200,-0.032
63.5600,-0.114
63.6000,0.044
63.6400,-0.048
63.6800,-0.015
63.7200,-0.024
63.7600,-0.039
63.8000,-0.016
63.8400,-0.065
63.8800,0.026
63.9200,0.035
63.9600,-0.054
64.0000,-0.004
64.0400,0.003
64.0800,-0.007
64.1200,-0.004
64.1600,-0.034
64.2000,-0.028
64.2400,-0.040
64.2800,-0.024
64.3200,0.062
64.3600,0.024
64.4000,-0.070
64.4400,-0.004
64.4800,-0.044
64.5200,0.010
64.5600,-0.072
64.6000,-0.016
64.6400,-0.017
64.6800,-0.011
64.7200,-0.017
64.7600,-0.014
64.8000,-0.014
64.8400,-0.024
64.8800,0.050
64.9200,0.053
64.9600,-0.013
65.0000,-0.042
65.0400,0.008
65.0800,0.089
65.1200,-0.004
65.1600,-0.034
65.2000,-0.003
65.2400,-0.016
65.2800,-0.081
65.3200,0.008
65.3600,-0.010
65.4000,-0.029
65.4400,0.003
65.4800,-0.070
65.5200,-0.004
65.5600,-0.015
65.6000,-0.039
65.6400,0.019
65.6800,-0.061
65.7200,-0.016
65.7600,0.084
65.8000,0.133
65.8400,0.053
65.8800,0.089
65.9200,0.106
65.9600,0.143
66.0000,0.176
66.0400,0.157
66.0800,0.353
66.1200,0.302
66.1600,0.235
66.2000,0.394
66.2400,0.361
66.2800,0.453
66.3200,0.575
66.3600,0.474
66.4000,0.489
66.4400,0.554
66.4800,0.614
66.5200,0.645
66.5600,0.644
66.6000,0.415
66.6400,0.465
66.6800,0.477
66.7200,0.296
66.7600,0.357
66.8000,0.310
66.8400,0.249
66.8800,0.196
66.9200,0.063
66.9600,-0.026
67.0000,0.099
67.0400,0.010
67.0800,-0.077
67.1200,-0.009
67.1600,-0.055
67.2000,-0.015
67.2400,0.082
67.2800,0.013
67.3200,0.041
67.3600,0.072
67.4000,-0.061
67.4400,-0.055
67.4800,-0.047
67.5200,-0.009
67.5600,-0.119
67.6000,0.008
67.6400,0.008
67.6800,-0.058
67.7200,-0.032
67.7600,0.028
67.8000,-0.012
67.8400,0.028
67.8800,0.146
67.9200,0.085
67.9600,0.079
68.0000,0.244
68.0400,0.222
68.0800,0.316
68.1200,0.186
68.1600,0.351
68.2000,0.306
68.2400,0.337
68.2800,0.484
68.3200,0.575
68.3600,0.600
68.4000,0.721
68.4400,0.838
68.4800,1.014
68.5200,1.034
68.5600,1.128
68.6000,1.268
68.6400,1.646
68.6800,2.144
68.7200,3.155
68.7600,4.458
68.8000,5.407
68.8400,5.799
68.8800,5.902
68.9200,7.062
68.9600,9.948
69.0000,16.811
69.0400,35.937
69.0800,153.901
69.1200,454.315
69.1600,416.107
69.2000,128.046
69.2400,47.459
69.2800,101.272
69.3200,238.877
69.3600,204.423
69.4000,62.630
69.4400,18.630
69.4800,10.047
69.5200,6.637
69.5600,4.937
69.6000,3.996
69.6400,3.361
69.6800,2.789
69.7200,2.439
69.7600,1.933
69.8000,1.875
69.8400,1.714
69.8800,1.281
69.9200,1.138
69.9600,0.994
70.0000,1.045
70.0400,0.798
70.0800,0.889
70.1200,0.718
70.1600,0.738
70.2000,0.551
70.2400,0.625
70.2800,0.466
70.3200,0.524
70.3600,0.422
70.4000,0.225
70.4400,0.299
70.4800,0.344
70.5200,0.353
70.5600,0.251
70.6000,0.152
70.6400,0.263
70.6800,-0.049
70.7200,0.100
70.7600,0.077
70.8000,0.164
70.8400,0.156
70.8800,0.128
70.9200,0.055
70.9600,0.081
71.0000,0.081
71.0400,0.131
71.0800,0.012
71.1200,-0.013
71.1600,0.026
71.2000,0.079
71.2400,0.039
71.2800,0.099
71.3200,0.042
71.3600,-0.018
71.4000,-0.066
71.4400,0.013
71.4800,-0.034
71.5200,-0.009
71.5600,-0.020
71.6000,-0.024
71.6400,-0.036
71.6800,0.002
71.7200,-0.008
71.7600,-0.044
71.8000,-0.012
71.8400,-0.033
71.8800,0.016
71.9200,0.028
71.9600,-0.041
72.0000,-0.043
72.0400,0.035
72.0800,-0.034
72.1200,0.003
72.1600,-0.078
72.2000,-0.002
72.2400,0.039
72.2800,0.064
72.3200,-0.014
72.3600,0.048
72.4000,0.015
72.4400,-0.038
72.4800,-0.027
72.5200,0.039
72.5600,-0.022
72.6000,0.038
72.6400,0.019
72.6800,-0.014
72.7200,0.011
72.7600,0.033
72.8000,0.008
72.8400,0.022
72.8800,0.008
72.9200,0.011
72.9600,0.001
73.0000,0.033
73.0400,0.052
73.0800,-0.035
73.1200,-0.052
73.1600,0.037
73.2000,0.015
73.2400,-0.021
73.2800,0.040
73.3200,0.031
73.3600,-0.036
73.4000,-0.036
73.4400,-0.028
73.4800,-0.024
73.5200,0.003
73.5600,-0.041
73.6000,0.035
73.6400,-0.013
73.6800,0.073
73.7200,0.012
73.7600,0.005
73.8000,-0.022
73.8400,-0.019
73.8800,0.030
73.9200,-0.027
73.9600,0.012
74.0000,-0.008
74.0400,0.008
74.0800,-0.055
74.1200,0.029
74.1600,-0.043
74.2000,0.043
74.2400,0.045
74.2800,0.004
74.3200,0.003
74.3600,-0.033
74.4000,-0.033
74.4400,0.006
74.4800,0.001
74.5200,0.031
74.5600,-0.009
74.6000,0.016
74.6400,0.039
74.6800,-0.005
74.7200,-0.060
74.7600,0.031
74.8000,-0.007
74.8400,-0.004
74.8800,-0.015
74.9200,0.003
74.9600,-0.033
75.0000,-0.033
75.0400,0.015
75.0800,-0.074
75.1200,-0.009
75.1600,0.069
75.2000,-0.003
75.2400,-0.033
75.2800,-0.010
75.3200,-0.026
75.3600,-0.033
75.4000,-0.016
75.4400,0.000
75.4800,-0.036
75.5200,0.008
75.5600,0.013
75.6000,-0.012
75.6400,-0.014
75.6800,0.003
75.7200,-0.036
75.7600,-0.001
75.8000,-0.052
75.8400,0.008
75.8800,-0.030
75.9200,-0.041
75.9600,0.047
76.0000,0.014
76.0400,0.024
76.0800,-0.029
76.1200,0.002
76.1600,-0.003
76.2000,-0.031
76.2400,-0.030
76.2800,-0.006
76.3200,-0.023
76.3600,-0.015
76.4000,0.017
76.4400,-0.022
76.4800,0.002
76.5200,-0.032
76.5600,0.000
76.6000,0.011
76.6400,0.026
76.6800,0.039
76.7200,-0.001
76.7600,-0.035
76.8000,0.000
76.8400,0.045
76.8800,-0.023
76.9200,-0.003
76.9600,-0.037
77.0000,0.007
77.0400,0.018
77.0800,-0.001
77.1200,-0.023
77.1600,-0.031
77.2000,0.007
77.2400,0.001
77.2800,0.014
77.3200,0.004
77.3600,0.021
77.4000,0.008
77.4400,-0.047
77.4800,0.019
77.5200,0.046
77.5600,0.011
77.6000,-0.014
77.6400,-0.003
77.6800,0.042
77.7200,0.001
77.7600,-0.075
77.8000,-0.001
77.8400,-0.019
77.8800,-0.012
77.9200,-0.001
77.9600,0.006
78.0000,0.005
78.0400,-0.031
78.0800,-0.030
78.1200,0.045
78.1600,-0.012
78.2000,0.030
78.2400,0.042
78.2800,-0.031
78.3200,-0.070
78.3600,0.058
78.4000,0.091
78.4400,0.051
78.4800,0.031
78.5200,-0.007
78.5600,-0.013
78.6000,0.006
78.6400,-0.003
78.6800,0.013
78.7200,-0.045
78.7600,0.014
78.8000,-0.033
78.8400,-0.017
78.8800,-0.036
78.9200,0.016
78.9600,-0.029
79.0000,0.039
79.0400,-0.027
79.0800,0.031
79.1200,0.007
79.1600,-0.007
79.2000,0.069
79.2400,-0.015
79.2800,0.064
79.3200,0.154
79.3600,0.109
79.4000,0.154
79.4400,0.168
79.4800,0.091
79.5200,0.186
79.5600,0.215
79.6000,0.303
79.6400,0.315
79.6800,0.330
79.7200,0.385
79.7600,0.339
79.8000,0.374
79.8400,0.411
79.8800,0.442
79.9200,0.419
79.9600,0.351
80.0000,0.439
80.0400,0.514
80.0800,0.409
80.1200,0.403
80.1600,0.329
80.2000,0.399
80.2400,0.267
80.2800,0.256
80.3200,0.340
80.3600,0.268
80.4000,0.136
80.4400,0.161
80.4800,0.092
80.5200,0.119
80.5600,0.018
80.6000,0.069
80.6400,0.019
80.6800,0.058
80.7200,0.006
80.7600,0.004
80.8000,0.056
80.8400,-0.011
80.8800,-0.024
80.9200,-0.022
80.9600,-0.007
81.0000,-0.076
81.0400,0.007
81.0800,-0.007
81.1200,0.055
81.1600,0.040
81.2000,0.002
81.2400,-0.003
81.2800,-0.012
81.3200,0.004
81.3600,-0.030
81.4000,-0.025
81.4400,0.002
81.4800,0.001
81.5200,-0.049
81.5600,0.011
81.6000,-0.019
81.6400,-0.023
81.6800,-0.030
81.7200,-0.030
81.7600,-0.027
81.8000,0.032
81.8400,0.025
81.8800,0.011
81.9200,0.040
81.9600,0.018
82.0000,-0.048
82.0400,-0.004
82.0800,-0.081
82.1200,0.028
82.1600,-0.021
82.2000,-0.029
82.2400,-0.014
82.2800,-0.026
82.3200,0.026
82.3600,-0.022
82.4000,-0.012
82.4400,-0.001
82.4800,-0.025
82.5200,-0.031
82.5600,0.021
82.6000,-0.012
82.6400,0.012
82.6800,-0.003
82.7200,-0.018
82.7600,-0.029
82.8000,0.024
82.8400,0.053
82.8800,-0.003
82.9200,-0.029
82.9600,-0.016
83.0000,-0.011
83.0400,0.016
83.0800,-0.009
83.1200,0.018
83.1600,0.007
83.2000,-0.029
83.2400,-0.013
83.2800,0.025
83.3200,-0.046
83.3600,0.000
83.4000,-0.002
83.4400,-0.002
83.4800,-0.030
83.5200,-0.029
83.5600,0.055
83.6000,-0.007
83.6400,0.032
83.6800,-0.020
83.7200,0.021
83.7600,-0.006
83.8000,0.003
83.8400,-0.024
83.8800,-0.003
83.9200,0.088
83.9600,0.076
84.0000,0.049
84.0400,0.116
84.0800,0.125
84.1200,0.077
84.1600,0.062
84.2000,0.121
84.2400,0.081
84.2800,0.056
84.3200,0.119
84.3600,0.055
84.4000,0.062
84.4400,0.054
84.4800,0.044
84.5200,0.043
84.5600,0.059
84.6000,0.021
84.6400,0.093
84.6800,0.020
84.7200,-0.001
84.7600,-0.004
84.8000,-0.013
84.8400,-0.021
84.8800,-0.030
84.9200,-0.001
84.9600,-0.022
85.0000,0.012
85.0400,-0.003
85.0800,0.016
85.1200,-0.025
85.1600,-0.028
85.2000,-0.010
85.2400,-0.023
85.2800,0.002
85.3200,-0.045
85.3600,-0.004
85.4000,-0.027
85.4400,-0.007
85.4800,-0.005
85.5200,0.003
85.5600,0.077
85.6000,-0.022
85.6400,-0.017
85.6800,0.055
85.7200,-0.005
85.7600,0.015
85.8000,-0.026
85.8400,0.006
85.8800,0.032
85.9200,0.029
85.9600,-0.017
86.0000,-0.050
86.0400,0.017
86.0800,-0.012
86.1200,0.040
86.1600,-0.023
86.2000,-0.014
86.2400,-0.020
86.2800,-0.055
86.3200,0.020
86.3600,-0.004
86.4000,0.004
86.4400,0.011
86.4800,-0.027
86.5200,-0.022
86.5600,-0.014
86.6000,0.039
86.6400,0.008
86.6800,-0.049
86.7200,-0.006
86.7600,0.015
86.8000,0.004
86.8400,-0.004
86.8800,0.010
86.9200,0.024
86.9600,0.003
87.0000,-0.004
87.0400,-0.029
87.0800,0.004
87.1200,0.003
87.1600,0.016
87.2000,0.009
87.2400,0.015
87.2800,0.007
87.3200,0.067
87.3600,0.000
87.4000,-0.002
87.4400,-0.043
87.4800,0.003
87.5200,-0.034
87.5600,0.010
87.6000,-0.026
87.6400,-0.013
87.6800,0.024
87.7200,0.017
87.7600,0.024
87.8000,0.028
87.8400,-0.001
87.8800,0.003
87.9200,0.035
87.9600,-0.027
88.0000,0.014
88.0400,0.002
88.0800,0.017
88.1200,0.024
88.1600,0.002
88.2000,-0.025
88.2400,-0.004
88.2800,0.002
88.3200,0.050
88.3600,0.054
88.4000,-0.052
88.4400,-0.007
88.4800,0.004
88.5200,-0.027
88.5600,0.016
88.6000,0.017
88.6400,-0.003
88.6800,-0.043
88.7200,0.006
88.7600,-0.034
88.8000,-0.006
88.8400,-0.013
88.8800,0.011
88.9200,0.029
88.9600,-0.077
89.0000,-0.026
89.0400,0.005
89.0800,0.054
89.1200,-0.055
89.1600,-0.026
89.2000,-0.016
89.2400,0.008
89.2800,-0.021
89.3200,0.030
89.3600,-0.011
89.4000,-0.010
89.4400,-0.018
89.4800,-0.014
89.5200,-0.015
89.5600,0.008
89.6000,0.038
89.6400,-0.006
89.6800,-0.025
89.7200,-0.026
89.7600,0.021
89.8000,0.017
89.8400,0.060
89.8800,-0.002
89.9200,0.025
89.9600,0.045
90.0000,0.000
