2.003999999999999915e+01,5.304642659108958075e-02
2.007999999999999829e+01,4.422808242487876601e-02
2.012000000000000099e+01,4.033913666375915641e-02
2.016000000000000014e+01,6.650083517788815679e-02
2.019999999999999929e+01,3.819310303224430353e-02
2.023999999999999844e+01,3.547523549399827364e-02
2.028000000000000114e+01,3.463465674705725611e-02
2.032000000000000028e+01,5.844483277280811823e-02
2.035999999999999943e+01,2.355957858061299634e-02
2.039999999999999858e+01,2.647264865897384911e-02
2.044000000000000128e+01,3.619334953663650573e-02
2.048000000000000043e+01,5.530424015163828977e-02
2.051999999999999957e+01,1.853704065680555554e-02
2.055999999999999872e+01,3.013317917355347320e-02
2.060000000000000142e+01,3.116338155436479407e-02
2.064000000000000057e+01,1.951464695975371061e-02
2.067999999999999972e+01,6.914204294611052404e-02
2.071999999999999886e+01,6.242179814687728867e-02
2.076000000000000156e+01,4.889206927532366992e-02
2.080000000000000071e+01,4.146564678003811927e-02
2.083999999999999986e+01,5.704654692050358661e-02
2.087999999999999901e+01,6.253107432558048517e-02
2.092000000000000171e+01,4.406732871197473894e-02
2.096000000000000085e+01,2.912433583859709574e-02
2.100000000000000000e+01,4.540589945323337401e-02
2.103999999999999915e+01,4.290430898566085366e-02
2.107999999999999829e+01,4.087136058412425832e-02
2.112000000000000099e+01,4.376783709766989688e-02
2.116000000000000014e+01,3.069849857671889601e-02
2.119999999999999929e+01,3.805393435747556757e-02
2.123999999999999844e+01,2.169588359162099439e-02
2.128000000000000114e+01,4.595351629162298945e-02
2.132000000000000028e+01,2.278508768931992307e-02
2.135999999999999943e+01,3.248467104075902084e-02
2.139999999999999858e+01,4.993102259658983161e-02
2.144000000000000128e+01,3.028154754186523911e-02
2.148000000000000043e+01,4.138708572219539777e-02
2.151999999999999957e+01,3.746593036712781571e-02
2.155999999999999872e+01,2.110064041470012183e-02
2.160000000000000142e+01,5.380305001086555655e-02
2.164000000000000057e+01,5.433997606487210585e-02
2.167999999999999972e+01,4.172843673608783027e-02
2.171999999999999886e+01,5.376768929397449798e-02
2.176000000000000156e+01,4.843247479009830242e-02
2.180000000000000071e+01,3.605302579540966418e-02
2.183999999999999986e+01,3.916803030241984562e-02
2.187999999999999901e+01,6.575994099331750053e-02
2.192000000000000171e+01,3.436079678847405589e-02
2.196000000000000085e+01,3.042978669921161256e-02
2.200000000000000000e+01,4.410623625313095375e-02
2.203999999999999915e+01,2.679110281326583728e-02
2.207999999999999829e+01,3.764844063680846536e-02
2.212000000000000099e+01,3.300954485319209514e-02
2.216000000000000014e+01,2.531764993325288232e-02
2.219999999999999929e+01,5.072856722431880183e-02
2.223999999999999844e+01,4.561746280134968551e-02
2.228000000000000114e+01,4.355759013403600471e-02
2.232000000000000028e+01,3.867950056087293698e-02
2.235999999999999943e+01,4.953065626347691319e-02
2.239999999999999858e+01,2.774679259375794835e-02
2.244000000000000128e+01,3.859619151968818329e-02
2.248000000000000043e+01,3.559281230418723935e-02
2.251999999999999957e+01,5.184035243919321578e-02
2.255999999999999872e+01,5.869589834221371205e-02
2.260000000000000142e+01,5.709856302915301135e-02
2.264000000000000057e+01,2.662266252818418569e-02
2.267999999999999972e+01,2.924958696301338534e-02
2.271999999999999886e+01,2.084107548532157864e-02
2.276000000000000156e+01,3.238782368716154603e-02
2.280000000000000071e+01,4.135114569682115521e-02
2.283999999999999986e+01,2.495757765371203057e-02
2.287999999999999901e+01,4.518850968154052711e-02
2.292000000000000171e+01,5.133189724345476462e-02
2.296000000000000085e+01,3.094450798941782155e-02
2.300000000000000000e+01,3.426883259932747561e-02
2.303999999999999915e+01,3.547929335720548250e-02
2.307999999999999829e+01,3.598455925670827893e-02
2.312000000000000099e+01,4.235841504676759323e-02
2.316000000000000014e+01,2.877528301140518108e-02
2.319999999999999929e+01,5.134710355242295965e-02
2.323999999999999844e+01,5.865749816634096420e-02
2.328000000000000114e+01,3.098511684796111110e-02
2.332000000000000028e+01,3.430257553188405251e-02
2.335999999999999943e+01,5.358408399043483594e-02
2.339999999999999858e+01,4.656960528630394586e-02
2.344000000000000128e+01,3.767605132301152238e-02
2.348000000000000043e+01,4.427699433779268279e-02
2.351999999999999957e+01,3.467740689276527233e-02
2.355999999999999872e+01,3.681587072459198418e-02
2.360000000000000142e+01,3.284925973908372349e-02
2.364000000000000057e+01,3.780336628471414606e-02
2.367999999999999972e+01,2.092227487910574071e-02
2.371999999999999886e+01,4.700471151247827967e-02
2.376000000000000156e+01,4.796506047114449528e-02
2.380000000000000071e+01,3.976822605908247876e-02
2.383999999999999986e+01,2.687499112533905596e-02
2.387999999999999901e+01,5.976262433868804319e-02
2.392000000000000171e+01,4.217215132030274760e-02
2.396000000000000085e+01,3.608496219388931253e-02
2.400000000000000000e+01,4.713572975287480538e-02
2.403999999999999915e+01,3.564697493758742924e-02
2.407999999999999829e+01,4.740040663927806014e-02
2.412000000000000099e+01,4.365765775377943719e-02
2.416000000000000014e+01,2.770562118575716978e-02
2.419999999999999929e+01,2.278731889435072627e-02
2.423999999999999844e+01,3.289397775085412673e-02
2.428000000000000114e+01,2.797401623951817351e-02
2.432000000000000028e+01,4.371368972991876434e-02
2.435999999999999943e+01,4.841797078417374445e-02
2.439999999999999858e+01,4.654764225132910355e-02
2.444000000000000128e+01,2.894636362561432696e-02
2.448000000000000043e+01,3.599595005412824927e-02
2.451999999999999957e+01,3.576659611011266671e-02
2.455999999999999872e+01,5.361432565259238031e-02
2.460000000000000142e+01,1.300151536833787057e-02
2.464000000000000057e+01,3.836050042211427286e-02
2.467999999999999972e+01,4.164953604576038249e-02
2.471999999999999886e+01,4.024219447651141562e-02
2.476000000000000156e+01,4.047748247442350261e-02
2.480000000000000071e+01,3.765984132237250315e-02
2.483999999999999986e+01,4.564117342445138392e-02
2.487999999999999901e+01,4.188279290894791895e-02
2.492000000000000171e+01,3.319326251367060721e-02
2.496000000000000085e+01,2.849414687631252399e-02
2.500000000000000000e+01,3.764612259007204392e-02
2.503999999999999915e+01,4.280606356076047114e-02
2.507999999999999829e+01,4.444352682652907144e-02
2.512000000000000099e+01,4.631496126979615935e-02
2.516000000000000014e+01,5.100292582859894397e-02
2.519999999999999929e+01,5.193363787480387989e-02
2.523999999999999844e+01,4.112464684702134970e-02
2.528000000000000114e+01,3.383652308260094027e-02
2.532000000000000028e+01,3.265182551957996476e-02
2.535999999999999943e+01,5.165723455092765398e-02
2.539999999999999858e+01,3.755814776215432582e-02
2.544000000000000128e+01,2.251915068969385578e-02
2.548000000000000043e+01,3.283537914807557051e-02
2.551999999999999957e+01,2.202079240021887624e-02
2.555999999999999872e+01,3.890921319276495483e-02
2.560000000000000142e+01,2.809303721133880535e-02
2.564000000000000057e+01,4.427553692448563116e-02
2.567999999999999972e+01,4.050111561737246291e-02
2.571999999999999886e+01,3.649112541599620202e-02
2.576000000000000156e+01,3.365423531401327828e-02
2.580000000000000071e+01,4.232067788237421635e-02
2.583999999999999986e+01,4.089087920487154137e-02
2.587999999999999901e+01,4.345151967447436619e-02
2.592000000000000171e+01,2.441179956408038448e-02
2.596000000000000085e+01,3.683154542010162735e-02
2.600000000000000000e+01,4.525928198263683144e-02
2.603999999999999915e+01,3.842566684602995164e-02
2.607999999999999829e+01,4.990395347997145237e-02
2.612000000000000099e+01,3.109509924749500817e-02
2.616000000000000014e+01,1.838969348480524665e-02
2.619999999999999929e+01,2.235274675172882822e-02
2.623999999999999844e+01,2.584546692070537402e-02
2.628000000000000114e+01,3.497208276291444845e-02
2.632000000000000028e+01,3.799369589494741573e-02
2.635999999999999943e+01,2.669307776653788780e-02
2.639999999999999858e+01,2.525236229232986560e-02
2.644000000000000128e+01,4.141922416563628001e-02
2.648000000000000043e+01,4.795941773722187107e-02
2.651999999999999957e+01,4.369905412310473580e-02
2.655999999999999872e+01,2.722946645042767858e-02
2.660000000000000142e+01,2.038500874507303065e-02
2.664000000000000057e+01,3.725236140000990487e-02
2.667999999999999972e+01,3.087592770040544984e-02
2.671999999999999886e+01,5.408075620379525217e-02
2.676000000000000156e+01,4.324201298513914021e-02
2.680000000000000071e+01,1.667238223717668402e-02
2.683999999999999986e+01,3.682281006136659679e-02
2.687999999999999901e+01,3.654679269952615384e-02
2.692000000000000171e+01,5.106102954347879058e-02
2.696000000000000085e+01,2.542747225660197188e-02
2.700000000000000000e+01,4.580964381684685810e-02
2.703999999999999915e+01,4.952182225467708504e-02
2.707999999999999829e+01,4.642468416329122854e-02
2.712000000000000099e+01,3.440522870320315840e-02
2.716000000000000014e+01,3.952381370006627370e-02
2.719999999999999929e+01,3.642441741565429630e-02
2.723999999999999844e+01,2.135059308834824643e-02
2.728000000000000114e+01,3.421459988749489534e-02
2.732000000000000028e+01,4.332141037521177601e-02
2.735999999999999943e+01,3.153223242393860676e-02
2.739999999999999858e+01,3.547243335875583520e-02
2.744000000000000128e+01,3.213377133019917203e-02
2.748000000000000043e+01,3.795070661999918465e-02
2.751999999999999957e+01,1.888043190151215620e-02
2.755999999999999872e+01,4.723456880899472299e-02
2.760000000000000142e+01,1.783257938632629852e-02
2.764000000000000057e+01,2.740299611088466494e-02
2.767999999999999972e+01,3.039889020109398307e-02
2.771999999999999886e+01,4.020260808329476077e-02
2.776000000000000156e+01,3.897102366329820156e-02
2.780000000000000071e+01,3.398225565666455200e-02
2.783999999999999986e+01,2.617541707929797387e-02
2.787999999999999901e+01,4.513253558999411053e-02
2.792000000000000171e+01,3.192433704123612964e-02
2.796000000000000085e+01,2.388052272473268137e-02
2.800000000000000000e+01,3.438343906682458234e-02
2.803999999999999915e+01,2.344521981985759479e-02
2.807999999999999829e+01,1.945875986403237945e-02
2.812000000000000099e+01,2.209379708964991085e-02
2.816000000000000014e+01,2.672791702253325685e-02
2.819999999999999929e+01,1.819664561601027492e-02
2.823999999999999844e+01,2.202669233804457893e-02
2.828000000000000114e+01,2.152219013904779418e-02
2.832000000000000028e+01,2.228564722861609351e-02
2.835999999999999943e+01,2.056598205526240924e-02
2.839999999999999858e+01,2.366363040505273935e-02
2.844000000000000128e+01,1.925038461852144819e-02
2.848000000000000043e+01,1.356252740522453579e-02
2.851999999999999957e+01,2.085836702088358224e-02
2.855999999999999872e+01,2.112608581472918967e-02
2.860000000000000142e+01,1.929260862070782817e-02
2.864000000000000057e+01,1.817564433405363319e-02
2.867999999999999972e+01,2.068279030438774022e-02
2.871999999999999886e+01,1.397000190678478540e-02
2.876000000000000156e+01,2.472722954125868358e-02
2.880000000000000071e+01,1.851043996878701942e-02
2.883999999999999986e+01,1.850518037595539136e-02
2.887999999999999901e+01,1.831595491624371519e-02
2.892000000000000171e+01,1.423026864530840471e-02
2.896000000000000085e+01,2.087900440584121442e-02
2.900000000000000000e+01,2.040601719051009927e-02
2.903999999999999915e+01,2.341801499974092635e-02
2.907999999999999829e+01,2.023474775705359427e-02
2.912000000000000099e+01,2.057554568105724943e-02
2.916000000000000014e+01,2.704532805326178777e-02
2.919999999999999929e+01,1.865712014596501711e-02
2.923999999999999844e+01,2.026372351082512957e-02
2.928000000000000114e+01,1.747696637776075326e-02
2.932000000000000028e+01,1.823873558529691408e-02
2.935999999999999943e+01,1.948431558103185662e-02
2.939999999999999858e+01,1.391700655983479223e-02
2.944000000000000128e+01,1.871479953808308921e-02
2.948000000000000043e+01,2.167012292326277526e-02
2.951999999999999957e+01,2.394061419951312719e-02
2.955999999999999872e+01,2.189762437056952393e-02
2.960000000000000142e+01,2.720202306016270694e-02
2.964000000000000057e+01,1.196998260008663544e-02
2.967999999999999972e+01,2.901696074126297945e-02
2.971999999999999886e+01,3.080268474004131327e-02
2.976000000000000156e+01,3.798761867792317670e-02
2.980000000000000071e+01,2.568529679443498637e-02
2.983999999999999986e+01,1.854740898197290017e-02
2.987999999999999901e+01,1.023495060128014680e-02
2.992000000000000171e+01,3.901673489957032531e-02
2.996000000000000085e+01,3.610281219652750756e-02
3.000000000000000000e+01,2.591009439567197939e-02
3.003999999999999915e+01,2.205570591222037746e-02
3.007999999999999829e+01,3.275687741723790763e-02
3.012000000000000099e+01,1.857090783992852712e-02
3.016000000000000014e+01,1.659272048312552747e-02
3.019999999999999929e+01,1.508341696342006648e-02
3.023999999999999844e+01,1.404299834121139519e-02
3.028000000000000114e+01,3.906226646440079386e-02
3.032000000000000028e+01,2.886416729670920195e-02
3.035999999999999943e+01,3.063907766264467938e-02
3.039999999999999858e+01,2.208308967937123654e-02
3.044000000000000128e+01,3.160434106130378951e-02
3.048000000000000043e+01,2.210791062640821494e-02
3.051999999999999957e+01,1.354992848955755523e-02
3.055999999999999872e+01,4.513831985347037390e-02
3.060000000000000142e+01,1.990977637269116321e-02
3.064000000000000057e+01,1.909748325877127020e-02
3.067999999999999972e+01,2.579742637302655586e-02
3.071999999999999886e+01,3.554882498720917522e-02
3.076000000000000156e+01,1.736098563006531828e-02
3.080000000000000071e+01,1.818950713722661261e-02
3.083999999999999986e+01,3.357360878044541447e-02
3.087999999999999901e+01,8.575242223099362182e-03
3.092000000000000171e+01,2.278414675460660108e-02
3.096000000000000085e+01,2.126227403834461682e-02
3.100000000000000000e+01,2.866131396670988304e-02
3.103999999999999915e+01,1.539924100170536429e-02
3.107999999999999829e+01,2.256220425705882104e-02
3.112000000000000099e+01,2.103773417252543035e-02
3.116000000000000014e+01,1.810394946366580132e-02
3.119999999999999929e+01,3.606476013411458875e-02
3.123999999999999844e+01,2.890368142454347034e-02
3.128000000000000114e+01,2.150718121622506931e-02
3.132000000000000028e+01,1.364048258068250100e-02
3.135999999999999943e+01,2.361626971065584543e-02
3.139999999999999858e+01,1.410484343523480365e-02
3.144000000000000128e+01,2.760102080140399913e-02
3.148000000000000043e+01,2.254909883848216570e-02
3.151999999999999957e+01,2.876588319414134440e-02
3.155999999999999872e+01,1.244334453061353256e-02
3.160000000000000142e+01,1.795452380589275185e-02
3.164000000000000057e+01,3.003885280342781516e-02
3.167999999999999972e+01,1.488830218545097311e-02
3.171999999999999886e+01,2.814525637601176383e-02
3.176000000000000156e+01,6.419659438946097654e-03
3.180000000000000071e+01,3.305769848569060920e-02
3.183999999999999986e+01,1.226995511517077128e-02
3.187999999999999901e+01,2.787217241657569816e-02
3.192000000000000171e+01,2.304807814227373061e-02
3.196000000000000085e+01,1.751902441826176660e-02
3.200000000000000000e+01,2.771947152627054350e-02
3.203999999999999915e+01,3.745439640776076357e-02
3.207999999999999829e+01,3.064796258519659686e-02
3.211999999999999744e+01,3.280178746030452952e-02
3.215999999999999659e+01,2.843433001609119506e-02
3.220000000000000284e+01,3.911033880532537033e-02
3.224000000000000199e+01,4.140310805321191501e-02
3.228000000000000114e+01,3.882574972271373576e-02
3.232000000000000028e+01,3.339036955187859451e-02
3.235999999999999943e+01,2.514698423219443452e-02
3.239999999999999858e+01,3.636276441582828728e-02
3.243999999999999773e+01,3.268404416560972275e-02
3.247999999999999687e+01,3.126067994509907494e-02
3.252000000000000313e+01,3.484676231010579162e-02
3.256000000000000227e+01,3.499653569692685179e-02
3.260000000000000142e+01,3.881999812748075651e-02
3.264000000000000057e+01,4.083046287942299762e-02
3.267999999999999972e+01,3.411448544603413319e-02
3.271999999999999886e+01,3.044511645373704223e-02
3.275999999999999801e+01,3.359447370358427387e-02
3.279999999999999716e+01,2.779650310508294947e-02
3.284000000000000341e+01,3.145436771785748570e-02
3.288000000000000256e+01,2.879983579999138149e-02
3.292000000000000171e+01,3.643864830782186925e-02
3.296000000000000085e+01,3.772084927254383546e-02
3.300000000000000000e+01,3.189022775104558699e-02
3.303999999999999915e+01,3.471936444117219855e-02
3.307999999999999829e+01,3.434461532407725309e-02
3.311999999999999744e+01,3.588334626891879348e-02
3.315999999999999659e+01,3.270375961611148019e-02
3.320000000000000284e+01,3.699975433114933293e-02
3.324000000000000199e+01,3.084585286670524923e-02
3.328000000000000114e+01,3.686568236885117561e-02
3.332000000000000028e+01,3.752208050483831631e-02
3.335999999999999943e+01,3.272513162949753501e-02
3.339999999999999858e+01,3.458281642095546726e-02
3.343999999999999773e+01,3.320698495667720462e-02
3.347999999999999687e+01,3.513763471351001588e-02
3.352000000000000313e+01,3.543593975507258742e-02
3.356000000000000227e+01,3.384742532948969290e-02
3.360000000000000142e+01,3.199700971678210576e-02
3.364000000000000057e+01,3.600354424710058843e-02
3.367999999999999972e+01,3.461831977573131408e-02
3.371999999999999886e+01,4.195309893107949245e-02
3.375999999999999801e+01,2.680676996607763915e-02
3.379999999999999716e+01,2.547609411183240219e-02
3.384000000000000341e+01,3.400551814607600393e-02
3.388000000000000256e+01,3.337802603023866388e-02
3.392000000000000171e+01,1.561116720293028066e-02
3.396000000000000085e+01,2.953876441079188175e-02
3.400000000000000000e+01,2.468355110584820322e-02
3.403999999999999915e+01,2.898410902476178733e-02
3.407999999999999829e+01,3.445798760614253442e-02
3.411999999999999744e+01,5.096586344318864564e-02
3.415999999999999659e+01,4.282148328712288843e-02
3.420000000000000284e+01,3.890254083011258912e-02
3.424000000000000199e+01,3.216569746627235410e-02
3.428000000000000114e+01,1.040249883444102803e-02
3.432000000000000028e+01,2.409021360339283491e-02
3.435999999999999943e+01,2.439502114728556853e-02
3.439999999999999858e+01,4.977916826862245105e-03
3.443999999999999773e+01,3.486363043211380269e-02
3.447999999999999687e+01,4.033187451632477133e-02
3.452000000000000313e+01,1.739142432899993748e-02
3.456000000000000227e+01,4.257990530416726899e-02
3.460000000000000142e+01,3.748147021758826969e-02
3.464000000000000057e+01,2.393047309514526738e-02
3.467999999999999972e+01,3.526538941765275381e-02
3.471999999999999886e+01,2.429584448140147818e-02
3.475999999999999801e+01,1.567352817878781696e-02
3.479999999999999716e+01,3.451968637996062628e-02
3.484000000000000341e+01,3.575694628109607476e-02
3.488000000000000256e+01,3.581976816392495877e-02
3.492000000000000171e+01,3.071692727795190259e-02
3.496000000000000085e+01,4.932611731534425337e-02
3.500000000000000000e+01,4.398740759464048189e-02
3.503999999999999915e+01,2.479625269791498055e-02
3.507999999999999829e+01,4.222992129394187444e-02
3.511999999999999744e+01,4.064603107947029753e-02
3.515999999999999659e+01,3.859204423611636153e-02
3.520000000000000284e+01,4.099829959067889662e-02
3.524000000000000199e+01,4.387357239266253400e-02
3.528000000000000114e+01,4.017452403618177598e-02
3.532000000000000028e+01,4.492694686971038243e-02
3.535999999999999943e+01,4.451371859883043042e-02
3.539999999999999858e+01,5.137807369437787791e-02
3.543999999999999773e+01,4.016399041812655085e-02
3.547999999999999687e+01,4.233172033988154281e-02
3.552000000000000313e+01,3.675124552118774757e-02
3.556000000000000227e+01,4.431780803242294647e-02
3.560000000000000142e+01,5.235339753467380813e-02
3.564000000000000057e+01,5.804067922182570144e-02
3.567999999999999972e+01,5.057986666597468622e-02
3.571999999999999886e+01,3.818819053818575671e-02
3.575999999999999801e+01,4.316956084209367522e-02
3.579999999999999716e+01,5.542852511642290536e-02
3.584000000000000341e+01,6.205229503338388630e-02
3.588000000000000256e+01,5.764097790922437237e-02
3.592000000000000171e+01,5.722036609241808180e-02
3.596000000000000085e+01,5.609490086584107554e-02
3.600000000000000000e+01,8.995083759906952192e-02
3.603999999999999915e+01,7.661588124584597925e-02
3.607999999999999829e+01,7.102808226359193233e-02
3.611999999999999744e+01,8.586545311201930486e-02
3.615999999999999659e+01,6.079005171035406496e-02
3.620000000000000284e+01,6.107016002656844023e-02
3.624000000000000199e+01,4.961085687862838017e-02
3.628000000000000114e+01,6.374184355824293047e-02
3.632000000000000028e+01,6.801164480551111224e-02
3.635999999999999943e+01,8.425461464631528452e-02
3.639999999999999858e+01,9.439284899759042835e-02
3.643999999999999773e+01,8.692222746480404716e-02
3.647999999999999687e+01,9.118999971787568326e-02
3.652000000000000313e+01,6.329268289736258990e-02
3.656000000000000227e+01,1.107585969689461186e-01
3.660000000000000142e+01,1.009381792779943665e-01
3.664000000000000057e+01,9.111726017069014805e-02
3.667999999999999972e+01,1.228515447385134657e-01
3.671999999999999886e+01,1.071601762577984729e-01
3.675999999999999801e+01,1.102505486520221206e-01
3.679999999999999716e+01,1.086448640939676746e-01
3.684000000000000341e+01,1.220644747096320815e-01
3.688000000000000256e+01,1.249185807719131042e-01
3.692000000000000171e+01,1.519543256948820698e-01
3.696000000000000085e+01,1.369643176758607861e-01
3.700000000000000000e+01,1.438081707495645900e-01
3.703999999999999915e+01,1.602774305548325673e-01
3.707999999999999829e+01,1.645377451865809582e-01
3.711999999999999744e+01,1.657454572713795704e-01
3.715999999999999659e+01,1.702395735692840140e-01
3.720000000000000284e+01,2.184019092273936091e-01
3.724000000000000199e+01,2.116257099781199136e-01
3.728000000000000114e+01,2.203443735447105367e-01
3.732000000000000028e+01,2.257756618774723056e-01
3.735999999999999943e+01,2.553886007353152188e-01
3.739999999999999858e+01,2.833576124022610943e-01
3.743999999999999773e+01,2.709443297741425671e-01
3.747999999999999687e+01,3.036079418622819048e-01
3.752000000000000313e+01,3.369754098294838185e-01
3.756000000000000227e+01,3.806726322800705331e-01
3.760000000000000142e+01,3.605097657895741659e-01
3.764000000000000057e+01,3.760326787018868910e-01
3.767999999999999972e+01,4.246588141997701404e-01
3.771999999999999886e+01,4.753974788119699757e-01
3.775999999999999801e+01,5.066490986222790260e-01
3.779999999999999716e+01,5.214657885464866194e-01
3.784000000000000341e+01,5.768986009418995975e-01
3.788000000000000256e+01,6.149573736165051541e-01
3.792000000000000171e+01,6.572416826073099738e-01
3.796000000000000085e+01,6.927169634975335333e-01
3.800000000000000000e+01,7.303047809248695010e-01
3.803999999999999915e+01,7.920742669040763406e-01
3.807999999999999829e+01,8.188613692987609660e-01
3.811999999999999744e+01,8.648998045997158268e-01
3.815999999999999659e+01,9.003727692800680416e-01
3.820000000000000284e+01,9.097849171343899144e-01
3.824000000000000199e+01,9.295268374988863158e-01
3.828000000000000114e+01,9.811981064105632644e-01
3.832000000000000028e+01,1.000000000000000000e+00
3.835999999999999943e+01,9.946193049160134692e-01
3.839999999999999858e+01,9.671690241188882764e-01
3.843999999999999773e+01,9.653090904108853065e-01
3.847999999999999687e+01,9.545271404876076726e-01
3.852000000000000313e+01,9.097019305997056104e-01
3.856000000000000227e+01,9.061971962368263744e-01
3.860000000000000142e+01,8.705274279411309157e-01
3.864000000000000057e+01,8.306312074492818720e-01
3.867999999999999972e+01,8.160905624200746056e-01
3.871999999999999886e+01,7.780716722276671549e-01
3.875999999999999801e+01,7.191570958100971245e-01
3.879999999999999716e+01,7.088411189351070396e-01
3.884000000000000341e+01,6.975855870102266598e-01
3.888000000000000256e+01,6.468869109201644818e-01
3.892000000000000171e+01,6.419695016873668836e-01
3.896000000000000085e+01,6.074696259429852585e-01
3.900000000000000000e+01,5.358743891033818096e-01
3.903999999999999915e+01,5.084169763801079656e-01
3.907999999999999829e+01,5.018543679348229647e-01
3.911999999999999744e+01,4.959956577845766046e-01
3.915999999999999659e+01,4.605544864247430592e-01
3.920000000000000284e+01,4.133739820703100643e-01
3.924000000000000199e+01,4.220702065780118084e-01
3.928000000000000114e+01,4.023578630017054514e-01
3.932000000000000028e+01,3.805320871559204621e-01
3.935999999999999943e+01,3.852357947439482011e-01
3.939999999999999858e+01,3.735046148618502149e-01
3.943999999999999773e+01,3.289040893486946393e-01
3.947999999999999687e+01,3.084852705617882052e-01
3.952000000000000313e+01,3.096656016838926218e-01
3.956000000000000227e+01,2.972283854439827233e-01
3.960000000000000142e+01,3.141379948667959443e-01
3.964000000000000057e+01,3.117953873153657685e-01
3.967999999999999972e+01,2.707139907733704387e-01
3.971999999999999886e+01,2.714226564857326607e-01
3.975999999999999801e+01,2.679048996931242543e-01
3.979999999999999716e+01,2.467783760900033319e-01
3.984000000000000341e+01,2.500683467456022435e-01
3.988000000000000256e+01,2.301148809784595017e-01
3.992000000000000171e+01,2.261259039912936752e-01
3.996000000000000085e+01,2.305885212004667451e-01
4.000000000000000000e+01,2.322333902003225481e-01
4.003999999999999915e+01,2.237823943960993434e-01
4.007999999999999829e+01,2.334088935133359355e-01
4.011999999999999744e+01,2.045313932932767975e-01
4.015999999999999659e+01,1.897401643045815434e-01
4.020000000000000284e+01,1.996002171070768438e-01
4.024000000000000199e+01,1.902080688413198828e-01
4.028000000000000114e+01,2.096932082873230463e-01
4.032000000000000028e+01,2.099261487858727904e-01
4.035999999999999943e+01,1.686029824541329381e-01
4.039999999999999858e+01,1.857391336137479143e-01
4.043999999999999773e+01,1.779884172740796855e-01
4.047999999999999687e+01,1.735241931606670285e-01
4.052000000000000313e+01,1.681204585341384006e-01
4.056000000000000227e+01,1.728117799320728620e-01
4.060000000000000142e+01,1.481554562836745748e-01
4.064000000000000057e+01,1.749151168227426056e-01
4.067999999999999972e+01,1.624664589034778839e-01
4.071999999999999886e+01,1.643388650500447190e-01
4.075999999999999801e+01,1.537676455909600393e-01
4.079999999999999716e+01,1.629173860626574044e-01
4.084000000000000341e+01,1.403717079616567665e-01
4.088000000000000256e+01,1.443555535896456909e-01
4.092000000000000171e+01,1.295567721539243045e-01
4.096000000000000085e+01,1.377658467348487625e-01
4.100000000000000000e+01,1.332965240836419263e-01
4.103999999999999915e+01,1.290615946488921084e-01
4.107999999999999829e+01,1.499475263118718316e-01
4.111999999999999744e+01,1.391380468249492353e-01
4.115999999999999659e+01,1.442930889903846492e-01
4.120000000000000284e+01,1.524998644803886028e-01
4.124000000000000199e+01,1.433326893231343935e-01
4.128000000000000114e+01,1.416780313998944607e-01
4.132000000000000028e+01,1.414316640602881758e-01
4.135999999999999943e+01,1.259243511545072858e-01
4.139999999999999858e+01,1.418769135293073969e-01
4.143999999999999773e+01,1.165081756934778223e-01
4.147999999999999687e+01,1.244775391700373851e-01
4.152000000000000313e+01,1.082643977447258488e-01
4.156000000000000227e+01,1.307892534967539100e-01
4.160000000000000142e+01,1.249056026679386810e-01
4.164000000000000057e+01,1.218389188392091649e-01
4.167999999999999972e+01,1.251108729041070788e-01
4.171999999999999886e+01,1.091306651355302693e-01
4.175999999999999801e+01,1.185061144803488259e-01
4.179999999999999716e+01,1.067511802014821237e-01
4.184000000000000341e+01,1.255170209120851366e-01
4.188000000000000256e+01,1.163439184423929601e-01
4.192000000000000171e+01,1.264222496169135901e-01
4.196000000000000085e+01,1.198309831979935264e-01
4.200000000000000000e+01,1.209870310891530687e-01
4.203999999999999915e+01,1.284817264175346641e-01
4.207999999999999829e+01,1.209502732558069282e-01
4.211999999999999744e+01,1.352528169179267326e-01
4.215999999999999659e+01,1.211468688447947667e-01
4.220000000000000284e+01,1.319270335716991593e-01
4.224000000000000199e+01,1.229854942725685935e-01
4.228000000000000114e+01,1.154522710066570312e-01
4.232000000000000028e+01,1.299878278554660871e-01
4.235999999999999943e+01,1.179931221820296611e-01
4.239999999999999858e+01,1.517797756206049342e-01
4.243999999999999773e+01,1.386104836255074302e-01
4.247999999999999687e+01,1.493881998977374392e-01
4.252000000000000313e+01,1.150881967681028351e-01
4.256000000000000227e+01,1.314998947584768152e-01
4.260000000000000142e+01,1.385201297769615703e-01
4.264000000000000057e+01,1.239404474623959918e-01
4.267999999999999972e+01,1.431684542499536694e-01
4.271999999999999886e+01,1.379792099587457965e-01
4.275999999999999801e+01,1.356069623588066764e-01
4.279999999999999716e+01,1.543643956428761843e-01
4.284000000000000341e+01,1.440090212518551904e-01
4.288000000000000256e+01,1.482095461771091305e-01
4.292000000000000171e+01,1.399665027582788768e-01
4.296000000000000085e+01,1.552009243538164385e-01
4.300000000000000000e+01,1.338096468718238674e-01
4.303999999999999915e+01,1.567910775349763142e-01
4.307999999999999829e+01,1.746070617508031497e-01
4.311999999999999744e+01,1.783360370024095476e-01
4.315999999999999659e+01,1.592912187617769038e-01
4.320000000000000284e+01,1.801583311192398451e-01
4.324000000000000199e+01,1.749647602609962771e-01
4.328000000000000114e+01,1.885531031227924981e-01
4.332000000000000028e+01,1.915761121555076274e-01
4.335999999999999943e+01,1.849729003750458789e-01
4.339999999999999858e+01,1.816562582299954265e-01
4.343999999999999773e+01,2.046344296906193738e-01
4.347999999999999687e+01,1.914564707762583251e-01
4.352000000000000313e+01,1.918953161890578352e-01
4.356000000000000227e+01,1.970294034121232163e-01
4.360000000000000142e+01,1.977023919396835860e-01
4.364000000000000057e+01,2.065922942314508959e-01
4.367999999999999972e+01,1.964648646381899344e-01
4.371999999999999886e+01,2.262493794282166570e-01
4.375999999999999801e+01,2.074345378556174679e-01
4.379999999999999716e+01,2.020017300440984098e-01
4.384000000000000341e+01,2.132378488983252551e-01
4.388000000000000256e+01,2.143782047468149043e-01
4.392000000000000171e+01,2.249093717266880954e-01
4.396000000000000085e+01,2.138406563666910842e-01
4.400000000000000000e+01,2.234320977249320828e-01
4.403999999999999915e+01,2.102497689197208031e-01
4.407999999999999829e+01,2.196058228645557386e-01
4.411999999999999744e+01,2.200400101104306450e-01
4.415999999999999659e+01,2.324475727277234005e-01
4.420000000000000284e+01,2.389853846222448619e-01
4.424000000000000199e+01,2.333144411547383168e-01
4.428000000000000114e+01,2.250606409295256016e-01
4.432000000000000028e+01,2.501450173050590031e-01
4.435999999999999943e+01,2.545686339002206089e-01
4.439999999999999858e+01,2.540616170301126520e-01
4.443999999999999773e+01,2.408762941222212517e-01
4.447999999999999687e+01,2.441251368575897973e-01
4.452000000000000313e+01,2.422085713200109180e-01
4.456000000000000227e+01,2.398221583474070828e-01
4.460000000000000142e+01,2.672522595652025990e-01
4.464000000000000057e+01,2.308224584722084471e-01
4.467999999999999972e+01,2.260873976014217135e-01
4.471999999999999886e+01,2.363778408030342559e-01
4.475999999999999801e+01,2.384507682387056737e-01
4.479999999999999716e+01,2.254976192914264765e-01
4.484000000000000341e+01,2.148919661984320939e-01
4.488000000000000256e+01,2.171988195195492244e-01
4.492000000000000171e+01,2.065926015387994086e-01
4.496000000000000085e+01,2.267420192475481378e-01
4.500000000000000000e+01,1.952399996106621571e-01
4.503999999999999915e+01,1.775896025849897364e-01
4.507999999999999829e+01,1.855297286747386032e-01
4.511999999999999744e+01,1.847827925643883706e-01
4.515999999999999659e+01,1.755835733032147516e-01
4.520000000000000284e+01,1.654449675956540800e-01
4.524000000000000199e+01,1.543669765021059848e-01
4.528000000000000114e+01,1.735750736034993025e-01
4.532000000000000028e+01,1.462968575977284247e-01
4.535999999999999943e+01,1.478960639744408001e-01
4.539999999999999858e+01,1.447994413847446538e-01
4.543999999999999773e+01,1.353635449669061408e-01
4.547999999999999687e+01,1.503442923241020690e-01
4.552000000000000313e+01,1.254125155646632905e-01
4.556000000000000227e+01,1.328798363228471668e-01
4.560000000000000142e+01,1.128778684956317779e-01
4.564000000000000057e+01,1.086057630966302673e-01
4.567999999999999972e+01,1.130201815199572413e-01
4.571999999999999886e+01,1.146170033710800923e-01
4.575999999999999801e+01,9.344010065592450731e-02
4.579999999999999716e+01,9.456684829911292389e-02
4.584000000000000341e+01,1.114234636725121852e-01
4.588000000000000256e+01,9.376745821702309192e-02
4.592000000000000171e+01,9.841510630107620783e-02
4.596000000000000085e+01,8.404548294286641463e-02
4.600000000000000000e+01,8.517095356758891400e-02
4.603999999999999915e+01,7.549638448151289871e-02
4.607999999999999829e+01,7.521268378838785740e-02
4.611999999999999744e+01,8.784152238175547966e-02
4.615999999999999659e+01,6.689685952453514051e-02
4.620000000000000284e+01,7.177752746279510154e-02
4.624000000000000199e+01,7.313627864741462092e-02
4.628000000000000114e+01,6.721666631677453152e-02
4.632000000000000028e+01,6.458370103070143475e-02
4.635999999999999943e+01,5.537670831679594036e-02
4.639999999999999858e+01,5.321281259027484112e-02
4.643999999999999773e+01,5.738768094490903637e-02
4.647999999999999687e+01,6.203186471919386324e-02
4.652000000000000313e+01,5.423257558533989969e-02
4.656000000000000227e+01,5.253727572496320886e-02
4.660000000000000142e+01,4.450273278802670956e-02
4.664000000000000057e+01,5.642408258905976665e-02
4.667999999999999972e+01,5.425851780141845854e-02
4.671999999999999886e+01,4.997971691818636070e-02
4.675999999999999801e+01,4.734412882178147541e-02
4.679999999999999716e+01,4.799520049473637168e-02
4.684000000000000341e+01,4.817648517543175746e-02
4.688000000000000256e+01,4.530542604662934209e-02
4.692000000000000171e+01,4.712969780164179279e-02
4.696000000000000085e+01,2.571072082460528277e-02
4.700000000000000000e+01,3.340398769530323470e-02
4.703999999999999915e+01,3.334935522057772689e-02
4.707999999999999829e+01,3.869439183789318004e-02
4.711999999999999744e+01,3.276986139744147292e-02
4.715999999999999659e+01,3.834922988060964627e-02
4.720000000000000284e+01,4.345882091511297368e-02
4.724000000000000199e+01,4.481174371708449705e-02
4.728000000000000114e+01,3.912110750265730685e-02
4.732000000000000028e+01,3.859536875379133286e-02
4.735999999999999943e+01,4.534753043077135309e-02
4.739999999999999858e+01,4.153446643940843230e-02
4.743999999999999773e+01,3.772118733952928293e-02
4.747999999999999687e+01,3.132513631389550329e-02
4.752000000000000313e+01,3.901555163311401508e-02
4.756000000000000227e+01,4.154063926973886045e-02
4.760000000000000142e+01,3.772651033978876439e-02
4.764000000000000057e+01,2.686883193703453604e-02
4.767999999999999972e+01,3.291495998724396771e-02
4.771999999999999886e+01,3.144798470769587240e-02
4.775999999999999801e+01,8.616005815095922546e-03
4.779999999999999716e+01,2.663519142202644061e-02
4.784000000000000341e+01,4.066294671353989920e-02
4.788000000000000256e+01,1.078701464108825989e-02
4.792000000000000171e+01,1.424935460532800527e-02
4.796000000000000085e+01,1.818104922399590637e-02
4.800000000000000000e+01,3.925133676769902019e-02
4.803999999999999915e+01,2.792206264396641935e-02
4.807999999999999829e+01,3.020971373292523701e-02
4.811999999999999744e+01,3.320150170678605461e-02
4.815999999999999659e+01,1.647174259372208988e-02
4.820000000000000284e+01,2.392392137397502533e-02
4.824000000000000199e+01,2.339345463191013982e-02
4.828000000000000114e+01,1.887156923882149159e-02
4.832000000000000028e+01,2.514927955430671172e-02
4.835999999999999943e+01,3.706147088348958618e-02
4.839999999999999858e+01,3.277379132128661887e-02
4.843999999999999773e+01,2.097302751651505467e-02
4.847999999999999687e+01,2.185008757292417753e-02
4.852000000000000313e+01,2.507474104036230139e-02
4.856000000000000227e+01,2.313409333519168137e-02
4.860000000000000142e+01,2.142803926196338790e-02
4.864000000000000057e+01,2.911292144724712122e-02
4.867999999999999972e+01,3.562373145201497282e-02
4.871999999999999886e+01,2.076956329331654597e-02
4.875999999999999801e+01,2.094100630735622193e-02
4.879999999999999716e+01,2.299049417746826598e-02
4.884000000000000341e+01,1.189223667597783668e-02
4.888000000000000256e+01,1.253270168415736296e-02
4.892000000000000171e+01,2.397277830690173681e-02
4.896000000000000085e+01,2.273466871699405395e-02
4.900000000000000000e+01,1.633126961887091874e-02
4.903999999999999915e+01,1.509281358348286625e-02
4.907999999999999829e+01,2.160185954886700496e-02
4.911999999999999744e+01,1.707616946532987401e-02
4.915999999999999659e+01,2.029798350336379717e-02
4.920000000000000284e+01,2.187618316832158280e-02
4.924000000000000199e+01,1.476742985431791187e-02
4.928000000000000114e+01,2.010174362060665465e-02
4.932000000000000028e+01,2.074033233962745484e-02
4.935999999999999943e+01,1.950053293829358270e-02
4.939999999999999858e+01,3.586891955372582819e-02
4.943999999999999773e+01,1.561177781593039299e-02
4.947999999999999687e+01,3.315373125904973184e-02
4.952000000000000313e+01,1.500927042524480108e-02
4.956000000000000227e+01,2.738578923799249443e-02
4.960000000000000142e+01,1.346701544966102254e-02
4.964000000000000057e+01,2.208677180689156555e-02
4.967999999999999972e+01,1.896747299416379207e-02
4.971999999999999886e+01,1.772624342669450181e-02
4.975999999999999801e+01,1.953697410926390904e-02
4.979999999999999716e+01,1.759110442486264830e-02
4.984000000000000341e+01,2.174931096668903177e-02
4.988000000000000256e+01,3.154203881739001125e-02
4.992000000000000171e+01,1.597859450571170736e-02
4.996000000000000085e+01,1.144956736785858811e-02
5.000000000000000000e+01,9.972506842440508751e-03
5.003999999999999915e+01,2.516453734467421002e-02
5.007999999999999829e+01,2.040029367027792681e-02
5.011999999999999744e+01,2.667047141130438406e-02
5.015999999999999659e+01,2.378416458480301157e-02
5.020000000000000284e+01,1.268048620667792080e-02
5.024000000000000199e+01,2.481968784673417930e-02
5.028000000000000114e+01,3.648919368887874187e-02
5.032000000000000028e+01,1.975042411724789101e-02
5.035999999999999943e+01,3.024576355589128282e-02
5.039999999999999858e+01,3.088029082277470375e-02
5.043999999999999773e+01,2.259311893380231209e-02
5.047999999999999687e+01,1.923615029306696006e-02
5.052000000000000313e+01,2.221805389422504967e-02
5.056000000000000227e+01,2.637371504240040854e-02
5.060000000000000142e+01,2.348590518732671800e-02
5.064000000000000057e+01,2.764130472197315683e-02
5.067999999999999972e+01,2.944879515169259929e-02
5.071999999999999886e+01,2.045636993734266038e-02
5.075999999999999801e+01,1.475070947189242518e-02
5.079999999999999716e+01,2.430549224842545528e-02
5.084000000000000341e+01,2.071258267332564892e-02
5.088000000000000256e+01,2.345855488371382386e-02
5.092000000000000171e+01,2.761307217358996077e-02
5.096000000000000085e+01,1.134178263787044560e-02
5.100000000000000000e+01,2.324373103432007814e-02
5.103999999999999915e+01,1.730243260361060201e-02
5.107999999999999829e+01,2.192602506015700267e-02
5.111999999999999744e+01,1.128893068798083286e-02
5.115999999999999659e+01,7.225503512964553954e-03
5.120000000000000284e+01,1.607475029516389209e-02
5.124000000000000199e+01,1.694143108499987158e-02
5.128000000000000114e+01,2.344267029768931990e-02
5.132000000000000028e+01,2.266567960544265889e-02
5.135999999999999943e+01,1.578435001304013402e-02
5.139999999999999858e+01,2.815470537950652552e-02
5.143999999999999773e+01,1.916015468966534782e-02
5.147999999999999687e+01,1.908705956894086314e-02
5.152000000000000313e+01,2.065730342257135130e-02
5.156000000000000227e+01,2.480999926646086998e-02
5.160000000000000142e+01,2.309314056146715560e-02
5.164000000000000057e+01,1.550672836798938463e-02
5.167999999999999972e+01,2.365033872303390350e-02
5.171999999999999886e+01,1.395072027770905346e-02
5.175999999999999801e+01,2.303324035709538448e-02
5.179999999999999716e+01,1.497686772353952131e-02
5.184000000000000341e+01,2.570263573549373334e-02
5.188000000000000256e+01,2.140251505518993985e-02
5.192000000000000171e+01,1.217196026470258527e-02
5.196000000000000085e+01,2.853211097833206755e-02
5.200000000000000000e+01,2.352737048124555266e-02
5.203999999999999915e+01,3.213966017639033335e-02
5.207999999999999829e+01,2.173484067037946901e-02
5.211999999999999744e+01,1.156470811145753758e-02
5.215999999999999659e+01,1.548116490371749879e-02
5.220000000000000284e+01,2.244964663037917613e-02
5.224000000000000199e+01,1.509658317500595093e-02
5.228000000000000114e+01,2.042144431875586585e-02
5.232000000000000028e+01,8.842204523631829946e-03
5.235999999999999943e+01,1.440167323707680289e-02
5.239999999999999858e+01,1.573505453175943342e-02
5.243999999999999773e+01,2.317258097863017161e-02
5.247999999999999687e+01,2.027979441675712216e-02
5.252000000000000313e+01,1.550870350608154861e-02
5.256000000000000227e+01,2.153732070631554293e-02
5.260000000000000142e+01,9.722732434966714979e-03
5.264000000000000057e+01,2.608142557216229854e-02
5.267999999999999972e+01,2.177957949205988272e-02
5.271999999999999886e+01,1.794721425391346270e-02
5.275999999999999801e+01,2.374067248429281504e-02
5.279999999999999716e+01,3.094272563293170436e-02
5.284000000000000341e+01,2.429280548327880998e-02
5.288000000000000256e+01,2.797304594997834445e-02
5.292000000000000171e+01,2.484465490546986996e-02
5.296000000000000085e+01,1.631630134340969138e-02
5.300000000000000000e+01,1.999633548990939827e-02
5.303999999999999915e+01,2.766752879470276913e-02
5.307999999999999829e+01,2.876487281876176708e-02
5.311999999999999744e+01,2.915781834438989709e-02
5.315999999999999659e+01,2.462036263221575524e-02
5.320000000000000284e+01,2.172629043117108028e-02
5.324000000000000199e+01,2.986672235670182612e-02
5.328000000000000114e+01,2.438997063721045841e-02
5.332000000000000028e+01,2.079138359892296339e-02
5.335999999999999943e+01,2.752296990178057859e-02
5.339999999999999858e+01,2.979371730698445603e-02
5.343999999999999773e+01,3.957730430761836199e-02
5.347999999999999687e+01,1.508324994412477138e-02
5.352000000000000313e+01,8.197490818534906507e-03
5.356000000000000227e+01,2.525903369090452127e-02
5.360000000000000142e+01,2.353828564617151467e-02
5.364000000000000057e+01,3.379116428751249152e-02
5.367999999999999972e+01,3.066164787670141306e-02
5.371999999999999886e+01,2.541908094019347877e-02
5.375999999999999801e+01,9.846234927722323158e-03
5.379999999999999716e+01,2.972481873053881354e-02
5.384000000000000341e+01,1.485621473507025073e-02
5.388000000000000256e+01,2.229147529862300636e-02
5.392000000000000171e+01,3.113536047161829384e-02
5.396000000000000085e+01,1.438840259369690566e-02
5.400000000000000000e+01,1.783231055610962762e-02
5.403999999999999915e+01,2.409351424241996595e-02
5.407999999999999829e+01,3.411112666853200609e-02
5.411999999999999744e+01,2.229434810734346253e-02
5.415999999999999659e+01,2.569452059553218454e-02
5.420000000000000284e+01,3.459820131049808761e-02
5.424000000000000199e+01,3.010068567704547726e-02
5.428000000000000114e+01,3.123783769305564853e-02
5.432000000000000028e+01,2.705539134063304416e-02
5.435999999999999943e+01,2.768310716698365800e-02
5.439999999999999858e+01,2.993564278131683951e-02
5.443999999999999773e+01,2.895801280092253835e-02
5.447999999999999687e+01,2.480349105304751473e-02
5.452000000000000313e+01,2.910341990650932437e-02
5.456000000000000227e+01,2.912731902755741342e-02
5.460000000000000142e+01,2.751852487909627054e-02
5.464000000000000057e+01,3.190287823617546370e-02
5.467999999999999972e+01,3.246795362457756406e-02
5.471999999999999886e+01,2.646846932121937890e-02
5.475999999999999801e+01,2.797847592654911439e-02
5.479999999999999716e+01,2.722908432331351894e-02
5.484000000000000341e+01,2.939595740624679002e-02
5.488000000000000256e+01,3.190049287174476916e-02
5.492000000000000171e+01,3.017269750654020394e-02
5.496000000000000085e+01,2.838036929284006374e-02
5.500000000000000000e+01,2.737333274281159370e-02
5.503999999999999915e+01,3.335713554873424858e-02
5.507999999999999829e+01,3.271295104408990934e-02
5.511999999999999744e+01,3.032119353171011319e-02
5.515999999999999659e+01,2.530381235210742152e-02
5.520000000000000284e+01,3.177023713299505919e-02
5.524000000000000199e+01,2.929948044842878296e-02
5.528000000000000114e+01,2.599747403532111714e-02
5.532000000000000028e+01,3.303040418752225399e-02
5.535999999999999943e+01,3.046207563790760686e-02
5.539999999999999858e+01,2.491446830256448947e-02
5.543999999999999773e+01,2.812546070506444576e-02
5.547999999999999687e+01,2.843938489705625378e-02
5.552000000000000313e+01,2.730363693289012197e-02
5.556000000000000227e+01,3.071986592343263489e-02
5.560000000000000142e+01,3.196243354091782285e-02
5.564000000000000057e+01,2.778997405627169417e-02
5.567999999999999972e+01,3.485222270539192757e-02
5.571999999999999886e+01,2.965446064534537490e-02
5.575999999999999801e+01,2.659454954280292271e-02
5.579999999999999716e+01,4.060271038230810897e-02
5.584000000000000341e+01,3.066352393180128352e-02
5.588000000000000256e+01,3.105457762760129026e-02
5.592000000000000171e+01,2.651530325315707565e-02
5.596000000000000085e+01,2.784548935717153992e-02
5.600000000000000000e+01,3.645380493330090815e-02
5.603999999999999915e+01,3.402756790960401179e-02
5.607999999999999829e+01,4.404457823409650002e-02
5.611999999999999744e+01,3.434025249114349559e-02
5.615999999999999659e+01,3.942695610594020711e-02
5.620000000000000284e+01,3.324433337363220248e-02
5.624000000000000199e+01,3.739196033122551416e-02
5.628000000000000114e+01,3.355715490677906032e-02
5.632000000000000028e+01,2.901803581585321937e-02
5.635999999999999943e+01,4.490462311770198472e-02
5.639999999999999858e+01,4.200899373040565404e-02
5.643999999999999773e+01,4.639150547961765070e-02
5.647999999999999687e+01,3.715691841575898685e-02
5.652000000000000313e+01,3.214836075381729413e-02
5.656000000000000227e+01,4.545251288676162293e-02
5.660000000000000142e+01,3.574844983278709087e-02
5.664000000000000057e+01,4.130498483910722413e-02
5.667999999999999972e+01,2.620108666806879316e-02
5.671999999999999886e+01,3.457501828878956074e-02
5.675999999999999801e+01,3.402741829675866997e-02
5.679999999999999716e+01,4.122752496258289684e-02
5.684000000000000341e+01,3.715832224769258230e-02
5.688000000000000256e+01,3.708038048943768789e-02
5.692000000000000171e+01,4.944570834775929152e-02
5.696000000000000085e+01,3.434204877410941548e-02
5.700000000000000000e+01,5.116823401455635606e-02
5.703999999999999915e+01,3.723854209956428685e-02
5.707999999999999829e+01,3.880423789813644553e-02
5.711999999999999744e+01,5.116976269314900405e-02
5.715999999999999659e+01,3.747497329144412054e-02
5.720000000000000284e+01,3.951035277337774237e-02
5.724000000000000199e+01,4.107622096689416552e-02
5.728000000000000114e+01,2.996412351083245496e-02
5.732000000000000028e+01,4.585154158566322191e-02
5.735999999999999943e+01,4.201765646542976462e-02
5.739999999999999858e+01,4.029682217601454619e-02
5.743999999999999773e+01,4.021948380006452189e-02
5.747999999999999687e+01,4.295953234235997537e-02
5.752000000000000313e+01,5.180386070756661659e-02
5.756000000000000227e+01,4.280511509071516230e-02
5.760000000000000142e+01,4.225843130633524097e-02
5.764000000000000057e+01,5.274636829246404784e-02
5.767999999999999972e+01,3.740878285594358837e-02
5.771999999999999886e+01,4.883594556543337240e-02
5.775999999999999801e+01,4.030703769497669814e-02
5.779999999999999716e+01,4.962131651403499377e-02
5.784000000000000341e+01,5.212709425101064858e-02
5.788000000000000256e+01,4.735481598855072888e-02
5.792000000000000171e+01,5.549538983040459839e-02
5.796000000000000085e+01,3.522789079476707635e-02
5.800000000000000000e+01,4.172514732793562026e-02
5.803999999999999915e+01,4.634424584741790587e-02
5.807999999999999829e+01,5.542419311326975823e-02
5.811999999999999744e+01,5.276530895343529981e-02
5.815999999999999659e+01,4.235882023920865130e-02
5.820000000000000284e+01,4.603908099647236601e-02
5.824000000000000199e+01,4.971941295305604136e-02
5.828000000000000114e+01,4.776514543633121612e-02
5.832000000000000028e+01,4.416750531759206649e-02
5.835999999999999943e+01,5.348272896755999067e-02
5.839999999999999858e+01,5.246779654789431729e-02
5.843999999999999773e+01,4.887038275190781766e-02
5.847999999999999687e+01,4.949905031740865075e-02
5.852000000000000313e+01,4.238012287211183338e-02
5.856000000000000227e+01,5.427829220829927248e-02
5.860000000000000142e+01,4.833341513281300822e-02
5.864000000000000057e+01,4.426684377164991774e-02
5.867999999999999972e+01,5.827826041766456799e-02
5.871999999999999886e+01,5.749874768859382368e-02
5.875999999999999801e+01,5.249331614426418213e-02
5.879999999999999716e+01,4.490541276720832337e-02
5.884000000000000341e+01,4.436093616174814624e-02
5.888000000000000256e+01,4.757299554401691472e-02
5.892000000000000171e+01,4.397658247498663353e-02
5.896000000000000085e+01,5.258871511402583160e-02
5.900000000000000000e+01,5.180981954492711733e-02
5.903999999999999915e+01,5.830913403829717651e-02
5.907999999999999829e+01,5.424353249994721959e-02
5.911999999999999744e+01,5.135191543408482162e-02
5.915999999999999659e+01,5.362550971200392980e-02
5.920000000000000284e+01,5.754264656096159253e-02
5.924000000000000199e+01,5.066009363092070089e-02
5.928000000000000114e+01,5.762954081427753422e-02
5.932000000000000028e+01,5.708619218370079157e-02
5.935999999999999943e+01,4.949960477734218628e-02
5.939999999999999858e+01,6.116491440973132604e-02
5.943999999999999773e+01,6.907387923140362318e-02
5.947999999999999687e+01,5.491381717041789873e-02
5.952000000000000313e+01,6.235343521813969947e-02
5.956000000000000227e+01,5.007180839276380996e-02
5.960000000000000142e+01,5.610297195262797104e-02
5.964000000000000057e+01,6.941236148095190905e-02
5.967999999999999972e+01,5.525283568446301419e-02
5.971999999999999886e+01,5.682354557677450624e-02
5.975999999999999801e+01,5.675092104144982552e-02
5.979999999999999716e+01,6.348697073843022343e-02
5.984000000000000341e+01,6.599713025093538465e-02
5.988000000000000256e+01,4.784694141803351453e-02
5.992000000000000171e+01,4.683566150918593712e-02
5.996000000000000085e+01,6.695451739568676619e-02
