5.0400,-0.126
5.0800,-0.123
5.1200,-0.125
5.1600,-0.009
5.2000,0.029
5.2400,0.142
5.2800,0.128
5.3200,-0.013
5.3600,0.117
5.4000,0.011
5.4400,-0.044
5.4800,-0.063
5.5200,0.106
5.5600,0.143
5.6000,-0.131
5.6400,0.101
5.6800,0.085
5.7200,-0.012
5.7600,0.001
5.8000,0.032
5.8400,-0.168
5.8800,-0.040
5.9200,-0.015
5.9600,-0.018
6.0000,-0.031
6.0400,-0.224
6.0800,-0.005
6.1200,0.057
6.1600,0.119
6.2000,-0.050
6.2400,0.044
6.2800,-0.006
6.3200,-0.104
6.3600,-0.058
6.4000,0.006
6.4400,-0.023
6.4800,-0.113
6.5200,0.039
6.5600,-0.190
6.6000,-0.025
6.6400,-0.007
6.6800,-0.101
6.7200,-0.101
6.7600,-0.082
6.8000,0.032
6.8400,0.062
6.8800,-0.100
6.9200,-0.092
6.9600,0.008
7.0000,0.223
7.0400,-0.073
7.0800,0.054
7.1200,0.128
7.1600,0.023
7.2000,-0.141
7.2400,-0.028
7.2800,-0.024
7.3200,0.031
7.3600,-0.197
7.4000,0.011
7.4400,-0.013
7.4800,0.003
7.5200,0.140
7.5600,0.020
7.6000,-0.074
7.6400,0.143
7.6800,0.041
7.7200,0.056
7.7600,-0.013
7.8000,0.084
7.8400,-0.199
7.8800,-0.093
7.9200,0.039
7.9600,-0.116
8.0000,0.086
8.0400,-0.077
8.0800,0.086
8.1200,-0.024
8.1600,0.002
8.2000,-0.056
8.2400,-0.025
8.2800,-0.044
8.3200,-0.103
8.3600,0.063
8.4000,-0.009
8.4400,-0.012
8.4800,-0.015
8.5200,0.016
8.5600,-0.132
8.6000,-0.018
8.6400,0.024
8.6800,0.027
8.7200,0.109
8.7600,-0.005
8.8000,-0.056
8.8400,0.090
8.8800,0.012
8.9200,0.045
8.9600,-0.030
9.0000,-0.017
9.0400,0.073
9.0800,0.088
9.1200,0.021
9.1600,-0.104
9.2000,0.033
9.2400,-0.011
9.2800,-0.015
9.3200,0.231
9.3600,0.082
9.4000,-0.020
9.4400,0.127
9.4800,-0.077
9.5200,0.019
9.5600,-0.014
9.6000,0.137
9.6400,0.242
9.6800,-0.057
9.7200,-0.008
9.7600,-0.095
9.8000,-0.063
9.8400,0.019
9.8800,0.122
9.9200,0.089
9.9600,-0.099
10.0000,-0.070
10.0400,0.098
10.0800,0.024
10.1200,-0.088
10.1600,0.141
10.2000,0.037
10.2400,-0.073
10.2800,0.086
10.3200,0.041
10.3600,-0.076
10.4000,0.118
10.4400,0.177
10.4800,0.110
10.5200,-0.058
10.5600,-0.056
10.6000,-0.075
10.6400,0.008
10.6800,-0.028
10.7200,-0.014
10.7600,0.012
10.8000,-0.094
10.8400,-0.027
10.8800,0.129
10.9200,0.011
10.9600,0.016
11.0000,-0.027
11.0400,-0.093
11.0800,-0.005
11.1200,0.001
11.1600,-0.074
11.2000,0.154
11.2400,-0.013
11.2800,-0.053
11.3200,0.189
11.3600,-0.114
11.4000,0.147
11.4400,-0.048
11.4800,0.015
11.5200,0.042
11.5600,0.064
11.6000,0.174
11.6400,0.184
11.6800,-0.017
11.7200,-0.049
11.7600,-0.046
11.8000,0.120
11.8400,0.028
11.8800,0.024
11.9200,-0.110
11.9600,-0.030
12.0000,0.112
12.0400,0.190
12.0800,-0.046
12.1200,0.020
12.1600,0.012
12.2000,-0.072
12.2400,0.033
12.2800,-0.005
12.3200,0.032
12.3600,0.205
12.4000,-0.021
12.4400,0.174
12.4800,0.025
12.5200,-0.052
12.5600,-0.042
12.6000,0.020
12.6400,0.055
12.6800,0.047
12.7200,0.016
12.7600,0.082
12.8000,-0.029
12.8400,0.209
12.8800,0.059
12.9200,-0.115
12.9600,-0.059
13.0000,0.123
13.0400,0.012
13.0800,0.193
13.1200,0.187
13.1600,0.039
13.2000,0.071
13.2400,-0.040
13.2800,-0.032
13.3200,0.017
13.3600,0.008
13.4000,0.082
13.4400,-0.041
13.4800,0.112
13.5200,0.161
13.5600,-0.065
13.6000,0.109
13.6400,0.104
13.6800,0.073
13.7200,0.057
13.7600,0.051
13.8000,-0.096
13.8400,-0.060
13.8800,-0.069
13.9200,0.061
13.9600,-0.052
14.0000,0.135
14.0400,-0.090
14.0800,0.115
14.1200,0.008
14.1600,-0.014
14.2000,0.012
14.2400,0.013
14.2800,0.091
14.3200,-0.006
14.3600,0.136
14.4000,-0.026
14.4400,0.032
14.4800,0.018
14.5200,0.026
14.5600,0.070
14.6000,0.017
14.6400,-0.073
14.6800,0.149
14.7200,-0.076
14.7600,0.056
14.8000,0.067
14.8400,0.084
14.8800,0.161
14.9200,-0.013
14.9600,-0.162
15.0000,0.008
15.0400,0.024
15.0800,-0.068
15.1200,0.049
15.1600,0.040
15.2000,0.117
15.2400,-0.033
15.2800,-0.007
15.3200,0.106
15.3600,0.070
15.4000,0.024
15.4400,0.137
15.4800,0.069
15.5200,0.102
15.5600,-0.039
15.6000,0.176
15.6400,0.038
15.6800,0.114
15.7200,0.020
15.7600,0.007
15.8000,0.005
15.8400,0.085
15.8800,-0.044
15.9200,-0.103
15.9600,0.037
16.0000,0.079
16.0400,-0.022
16.0800,-0.121
16.1200,0.061
16.1600,0.160
16.2000,0.254
16.2400,0.199
16.2800,0.051
16.3200,-0.038
16.3600,0.043
16.4000,0.117
16.4400,0.090
16.4800,0.156
16.5200,0.165
16.5600,-0.073
16.6000,0.010
16.6400,0.039
16.6800,0.051
16.7200,0.112
16.7600,0.128
16.8000,0.142
16.8400,0.133
16.8800,0.065
16.9200,0.147
16.9600,0.022
17.0000,0.060
17.0400,0.005
17.0800,-0.048
17.1200,0.111
17.1600,-0.027
17.2000,-0.115
17.2400,0.017
17.2800,0.008
17.3200,0.147
17.3600,0.136
17.4000,0.098
17.4400,-0.015
17.4800,0.107
17.5200,0.112
17.5600,0.074
17.6000,0.219
17.6400,0.118
17.6800,0.079
17.7200,-0.014
17.7600,0.005
17.8000,0.057
17.8400,0.069
17.8800,0.081
17.9200,0.166
17.9600,0.025
18.0000,-0.061
18.0400,0.066
18.0800,0.003
18.1200,0.098
18.1600,0.129
18.2000,0.079
18.2400,0.056
18.2800,0.140
18.3200,0.075
18.3600,-0.027
18.4000,0.057
18.4400,-0.056
18.4800,-0.081
18.5200,0.018
18.5600,0.007
18.6000,0.214
18.6400,0.137
18.6800,-0.006
18.7200,-0.083
18.7600,-0.057
18.8000,0.179
18.8400,0.172
18.8800,-0.085
18.9200,0.072
18.9600,0.085
19.0000,-0.039
19.0400,0.047
19.0800,0.071
19.1200,0.005
19.1600,-0.180
19.2000,-0.009
19.2400,0.092
19.2800,0.041
19.3200,0.032
19.3600,-0.079
19.4000,0.105
19.4400,0.179
19.4800,0.107
19.5200,0.201
19.5600,-0.004
19.6000,0.003
19.6400,0.003
19.6800,0.138
19.7200,0.041
19.7600,0.024
19.8000,0.010
19.8400,-0.019
19.8800,0.094
19.9200,0.059
19.9600,0.051
20.0000,0.066
20.0400,-0.012
20.0800,-0.034
20.1200,-0.047
20.1600,0.074
20.2000,-0.048
20.2400,-0.020
20.2800,-0.137
20.3200,0.016
20.3600,0.145
20.4000,-0.005
20.4400,-0.079
20.4800,-0.025
20.5200,-0.059
20.5600,0.036
20.6000,0.048
20.6400,-0.095
20.6800,0.116
20.7200,-0.001
20.7600,-0.053
20.8000,0.152
20.8400,-0.089
20.8800,-0.057
20.9200,0.024
20.9600,0.057
21.0000,-0.022
21.0400,0.000
21.0800,0.028
21.1200,-0.039
21.1600,0.014
21.2000,0.187
21.2400,0.018
21.2800,-0.080
21.3200,-0.050
21.3600,-0.010
21.4000,0.011
21.4400,-0.103
21.4800,0.002
21.5200,-0.135
21.5600,0.033
21.6000,0.083
21.6400,-0.023
21.6800,0.055
21.7200,0.056
21.7600,-0.068
21.8000,0.031
21.8400,0.089
21.8800,0.083
21.9200,-0.005
21.9600,-0.045
22.0000,0.118
22.0400,-0.088
22.0800,-0.034
22.1200,-0.027
22.1600,-0.089
22.2000,0.029
22.2400,-0.047
22.2800,0.101
22.3200,-0.040
22.3600,-0.009
22.4000,0.122
22.4400,-0.078
22.4800,-0.079
22.5200,0.007
22.5600,0.092
22.6000,-0.043
22.6400,0.116
22.6800,-0.074
22.7200,-0.078
22.7600,-0.049
22.8000,-0.024
22.8400,0.032
22.8800,0.166
22.9200,0.138
22.9600,0.104
23.0000,-0.081
23.0400,-0.078
23.0800,-0.039
23.1200,-0.026
23.1600,0.055
23.2000,-0.088
23.2400,0.032
23.2800,-0.029
23.3200,0.067
23.3600,-0.043
23.4000,0.014
23.4400,-0.031
23.4800,0.044
23.5200,-0.086
23.5600,-0.046
23.6000,0.067
23.6400,0.026
23.6800,0.019
23.7200,0.036
23.7600,-0.066
23.8000,0.037
23.8400,-0.007
23.8800,0.098
23.9200,0.005
23.9600,-0.077
24.0000,-0.054
24.0400,0.040
24.0800,0.140
24.1200,-0.012
24.1600,0.044
24.2000,-0.063
24.2400,0.078
24.2800,0.037
24.3200,-0.008
24.3600,-0.140
24.4000,0.006
24.4400,-0.044
24.4800,0.049
24.5200,0.035
24.5600,0.154
24.6000,0.015
24.6400,-0.065
24.6800,0.083
24.7200,0.044
24.7600,0.057
24.8000,0.040
24.8400,-0.087
24.8800,0.011
24.9200,-0.094
24.9600,-0.011
25.0000,-0.010
25.0400,0.046
25.0800,0.060
25.1200,-0.042
25.1600,-0.041
25.2000,-0.024
25.2400,-0.070
25.2800,-0.052
25.3200,0.063
25.3600,0.014
25.4000,0.052
25.4400,-0.109
25.4800,-0.054
25.5200,-0.003
25.5600,0.074
25.6000,0.194
25.6400,-0.054
25.6800,-0.020
25.7200,0.030
25.7600,0.114
25.8000,0.101
25.8400,0.118
25.8800,-0.043
25.9200,0.011
25.9600,-0.074
26.0000,-0.028
26.0400,-0.029
26.0800,-0.053
26.1200,0.170
26.1600,0.108
26.2000,0.057
26.2400,0.035
26.2800,-0.058
26.3200,0.025
26.3600,-0.090
26.4000,0.043
26.4400,0.005
26.4800,-0.074
26.5200,-0.057
26.5600,0.028
26.6000,0.075
26.6400,-0.018
26.6800,0.144
26.7200,0.065
26.7600,0.047
26.8000,0.041
26.8400,0.034
26.8800,-0.075
26.9200,-0.038
26.9600,-0.051
27.0000,-0.044
27.0400,-0.017
27.0800,0.000
27.1200,-0.112
27.1600,0.111
27.2000,0.061
27.2400,0.070
27.2800,0.033
27.3200,0.050
27.3600,-0.055
27.4000,-0.072
27.4400,0.031
27.4800,0.165
27.5200,0.043
27.5600,-0.069
27.6000,-0.005
27.6400,0.085
27.6800,-0.023
27.7200,0.098
27.7600,0.043
27.8000,-0.115
27.8400,-0.046
27.8800,-0.013
27.9200,0.026
27.9600,0.022
28.0000,-0.020
28.0400,-0.054
28.0800,0.041
28.1200,0.092
28.1600,0.069
28.2000,0.142
28.2400,-0.054
28.2800,-0.017
28.3200,0.056
28.3600,-0.101
28.4000,0.010
28.4400,0.008
28.4800,-0.070
28.5200,-0.055
28.5600,0.008
28.6000,-0.009
28.6400,-0.052
28.6800,0.037
28.7200,-0.077
28.7600,0.061
28.8000,0.099
28.8400,0.081
28.8800,0.114
28.9200,0.136
28.9600,0.029
29.0000,0.096
29.0400,0.198
29.0800,0.155
29.1200,-0.045
29.1600,0.034
29.2000,0.055
29.2400,0.001
29.2800,-0.007
29.3200,-0.071
29.3600,-0.002
29.4000,0.070
29.4400,0.118
29.4800,0.126
29.5200,0.075
29.5600,0.036
29.6000,-0.087
29.6400,-0.034
29.6800,0.041
29.7200,0.086
29.7600,0.101
29.8000,0.051
29.8400,-0.061
29.8800,-0.034
29.9200,0.016
29.9600,-0.142
30.0000,0.054
30.0400,0.078
30.0800,0.131
30.1200,0.004
30.1600,0.039
30.2000,0.063
30.2400,0.037
30.2800,-0.083
30.3200,0.017
30.3600,0.061
30.4000,0.067
30.4400,0.054
30.4800,0.005
30.5200,-0.067
30.5600,0.098
30.6000,0.099
30.6400,0.106
30.6800,-0.031
30.7200,-0.067
30.7600,0.024
30.8000,-0.110
30.8400,0.049
30.8800,0.030
30.9200,-0.081
30.9600,-0.038
31.0000,0.052
31.0400,-0.070
31.0800,0.031
31.1200,-0.004
31.1600,0.023
31.2000,0.016
31.2400,-0.064
31.2800,-0.006
31.3200,0.023
31.3600,0.080
31.4000,0.039
31.4400,0.004
31.4800,0.131
31.5200,-0.007
31.5600,0.121
31.6000,-0.079
31.6400,0.027
31.6800,-0.041
31.7200,0.066
31.7600,0.028
31.8000,-0.014
31.8400,-0.064
31.8800,-0.022
31.9200,-0.015
31.9600,-0.036
32.0000,-0.032
32.0400,0.026
32.0800,-0.024
32.1200,0.016
32.1600,0.046
32.2000,-0.059
32.2400,-0.023
32.2800,-0.043
32.3200,0.010
32.3600,0.092
32.4000,-0.035
32.4400,-0.042
32.4800,0.023
32.5200,0.053
32.5600,0.041
32.6000,-0.065
32.6400,-0.086
32.6800,0.093
32.7200,0.020
32.7600,-0.042
32.8000,0.051
32.8400,0.140
32.8800,0.029
32.9200,-0.045
32.9600,0.135
33.0000,0.017
33.0400,0.019
33.0800,0.108
33.1200,0.136
33.1600,-0.027
33.2000,0.006
33.2400,0.068
33.2800,0.134
33.3200,0.006
33.3600,0.125
33.4000,0.013
33.4400,0.041
33.4800,-0.027
33.5200,-0.110
33.5600,0.024
33.6000,0.051
33.6400,0.063
33.6800,0.036
33.7200,-0.037
33.7600,0.073
33.8000,-0.021
33.8400,-0.064
33.8800,0.007
33.9200,0.052
33.9600,-0.055
34.0000,-0.027
34.0400,-0.009
34.0800,0.020
34.1200,0.041
34.1600,-0.067
34.2000,-0.013
34.2400,-0.005
34.2800,-0.006
34.3200,0.092
34.3600,-0.006
34.4000,-0.063
34.4400,-0.050
34.4800,0.084
34.5200,-0.004
34.5600,0.119
34.6000,-0.030
34.6400,-0.063
34.6800,-0.029
34.7200,0.074
34.7600,0.023
34.8000,0.052
34.8400,0.047
34.8800,-0.024
34.9200,0.096
34.9600,-0.039
35.0000,0.064
35.0400,0.015
35.0800,-0.024
35.1200,-0.063
35.1600,-0.005
35.2000,0.074
35.2400,-0.028
35.2800,0.030
35.3200,0.014
35.3600,-0.086
35.4000,0.025
35.4400,-0.017
35.4800,0.085
35.5200,0.077
35.5600,0.077
35.6000,0.022
35.6400,-0.056
35.6800,-0.064
35.7200,0.028
35.7600,0.071
35.8000,0.021
35.8400,-0.005
35.8800,0.085
35.9200,0.070
35.9600,-0.008
36.0000,0.134
36.0400,0.075
36.0800,0.068
36.1200,0.079
36.1600,0.008
36.2000,-0.064
36.2400,0.078
36.2800,0.079
36.3200,-0.002
36.3600,-0.106
36.4000,0.149
36.4400,0.038
36.4800,0.058
36.5200,0.072
36.5600,0.135
36.6000,0.125
36.6400,0.043
36.6800,0.045
36.7200,0.021
36.7600,-0.064
36.8000,-0.043
36.8400,0.063
36.8800,0.070
36.9200,0.090
36.9600,0.131
37.0000,0.108
37.0400,0.134
37.0800,0.115
37.1200,0.086
37.1600,0.047
37.2000,0.158
37.2400,0.165
37.2800,0.179
37.3200,0.202
37.3600,0.204
37.4000,0.303
37.4400,0.339
37.4800,0.508
37.5200,0.445
37.5600,0.647
37.6000,0.658
37.6400,0.787
37.6800,1.098
37.7200,1.095
37.7600,1.329
37.8000,1.617
37.8400,2.057
37.8800,2.703
37.9200,3.425
37.9600,4.706
38.0000,5.962
38.0400,7.928
38.0800,11.851
38.1200,16.624
38.1600,22.372
38.2000,26.762
38.2400,28.314
38.2800,26.001
38.3200,22.262
38.3600,17.687
38.4000,12.710
38.4400,9.580
38.4800,7.065
38.5200,5.208
38.5600,3.947
38.6000,2.784
38.6400,2.329
38.6800,2.044
38.7200,1.739
38.7600,1.288
38.8000,1.178
38.8400,0.916
38.8800,0.657
38.9200,0.744
38.9600,0.633
39.0000,0.519
39.0400,0.307
39.0800,0.213
39.1200,0.149
39.1600,0.258
39.2000,0.269
39.2400,0.128
39.2800,0.103
39.3200,0.238
39.3600,-0.038
39.4000,0.178
39.4400,-0.008
39.4800,0.031
39.5200,-0.081
39.5600,-0.030
39.6000,-0.041
39.6400,-0.014
39.6800,0.025
39.7200,-0.011
39.7600,0.078
39.8000,-0.025
39.8400,0.033
39.8800,-0.082
39.9200,-0.004
39.9600,-0.024
40.0000,0.015
40.0400,-0.021
40.0800,-0.010
40.1200,0.064
40.1600,0.028
40.2000,-0.070
40.2400,-0.009
40.2800,-0.042
40.3200,-0.080
40.3600,0.031
40.4000,0.024
40.4400,-0.029
40.4800,0.075
40.5200,-0.048
40.5600,0.026
40.6000,0.024
40.6400,0.096
40.6800,-0.024
40.7200,0.032
40.7600,0.042
40.8000,-0.095
40.8400,0.003
40.8800,0.022
40.9200,-0.068
40.9600,0.032
41.0000,0.063
41.0400,-0.020
41.0800,0.033
41.1200,0.016
41.1600,-0.076
41.2000,-0.026
41.2400,-0.008
41.2800,0.119
41.3200,0.002
41.3600,-0.014
41.4000,-0.018
41.4400,-0.038
41.4800,-0.019
41.5200,-0.106
41.5600,0.060
41.6000,-0.075
41.6400,-0.026
41.6800,-0.007
41.7200,0.026
41.7600,-0.027
41.8000,0.036
41.8400,-0.062
41.8800,-0.003
41.9200,-0.058
41.9600,-0.032
42.0000,-0.046
42.0400,-0.012
42.0800,-0.052
42.1200,0.030
42.1600,-0.032
42.2000,-0.004
42.2400,-0.057
42.2800,-0.035
42.3200,-0.057
42.3600,-0.021
42.4000,-0.036
42.4400,0.061
42.4800,-0.002
42.5200,-0.012
42.5600,-0.139
42.6000,0.038
42.6400,-0.057
42.6800,-0.043
42.7200,0.043
42.7600,-0.030
42.8000,0.067
42.8400,0.032
42.8800,0.066
42.9200,-0.030
42.9600,-0.058
43.0000,-0.098
43.0400,0.064
43.0800,-0.065
43.1200,0.006
43.1600,0.004
43.2000,-0.023
43.2400,0.047
43.2800,-0.050
43.3200,0.073
43.3600,0.037
43.4000,0.070
43.4400,0.047
43.4800,0.082
43.5200,0.081
43.5600,0.080
43.6000,0.120
43.6400,0.152
43.6800,0.146
43.7200,0.250
43.7600,0.319
43.8000,0.275
43.8400,0.444
43.8800,0.657
43.9200,0.783
43.9600,0.869
44.0000,0.976
44.0400,1.211
44.0800,1.371
44.1200,1.660
44.1600,2.126
44.2000,2.498
44.2400,3.169
44.2800,3.741
44.3200,4.582
44.3600,5.539
44.4000,6.036
44.4400,6.018
44.4800,6.091
44.5200,5.550
44.5600,5.049
44.6000,4.256
44.6400,3.559
44.6800,2.862
44.7200,2.312
44.7600,1.977
44.8000,1.649
44.8400,1.259
44.8800,1.126
44.9200,0.895
44.9600,0.791
45.0000,0.511
45.0400,0.378
45.0800,0.267
45.1200,0.310
45.1600,0.289
45.2000,0.171
45.2400,0.036
45.2800,0.181
45.3200,-0.028
45.3600,0.101
45.4000,0.050
45.4400,0.086
45.4800,0.055
45.5200,0.145
45.5600,-0.002
45.6000,-0.001
45.6400,-0.055
45.6800,-0.032
45.7200,0.042
45.7600,-0.090
45.8000,0.028
45.8400,0.038
45.8800,0.079
45.9200,-0.013
45.9600,0.023
46.0000,0.071
46.0400,-0.052
46.0800,-0.052
46.1200,0.033
46.1600,0.031
46.2000,-0.027
46.2400,0.003
46.2800,-0.074
46.3200,-0.002
46.3600,0.002
46.4000,-0.052
46.4400,-0.039
46.4800,0.047
46.5200,0.055
46.5600,-0.027
46.6000,-0.023
46.6400,-0.051
46.6800,-0.018
46.7200,-0.072
46.7600,0.057
46.8000,0.022
46.8400,0.120
46.8800,-0.014
46.9200,-0.041
46.9600,-0.018
47.0000,-0.076
47.0400,0.017
47.0800,0.018
47.1200,-0.043
47.1600,0.054
47.2000,-0.028
47.2400,-0.022
47.2800,0.038
47.3200,0.100
47.3600,-0.003
47.4000,-0.039
47.4400,0.090
47.4800,0.058
47.5200,0.009
47.5600,0.024
47.6000,-0.047
47.6400,-0.049
47.6800,0.033
47.7200,0.005
47.7600,0.081
47.8000,-0.020
47.8400,0.077
47.8800,0.055
47.9200,-0.026
47.9600,0.009
48.0000,-0.027
48.0400,0.067
48.0800,0.070
48.1200,0.044
48.1600,-0.024
48.2000,-0.048
48.2400,-0.007
48.2800,0.060
48.3200,0.039
48.3600,0.013
48.4000,0.073
48.4400,0.076
48.4800,-0.042
48.5200,-0.048
48.5600,0.030
48.6000,-0.019
48.6400,-0.021
48.6800,0.080
48.7200,-0.012
48.7600,0.065
48.8000,0.004
48.8400,-0.032
48.8800,0.049
48.9200,0.004
48.9600,-0.033
49.0000,0.004
49.0400,0.019
49.0800,-0.002
49.1200,0.000
49.1600,0.000
49.2000,0.004
49.2400,0.029
49.2800,-0.034
49.3200,0.010
49.3600,-0.055
49.4000,-0.011
49.4400,-0.009
49.4800,-0.026
49.5200,-0.048
49.5600,-0.014
49.6000,-0.089
49.6400,0.023
49.6800,0.022
49.7200,-0.038
49.7600,-0.041
49.8000,-0.021
49.8400,-0.008
49.8800,-0.005
49.9200,-0.047
49.9600,-0.047
50.0000,-0.037
50.0400,0.054
50.0800,0.010
50.1200,-0.047
50.1600,-0.038
50.2000,0.020
50.2400,-0.027
50.2800,-0.016
50.3200,-0.099
50.3600,0.060
50.4000,-0.044
50.4400,0.068
50.4800,-0.121
50.5200,0.020
50.5600,-0.051
50.6000,0.029
50.6400,-0.038
50.6800,0.005
50.7200,-0.071
50.7600,-0.004
50.8000,-0.003
50.8400,0.039
50.8800,0.081
50.9200,0.119
50.9600,0.034
51.0000,-0.030
51.0400,-0.046
51.0800,0.025
51.1200,0.047
51.1600,0.024
51.2000,0.000
51.2400,-0.001
51.2800,-0.028
51.3200,-0.020
51.3600,0.037
51.4000,-0.013
51.4400,-0.011
51.4800,0.081
51.5200,0.026
51.5600,-0.005
51.6000,0.072
51.6400,0.117
51.6800,0.046
51.7200,0.064
51.7600,0.013
51.8000,-0.024
51.8400,-0.065
51.8800,0.019
51.9200,0.032
51.9600,0.051
52.0000,0.044
52.0400,0.037
52.0800,0.014
52.1200,0.033
52.1600,-0.023
52.2000,-0.079
52.2400,0.038
52.2800,0.032
52.3200,-0.043
52.3600,0.034
52.4000,0.050
52.4400,-0.005
52.4800,0.061
52.5200,-0.043
52.5600,0.017
52.6000,-0.023
52.6400,0.099
52.6800,-0.029
52.7200,-0.069
52.7600,0.028
52.8000,0.021
52.8400,0.038
52.8800,0.047
52.9200,-0.023
52.9600,-0.034
53.0000,-0.069
53.0400,0.029
53.0800,0.048
53.1200,0.076
53.1600,0.068
53.2000,0.071
53.2400,0.023
53.2800,-0.068
53.3200,-0.007
53.3600,0.118
53.4000,0.079
53.4400,-0.036
53.4800,-0.003
53.5200,0.015
53.5600,-0.058
53.6000,0.008
53.6400,-0.042
53.6800,-0.020
53.7200,-0.042
53.7600,-0.014
53.8000,0.050
53.8400,0.025
53.8800,-0.064
53.9200,-0.020
53.9600,-0.044
54.0000,-0.016
54.0400,0.037
54.0800,0.061
54.1200,0.002
54.1600,0.000
54.2000,-0.007
54.2400,0.056
54.2800,0.001
54.3200,0.014
54.3600,0.084
54.4000,0.031
54.4400,0.019
54.4800,-0.006
54.5200,-0.021
54.5600,-0.015
54.6000,-0.060
54.6400,0.010
54.6800,0.024
54.7200,0.058
54.7600,0.000
54.8000,-0.035
54.8400,-0.035
54.8800,-0.022
54.9200,0.034
54.9600,-0.001
55.0000,-0.034
55.0400,-0.042
55.0800,0.005
55.1200,-0.003
55.1600,0.073
55.2000,-0.091
55.2400,0.033
55.2800,-0.066
55.3200,-0.002
55.3600,0.093
55.4000,0.028
55.4400,0.047
55.4800,0.037
55.5200,-0.050
55.5600,-0.042
55.6000,0.054
55.6400,0.001
55.6800,-0.079
55.7200,0.044
55.7600,-0.006
55.8000,0.058
55.8400,-0.020
55.8800,-0.041
55.9200,-0.016
55.9600,-0.049
56.0000,0.028
56.0400,-0.028
56.0800,0.099
56.1200,-0.049
56.1600,0.064
56.2000,0.075
56.2400,-0.077
56.2800,-0.043
56.3200,0.046
56.3600,0.026
56.4000,-0.054
56.4400,-0.026
56.4800,-0.036
56.5200,-0.006
56.5600,0.071
56.6000,0.054
56.6400,-0.005
56.6800,-0.024
56.7200,0.029
56.7600,-0.058
56.8000,-0.016
56.8400,0.032
56.8800,-0.002
56.9200,-0.031
56.9600,-0.035
57.0000,-0.042
57.0400,-0.016
57.0800,0.104
57.1200,0.034
57.1600,0.053
57.2000,0.009
57.2400,0.027
57.2800,0.135
57.3200,0.074
57.3600,0.092
57.4000,0.017
57.4400,-0.042
57.4800,-0.135
57.5200,0.052
57.5600,-0.020
57.6000,0.079
57.6400,0.029
57.6800,0.092
57.7200,-0.061
57.7600,-0.040
57.8000,-0.042
57.8400,-0.025
57.8800,0.119
57.9200,0.028
57.9600,-0.009
58.0000,-0.033
58.0400,-0.042
58.0800,0.033
58.1200,0.003
58.1600,-0.128
58.2000,0.025
58.2400,0.005
58.2800,-0.042
58.3200,0.034
58.3600,-0.049
58.4000,-0.032
58.4400,0.103
58.4800,0.045
58.5200,-0.041
58.5600,0.030
58.6000,0.055
58.6400,0.044
58.6800,-0.042
58.7200,-0.067
58.7600,0.055
58.8000,-0.038
58.8400,-0.006
58.8800,0.030
58.9200,-0.060
58.9600,-0.018
59.0000,-0.021
59.0400,-0.017
59.0800,-0.036
59.1200,-0.021
59.1600,-0.042
59.2000,0.012
59.2400,0.046
59.2800,-0.024
59.3200,-0.008
59.3600,0.041
59.4000,-0.077
59.4400,-0.027
59.4800,-0.041
59.5200,-0.021
59.5600,0.028
59.6000,0.009
59.6400,-0.001
59.6800,-0.027
59.7200,0.009
59.7600,-0.016
59.8000,0.018
59.8400,-0.057
59.8800,-0.016
59.9200,0.012
59.9600,0.009
60.0000,0.020
60.0400,-0.015
60.0800,0.048
60.1200,-0.009
60.1600,-0.084
60.2000,0.007
60.2400,-0.011
60.2800,0.019
60.3200,-0.040
60.3600,-0.015
60.4000,0.012
60.4400,0.015
60.4800,-0.009
60.5200,0.003
60.5600,-0.035
60.6000,0.039
60.6400,-0.101
60.6800,-0.004
60.7200,-0.044
60.7600,0.006
60.8000,-0.041
60.8400,-0.038
60.8800,0.006
60.9200,-0.015
60.9600,-0.027
61.0000,0.009
61.0400,0.005
61.0800,-0.041
61.1200,-0.024
61.1600,-0.033
61.2000,-0.032
61.2400,-0.023
61.2800,0.006
61.3200,0.001
61.3600,0.027
61.4000,-0.041
61.4400,-0.032
61.4800,0.010
61.5200,-0.045
61.5600,0.006
61.6000,-0.078
61.6400,0.048
61.6800,0.048
61.7200,-0.046
61.7600,0.038
61.8000,-0.009
61.8400,-0.011
61.8800,-0.024
61.9200,-0.048
61.9600,0.019
62.0000,0.007
62.0400,0.069
62.0800,0.036
62.1200,0.014
62.1600,-0.037
62.2000,0.010
62.2400,-0.065
62.2800,-0.007
62.3200,-0.027
62.3600,-0.008
62.4000,-0.008
62.4400,-0.058
62.4800,0.009
62.5200,0.059
62.5600,-0.068
62.6000,-0.023
62.6400,-0.018
62.6800,-0.035
62.7200,-0.041
62.7600,-0.038
62.8000,0.005
62.8400,-0.041
62.8800,-0.023
62.9200,-0.010
62.9600,0.020
63.0000,0.002
63.0400,0.001
63.0800,-0.021
63.1200,-0.023
63.1600,0.018
63.2000,-0.005
63.2400,0.071
63.2800,-0.082
63.3200,-0.041
63.3600,-0.002
63.4000,0.069
63.4400,0.012
63.4800,0.007
63.5200,-0.028
63.5600,0.104
63.6000,0.034
63.6400,0.036
63.6800,-0.053
63.7200,-0.035
63.7600,-0.014
63.8000,-0.002
63.8400,0.097
63.8800,0.084
63.9200,0.138
63.9600,0.057
64.0000,0.103
64.0400,0.135
64.0800,0.111
64.1200,0.242
64.1600,0.239
64.2000,0.295
64.2400,0.446
64.2800,0.574
64.3200,0.600
64.3600,0.775
64.4000,1.095
64.4400,1.339
64.4800,1.688
64.5200,2.263
64.5600,2.853
64.6000,3.234
64.6400,3.311
64.6800,3.037
64.7200,2.998
64.7600,2.785
64.8000,2.592
64.8400,2.213
64.8800,1.826
64.9200,1.601
64.9600,1.101
65.0000,0.894
65.0400,0.695
65.0800,0.564
65.1200,0.379
65.1600,0.373
65.2000,0.368
65.2400,0.151
65.2800,0.177
65.3200,0.166
65.3600,0.041
65.4000,0.041
65.4400,0.000
65.4800,0.042
65.5200,0.037
65.5600,0.056
65.6000,0.038
65.6400,0.075
65.6800,0.042
65.7200,-0.012
65.7600,-0.082
65.8000,0.005
65.8400,0.036
65.8800,0.021
65.9200,-0.022
65.9600,-0.040
66.0000,0.010
66.0400,-0.070
66.0800,-0.008
66.1200,-0.043
66.1600,0.018
66.2000,-0.006
66.2400,0.042
66.2800,-0.031
66.3200,0.080
66.3600,-0.109
66.4000,-0.025
66.4400,-0.046
66.4800,0.005
66.5200,-0.018
66.5600,0.045
66.6000,-0.025
66.6400,-0.011
66.6800,-0.025
66.7200,-0.047
66.7600,-0.038
66.8000,-0.027
66.8400,0.027
66.8800,0.070
66.9200,0.006
66.9600,-0.005
67.0000,0.052
67.0400,0.061
67.0800,-0.116
67.1200,0.040
67.1600,0.026
67.2000,-0.055
67.2400,-0.027
67.2800,-0.019
67.3200,0.005
67.3600,0.050
67.4000,-0.020
67.4400,-0.024
67.4800,-0.022
67.5200,0.031
67.5600,0.089
67.6000,-0.096
67.6400,0.005
67.6800,0.075
67.7200,0.038
67.7600,0.052
67.8000,0.124
67.8400,0.007
67.8800,0.110
67.9200,0.145
67.9600,0.106
68.0000,0.162
68.0400,0.177
68.0800,0.280
68.1200,0.233
68.1600,0.206
68.2000,0.316
68.2400,0.406
68.2800,0.620
68.3200,0.471
68.3600,0.434
68.4000,0.634
68.4400,0.622
68.4800,0.770
68.5200,0.857
68.5600,0.759
68.6000,1.119
68.6400,1.487
68.6800,1.619
68.7200,2.223
68.7600,3.400
68.8000,4.359
68.8400,4.967
68.8800,5.012
68.9200,5.675
68.9600,7.448
69.0000,11.987
69.0400,23.643
69.0800,72.802
69.1200,287.295
69.1600,390.595
69.2000,174.425
69.2400,51.233
69.2800,56.603
69.3200,157.095
69.3600,194.611
69.4000,85.737
69.4400,23.020
69.4800,10.328
69.5200,6.379
69.5600,4.548
69.6000,3.606
69.6400,2.864
69.6800,2.343
69.7200,2.101
69.7600,1.763
69.8000,1.445
69.8400,1.273
69.8800,1.260
69.9200,0.962
69.9600,0.952
70.0000,0.833
70.0400,0.684
70.0800,0.690
70.1200,0.686
70.1600,0.599
70.2000,0.436
70.2400,0.582
70.2800,0.431
70.3200,0.373
70.3600,0.258
70.4000,0.266
70.4400,0.395
70.4800,0.305
70.5200,0.228
70.5600,0.208
70.6000,0.123
70.6400,0.188
70.6800,0.134
70.7200,0.177
70.7600,0.144
70.8000,0.044
70.8400,0.114
70.8800,0.118
70.9200,0.150
70.9600,0.032
71.0000,0.113
71.0400,0.030
71.0800,0.076
71.1200,0.080
71.1600,0.018
71.2000,0.019
71.2400,0.014
71.2800,0.018
71.3200,0.106
71.3600,0.002
71.4000,-0.046
71.4400,-0.025
71.4800,0.033
71.5200,-0.015
71.5600,-0.002
71.6000,0.014
71.6400,-0.022
71.6800,0.016
71.7200,-0.011
71.7600,-0.039
71.8000,-0.044
71.8400,-0.035
71.8800,0.023
71.9200,-0.045
71.9600,0.037
72.0000,-0.106
72.0400,-0.008
72.0800,-0.026
72.1200,0.044
72.1600,0.053
72.2000,0.015
72.2400,-0.036
72.2800,-0.034
72.3200,0.038
72.3600,-0.019
72.4000,-0.040
72.4400,0.013
72.4800,0.017
72.5200,0.057
72.5600,0.073
72.6000,-0.035
72.6400,-0.039
72.6800,-0.017
72.7200,0.082
72.7600,-0.121
72.8000,0.022
72.8400,0.016
72.8800,-0.027
72.9200,0.052
72.9600,-0.011
73.0000,0.032
73.0400,0.025
73.0800,-0.037
73.1200,0.024
73.1600,-0.036
73.2000,-0.055
73.2400,0.030
73.2800,-0.007
73.3200,0.042
73.3600,-0.029
73.4000,-0.017
73.4400,-0.037
73.4800,-0.018
73.5200,0.010
73.5600,-0.005
73.6000,0.088
73.6400,0.064
73.6800,-0.014
73.7200,0.007
73.7600,-0.020
73.8000,-0.036
73.8400,0.016
73.8800,-0.022
73.9200,0.017
73.9600,0.072
74.0000,0.049
74.0400,0.047
74.0800,-0.034
74.1200,0.011
74.1600,0.048
74.2000,-0.014
74.2400,-0.035
74.2800,-0.010
74.3200,0.079
74.3600,-0.002
74.4000,-0.036
74.4400,0.042
74.4800,-0.044
74.5200,0.029
74.5600,0.019
74.6000,0.069
74.6400,-0.014
74.6800,-0.014
74.7200,0.005
74.7600,-0.008
74.8000,0.017
74.8400,-0.008
74.8800,-0.073
74.9200,0.009
74.9600,-0.034
75.0000,0.016
75.0400,0.041
75.0800,-0.016
75.1200,0.054
75.1600,0.025
75.2000,-0.028
75.2400,0.016
75.2800,0.009
75.3200,-0.007
75.3600,0.027
75.4000,0.031
75.4400,0.005
75.4800,-0.034
75.5200,-0.020
75.5600,0.025
75.6000,-0.036
75.6400,0.007
75.6800,0.001
75.7200,0.024
75.7600,0.001
75.8000,-0.077
75.8400,0.062
75.8800,0.012
75.9200,0.055
75.9600,-0.019
76.0000,-0.035
76.0400,-0.003
76.0800,0.003
76.1200,-0.010
76.1600,0.015
76.2000,-0.019
76.2400,-0.105
76.2800,0.028
76.3200,0.017
76.3600,0.053
76.4000,-0.031
76.4400,-0.029
76.4800,-0.040
76.5200,0.023
76.5600,0.028
76.6000,-0.013
76.6400,-0.037
76.6800,0.010
76.7200,0.017
76.7600,0.080
76.8000,0.069
76.8400,0.048
76.8800,0.004
76.9200,0.109
76.9600,0.104
77.0000,0.118
77.0400,0.123
77.0800,0.117
77.1200,0.138
77.1600,0.270
77.2000,0.339
77.2400,0.569
77.2800,0.530
77.3200,0.673
77.3600,0.823
77.4000,1.097
77.4400,1.389
77.4800,1.633
77.5200,2.071
77.5600,2.161
77.6000,2.519
77.6400,2.670
77.6800,2.684
77.7200,2.534
77.7600,2.327
77.8000,2.029
77.8400,1.956
77.8800,1.820
77.9200,1.452
77.9600,1.262
78.0000,0.992
78.0400,0.764
78.0800,0.673
78.1200,0.506
78.1600,0.369
78.2000,0.281
78.2400,0.278
78.2800,0.264
78.3200,0.071
78.3600,0.154
78.4000,0.159
78.4400,0.114
78.4800,0.047
78.5200,0.016
78.5600,0.042
78.6000,-0.042
78.6400,-0.004
78.6800,-0.034
78.7200,-0.011
78.7600,0.053
78.8000,-0.057
78.8400,-0.036
78.8800,-0.004
78.9200,0.046
78.9600,0.015
79.0000,0.006
79.0400,0.004
79.0800,0.048
79.1200,0.022
79.1600,-0.044
79.2000,-0.006
79.2400,-0.009
79.2800,-0.047
79.3200,0.009
79.3600,-0.016
79.4000,0.019
79.4400,-0.051
79.4800,-0.024
79.5200,0.012
79.5600,0.011
79.6000,-0.019
79.6400,0.001
79.6800,-0.034
79.7200,0.016
79.7600,0.021
79.8000,-0.013
79.8400,-0.016
79.8800,-0.009
79.9200,0.016
79.9600,-0.010
80.0000,-0.033
80.0400,-0.006
80.0800,0.038
80.1200,0.035
80.1600,0.057
80.2000,-0.041
80.2400,-0.006
80.2800,0.000
80.3200,-0.005
80.3600,-0.019
80.4000,-0.032
80.4400,-0.025
80.4800,0.003
80.5200,-0.043
80.5600,0.037
80.6000,0.018
80.6400,0.014
80.6800,-0.081
80.7200,-0.008
80.7600,-0.033
80.8000,0.000
80.8400,-0.013
80.8800,0.050
80.9200,-0.037
80.9600,-0.018
81.0000,-0.029
81.0400,-0.015
81.0800,0.003
81.1200,-0.047
81.1600,-0.003
81.2000,0.056
81.2400,-0.078
81.2800,0.026
81.3200,-0.004
81.3600,-0.002
81.4000,0.061
81.4400,0.091
81.4800,0.042
81.5200,0.181
81.5600,0.308
81.6000,0.379
81.6400,0.508
81.6800,0.619
81.7200,0.769
81.7600,0.729
81.8000,0.698
81.8400,0.695
81.8800,0.575
81.9200,0.572
81.9600,0.606
82.0000,0.622
82.0400,0.509
82.0800,0.406
82.1200,0.296
82.1600,0.211
82.2000,0.160
82.2400,0.165
82.2800,0.075
82.3200,0.024
82.3600,0.042
82.4000,0.023
82.4400,0.063
82.4800,-0.050
82.5200,-0.034
82.5600,-0.026
82.6000,-0.022
82.6400,-0.044
82.6800,0.044
82.7200,-0.011
82.7600,0.000
82.8000,-0.066
82.8400,0.038
82.8800,-0.047
82.9200,0.021
82.9600,0.038
83.0000,-0.020
83.0400,-0.031
83.0800,-0.001
83.1200,0.033
83.1600,-0.061
83.2000,-0.030
83.2400,0.024
83.2800,0.008
83.3200,0.023
83.3600,0.035
83.4000,-0.029
83.4400,0.004
83.4800,0.051
83.5200,0.020
83.5600,-0.014
83.6000,-0.034
83.6400,0.016
83.6800,-0.018
83.7200,0.044
83.7600,0.014
83.8000,0.042
83.8400,0.042
83.8800,-0.035
83.9200,-0.030
83.9600,0.004
84.0000,-0.010
84.0400,-0.055
84.0800,0.007
84.1200,-0.024
84.1600,0.029
84.2000,-0.040
84.2400,-0.021
84.2800,0.027
84.3200,0.005
84.3600,-0.054
84.4000,0.038
84.4400,-0.057
84.4800,0.000
84.5200,0.011
84.5600,0.010
84.6000,0.012
84.6400,-0.016
84.6800,0.000
84.7200,0.031
84.7600,0.006
84.8000,-0.006
84.8400,0.001
84.8800,-0.030
84.9200,-0.002
84.9600,-0.001
85.0000,0.003
85.0400,-0.028
85.0800,0.004
85.1200,-0.049
85.1600,0.039
85.2000,-0.027
85.2400,-0.029
85.2800,0.009
85.3200,-0.009
85.3600,-0.060
85.4000,0.009
85.4400,0.021
85.4800,0.002
85.5200,-0.071
85.5600,0.011
85.6000,-0.008
85.6400,0.007
85.6800,0.008
85.7200,0.003
85.7600,0.000
85.8000,0.007
85.8400,0.038
85.8800,-0.014
85.9200,-0.034
85.9600,0.015
86.0000,-0.029
86.0400,-0.018
86.0800,0.017
86.1200,0.005
86.1600,-0.029
86.2000,-0.013
86.2400,0.035
86.2800,-0.055
86.3200,-0.008
86.3600,0.015
86.4000,-0.020
86.4400,0.001
86.4800,-0.012
86.5200,-0.052
86.5600,0.029
86.6000,0.030
86.6400,0.055
86.6800,0.045
86.7200,-0.024
86.7600,-0.030
86.8000,0.019
86.8400,-0.033
86.8800,0.050
86.9200,0.052
86.9600,0.095
87.0000,0.012
87.0400,0.026
87.0800,0.029
87.1200,-0.015
87.1600,-0.003
87.2000,-0.035
87.2400,0.006
87.2800,0.008
87.3200,-0.015
87.3600,-0.027
87.4000,0.017
87.4400,0.041
87.4800,-0.007
87.5200,-0.041
87.5600,0.003
87.6000,-0.028
87.6400,-0.013
87.6800,-0.017
87.7200,-0.030
87.7600,0.039
87.8000,0.016
87.8400,0.000
87.8800,-0.010
87.9200,-0.002
87.9600,-0.039
88.0000,0.042
88.0400,0.027
88.0800,-0.014
88.1200,-0.028
88.1600,-0.007
88.2000,0.031
88.2400,-0.030
88.2800,-0.009
88.3200,0.055
88.3600,0.050
88.4000,0.019
88.4400,-0.047
88.4800,-0.009
88.5200,-0.027
88.5600,0.004
88.6000,0.013
88.6400,-0.029
88.6800,0.015
88.7200,-0.012
88.7600,0.052
88.8000,0.022
88.8400,0.013
88.8800,-0.013
88.9200,-0.011
88.9600,-0.007
89.0000,-0.005
89.0400,-0.015
89.0800,-0.011
89.1200,-0.007
89.1600,0.000
89.2000,-0.032
89.2400,-0.002
89.2800,0.054
89.3200,-0.016
89.3600,-0.021
89.4000,-0.017
89.4400,0.018
89.4800,-0.057
89.5200,-0.001
89.5600,-0.012
89.6000,0.005
89.6400,0.004
89.6800,-0.049
89.7200,0.009
89.7600,-0.016
89.8000,-0.018
89.8400,-0.029
89.8800,0.025
89.9200,-0.008
89.9600,0.013
90.0000,0.000
