2.003999999999999915e+01,2.533940850396798616e-02
2.007999999999999829e+01,1.751702085904450340e-02
2.012000000000000099e+01,3.514004966245006661e-02
2.016000000000000014e+01,2.779959134739432708e-02
2.019999999999999929e+01,3.173207923684930043e-02
2.023999999999999844e+01,2.245779050612487296e-02
2.028000000000000114e+01,3.991732715563809514e-02
2.032000000000000028e+01,3.386283643065621934e-02
2.035999999999999943e+01,4.101390409034073176e-02
2.039999999999999858e+01,3.222033376018147016e-02
2.044000000000000128e+01,2.423141050355694104e-02
2.048000000000000043e+01,9.477746762367759634e-03
2.051999999999999957e+01,2.178001367864555726e-02
2.055999999999999872e+01,3.907425060864196109e-02
2.060000000000000142e+01,2.576822869533596308e-02
2.064000000000000057e+01,3.178770028703625794e-02
2.067999999999999972e+01,1.010582887026508468e-02
2.071999999999999886e+01,2.514293987898049559e-02
2.076000000000000156e+01,3.905209308728247591e-02
2.080000000000000071e+01,2.155573643622163069e-02
2.083999999999999986e+01,3.836260185625742225e-02
2.087999999999999901e+01,3.326595654633485166e-02
2.092000000000000171e+01,2.752450830758984904e-02
2.096000000000000085e+01,2.065510531268488492e-02
2.100000000000000000e+01,3.246699805419070439e-02
2.103999999999999915e+01,3.203843122490689782e-02
2.107999999999999829e+01,2.548933629206912369e-02
2.112000000000000099e+01,3.423947186887604105e-02
2.116000000000000014e+01,3.284281025826132905e-02
2.119999999999999929e+01,2.017199638463601855e-02
2.123999999999999844e+01,2.779299002115317996e-02
2.128000000000000114e+01,2.542823910886325700e-02
2.132000000000000028e+01,2.805546977845429363e-02
2.135999999999999943e+01,2.021380468075108239e-02
2.139999999999999858e+01,2.847662841496115607e-02
2.144000000000000128e+01,1.709066131200061289e-02
2.148000000000000043e+01,3.211643623067171605e-02
2.151999999999999957e+01,2.668816746955982727e-02
2.155999999999999872e+01,2.931184937262511225e-02
2.160000000000000142e+01,4.127588904522064978e-02
2.164000000000000057e+01,2.795436250270214376e-02
2.167999999999999972e+01,2.848261768517239972e-02
2.171999999999999886e+01,3.899543571197613967e-02
2.176000000000000156e+01,3.002051858447700450e-02
2.180000000000000071e+01,2.378287897618790517e-02
2.183999999999999986e+01,2.994556621972549112e-02
2.187999999999999901e+01,3.755712570367220754e-02
2.192000000000000171e+01,3.534400119248499311e-02
2.196000000000000085e+01,3.007032740165070314e-02
2.200000000000000000e+01,4.009589751517541462e-02
2.203999999999999915e+01,2.805692374334779748e-02
2.207999999999999829e+01,3.985288813290729232e-02
2.212000000000000099e+01,3.200007203575729042e-02
2.216000000000000014e+01,1.464467722070268360e-02
2.219999999999999929e+01,2.418418782277960422e-02
2.223999999999999844e+01,2.695898472972040050e-02
2.228000000000000114e+01,3.520893026714599916e-02
2.232000000000000028e+01,2.316589511386428143e-02
2.235999999999999943e+01,3.044837964616665948e-02
2.239999999999999858e+01,1.647157983308630141e-02
2.244000000000000128e+01,1.425091275634137941e-02
2.248000000000000043e+01,2.314217577653126037e-02
2.251999999999999957e+01,1.029100384170217666e-02
2.255999999999999872e+01,2.658945417253925567e-02
2.260000000000000142e+01,3.096957030188748905e-02
2.264000000000000057e+01,2.794077557635488152e-02
2.267999999999999972e+01,2.491140795967950947e-02
2.271999999999999886e+01,3.589288871017269622e-02
2.276000000000000156e+01,2.722559871556670674e-02
2.280000000000000071e+01,4.416481677434999642e-02
2.283999999999999986e+01,2.824909871658849367e-02
2.287999999999999901e+01,2.682738389758647021e-02
2.292000000000000171e+01,1.429259380821454838e-02
2.296000000000000085e+01,3.477265156252171835e-02
2.300000000000000000e+01,1.692204802555262108e-02
2.303999999999999915e+01,3.369680167059155990e-02
2.307999999999999829e+01,3.275539918608980777e-02
2.312000000000000099e+01,2.037882285134583887e-02
2.316000000000000014e+01,2.942143893601492990e-02
2.319999999999999929e+01,4.265081115823170232e-02
2.323999999999999844e+01,2.737362527810471499e-02
2.328000000000000114e+01,3.818610719376312745e-02
2.332000000000000028e+01,2.677301389522718233e-02
2.335999999999999943e+01,3.855067499304800499e-02
2.339999999999999858e+01,2.391544098074378094e-02
2.344000000000000128e+01,1.636588137622092126e-02
2.348000000000000043e+01,3.120182393429281678e-02
2.351999999999999957e+01,2.864371868430667586e-02
2.355999999999999872e+01,2.560190150170367496e-02
2.360000000000000142e+01,2.674684654515485649e-02
2.364000000000000057e+01,2.692492843750222617e-02
2.367999999999999972e+01,3.708760300786450442e-02
2.371999999999999886e+01,2.695731819729206558e-02
2.376000000000000156e+01,1.763173099485830161e-02
2.380000000000000071e+01,3.214110813438953579e-02
2.383999999999999986e+01,2.845118827635396280e-02
2.387999999999999901e+01,2.427756135650680283e-02
2.392000000000000171e+01,3.105483564015508804e-02
2.396000000000000085e+01,2.478644073879723853e-02
2.400000000000000000e+01,4.589613108903840832e-02
2.403999999999999915e+01,3.076883653493611356e-02
2.407999999999999829e+01,2.063356557340961794e-02
2.412000000000000099e+01,1.935553830281585772e-02
2.416000000000000014e+01,3.112207644563748030e-02
2.419999999999999929e+01,3.225871123749832203e-02
2.423999999999999844e+01,3.275059363514053884e-02
2.428000000000000114e+01,2.277362471158602200e-02
2.432000000000000028e+01,2.068759765084092137e-02
2.435999999999999943e+01,1.956732814305699522e-02
2.439999999999999858e+01,9.749768073318612269e-03
2.444000000000000128e+01,3.230287512648229165e-02
2.448000000000000043e+01,4.406503227857685306e-02
2.451999999999999957e+01,2.297227888585399655e-02
2.455999999999999872e+01,2.056087541724983467e-02
2.460000000000000142e+01,3.473716192479905929e-02
2.464000000000000057e+01,2.282267382071902564e-02
2.467999999999999972e+01,3.683682401013409907e-02
2.471999999999999886e+01,3.104118247606903191e-02
2.476000000000000156e+01,3.651855655548877366e-02
2.480000000000000071e+01,3.829122133540637657e-02
2.483999999999999986e+01,2.363616327171381981e-02
2.487999999999999901e+01,2.460249457375277352e-02
2.492000000000000171e+01,2.009255947015107374e-02
2.496000000000000085e+01,3.410292956711189621e-02
2.500000000000000000e+01,2.379408946478955150e-02
2.503999999999999915e+01,2.733508223091085654e-02
2.507999999999999829e+01,1.251574606177268366e-02
2.512000000000000099e+01,2.265875001111027423e-02
2.516000000000000014e+01,1.476352786701533304e-02
2.519999999999999929e+01,3.972213685017305512e-02
2.523999999999999844e+01,3.295320193226430189e-02
2.528000000000000114e+01,3.165946130863895452e-02
2.532000000000000028e+01,3.922298264146598795e-02
2.535999999999999943e+01,3.728397396444040751e-02
2.539999999999999858e+01,2.455402938991058798e-02
2.544000000000000128e+01,9.890944190179632931e-03
2.548000000000000043e+01,2.937010087615796530e-02
2.551999999999999957e+01,1.357860005764351466e-02
2.555999999999999872e+01,2.065578549814601345e-02
2.560000000000000142e+01,2.338407056790836949e-02
2.564000000000000057e+01,3.368121596842595100e-02
2.567999999999999972e+01,1.531078959442680465e-02
2.571999999999999886e+01,1.900379785453331846e-02
2.576000000000000156e+01,1.641529843454907558e-02
2.580000000000000071e+01,2.300616990135036927e-02
2.583999999999999986e+01,3.475014256221881093e-02
2.587999999999999901e+01,2.910010333721734302e-02
2.592000000000000171e+01,1.861801617609261730e-02
2.596000000000000085e+01,2.488469050410620220e-02
2.600000000000000000e+01,3.549921440127549316e-02
2.603999999999999915e+01,2.646501747909891719e-02
2.607999999999999829e+01,2.854280545041562936e-02
2.612000000000000099e+01,9.522416511522736188e-03
2.616000000000000014e+01,2.609373711736521009e-02
2.619999999999999929e+01,1.802376416531858982e-02
2.623999999999999844e+01,2.187103260248168465e-02
2.628000000000000114e+01,2.136941101936554871e-02
2.632000000000000028e+01,3.133557473459568088e-02
2.635999999999999943e+01,6.675296979447675576e-03
2.639999999999999858e+01,2.501506977702615264e-02
2.644000000000000128e+01,2.966500789008756980e-02
2.648000000000000043e+01,1.659884162591347689e-02
2.651999999999999957e+01,2.189195349541436103e-02
2.655999999999999872e+01,6.892149212376534086e-03
2.660000000000000142e+01,1.395579295815880215e-02
2.664000000000000057e+01,2.166312733726350609e-02
2.667999999999999972e+01,1.793534205383390950e-02
2.671999999999999886e+01,1.114707994398444341e-02
2.676000000000000156e+01,2.207389637266278168e-02
2.680000000000000071e+01,1.464041004665966525e-02
2.683999999999999986e+01,2.153993642356747534e-02
2.687999999999999901e+01,2.892210627483901564e-02
2.692000000000000171e+01,3.839742832995250016e-02
2.696000000000000085e+01,1.920519809376999842e-02
2.700000000000000000e+01,2.062696466634912629e-02
2.703999999999999915e+01,3.541544211371578516e-02
2.707999999999999829e+01,2.250267396871490772e-02
2.712000000000000099e+01,2.488922766095628958e-02
2.716000000000000014e+01,1.600171980893392090e-02
2.719999999999999929e+01,1.677675658965800676e-02
2.723999999999999844e+01,2.914694835673248968e-02
2.728000000000000114e+01,2.718311497690270931e-02
2.732000000000000028e+01,3.455972643224568958e-02
2.735999999999999943e+01,6.343606766100326304e-03
2.739999999999999858e+01,2.032229881363379828e-02
2.744000000000000128e+01,2.157747627029299453e-02
2.748000000000000043e+01,1.993323928075756493e-02
2.751999999999999957e+01,2.263687499670254469e-02
2.755999999999999872e+01,2.163584342384016271e-02
2.760000000000000142e+01,1.870170410371167075e-02
2.764000000000000057e+01,2.172594743624318286e-02
2.767999999999999972e+01,1.379823876369482005e-02
2.771999999999999886e+01,2.261931836971336346e-02
2.776000000000000156e+01,5.671772478578658745e-03
2.780000000000000071e+01,2.995273951725264602e-02
2.783999999999999986e+01,1.429261081495126866e-02
2.787999999999999901e+01,1.087185008886179007e-02
2.792000000000000171e+01,1.840205145133268216e-02
2.796000000000000085e+01,1.208139045354849998e-02
2.800000000000000000e+01,2.186531874803448669e-02
2.803999999999999915e+01,1.795943671202934397e-02
2.807999999999999829e+01,6.000523376580788916e-03
2.812000000000000099e+01,0.000000000000000000e+00
2.816000000000000014e+01,6.244464655301006084e-03
2.819999999999999929e+01,8.846978260252319828e-03
2.823999999999999844e+01,1.452164233438282132e-02
2.828000000000000114e+01,1.527132703395073579e-02
2.832000000000000028e+01,6.615248675868149429e-03
2.835999999999999943e+01,8.763823972047907890e-03
2.839999999999999858e+01,8.885101977456524858e-03
2.844000000000000128e+01,8.363106561653607662e-03
2.848000000000000043e+01,1.362256235202258595e-02
2.851999999999999957e+01,9.188649728546589499e-03
2.855999999999999872e+01,1.545085304231992064e-02
2.860000000000000142e+01,4.564705001431432728e-03
2.864000000000000057e+01,1.235684409590298398e-02
2.867999999999999972e+01,1.420826751835949434e-02
2.871999999999999886e+01,7.590835330562107838e-03
2.876000000000000156e+01,9.437586991898724159e-03
2.880000000000000071e+01,6.381374607229896995e-03
2.883999999999999986e+01,7.706934323077439287e-03
2.887999999999999901e+01,6.848819857363159548e-03
2.892000000000000171e+01,1.454824473885043060e-02
2.896000000000000085e+01,7.450798659809897487e-03
2.900000000000000000e+01,1.697270978175616229e-02
2.903999999999999915e+01,1.491625055625515547e-02
2.907999999999999829e+01,8.325056513400298785e-03
2.912000000000000099e+01,9.918076603103823455e-03
2.916000000000000014e+01,5.667817166203901677e-03
2.919999999999999929e+01,4.146958495306556254e-03
2.923999999999999844e+01,1.360550113486383092e-02
2.928000000000000114e+01,1.235150430260674795e-02
2.932000000000000028e+01,1.146164759855228428e-02
2.935999999999999943e+01,1.586611239328147849e-02
2.939999999999999858e+01,1.075439499541055999e-02
2.944000000000000128e+01,1.012596003953212739e-02
2.948000000000000043e+01,1.072187127933559893e-02
2.951999999999999957e+01,1.496621586234378985e-02
2.955999999999999872e+01,5.762028724122144827e-03
2.960000000000000142e+01,9.904899807913439269e-03
2.964000000000000057e+01,1.786106270165872811e-02
2.967999999999999972e+01,1.114794805510020345e-02
2.971999999999999886e+01,8.660392082034597261e-03
2.976000000000000156e+01,1.269484669668107663e-02
2.980000000000000071e+01,1.988045602829257089e-02
2.983999999999999986e+01,1.385943486388053689e-02
2.987999999999999901e+01,1.701784668902022596e-02
2.992000000000000171e+01,1.486111902691321721e-02
2.996000000000000085e+01,8.838709794975127543e-03
3.000000000000000000e+01,1.908197110990252771e-02
3.003999999999999915e+01,3.447839754821514086e-02
3.007999999999999829e+01,1.379898183069503022e-02
3.012000000000000099e+01,1.019049254690617898e-02
3.016000000000000014e+01,1.366777995780770437e-02
3.019999999999999929e+01,1.827196462592779735e-02
3.023999999999999844e+01,1.450104924841382446e-02
3.028000000000000114e+01,2.345269081433899727e-02
3.032000000000000028e+01,8.085203158117377706e-03
3.035999999999999943e+01,9.627594776668236404e-03
3.039999999999999858e+01,2.743566303059101139e-02
3.044000000000000128e+01,1.883094333210305268e-02
3.048000000000000043e+01,2.713610473493937789e-02
3.051999999999999957e+01,9.189530215128983645e-03
3.055999999999999872e+01,1.710805531833607456e-03
3.060000000000000142e+01,5.988337790405934107e-03
3.064000000000000057e+01,1.751270486193911430e-02
3.067999999999999972e+01,2.050092777313266765e-02
3.071999999999999886e+01,1.559721038108820464e-02
3.076000000000000156e+01,1.326985607873629874e-02
3.080000000000000071e+01,2.833554018470230487e-02
3.083999999999999986e+01,3.325457444510349775e-02
3.087999999999999901e+01,1.659235181233406978e-02
3.092000000000000171e+01,1.555161048174400276e-02
3.096000000000000085e+01,1.547672716447206706e-02
3.100000000000000000e+01,1.298563541605084019e-02
3.103999999999999915e+01,1.870768944147353785e-02
3.107999999999999829e+01,2.120828219313442703e-02
3.112000000000000099e+01,1.758849966275426169e-02
3.116000000000000014e+01,1.042515545218797648e-02
3.119999999999999929e+01,2.532532928826631766e-02
3.123999999999999844e+01,1.494008303338617213e-02
3.128000000000000114e+01,2.307523817747109823e-02
3.132000000000000028e+01,1.494381992381383154e-02
3.135999999999999943e+01,1.277084094592701238e-02
3.139999999999999858e+01,1.510684454409636467e-02
3.144000000000000128e+01,2.130762807892142702e-02
3.148000000000000043e+01,1.945543206660811306e-02
3.151999999999999957e+01,2.307852532927955752e-02
3.155999999999999872e+01,2.895589223453098535e-02
3.160000000000000142e+01,1.711723269542991810e-02
3.164000000000000057e+01,2.573158977970284311e-02
3.167999999999999972e+01,2.162249681127042036e-02
3.171999999999999886e+01,9.943580384991768106e-03
3.176000000000000156e+01,2.338815595845937512e-02
3.180000000000000071e+01,2.330402924545969465e-02
3.183999999999999986e+01,2.982255236268929743e-02
3.187999999999999901e+01,2.732179714891034075e-02
3.192000000000000171e+01,2.079433938691932840e-02
3.196000000000000085e+01,1.942007597314465706e-02
3.200000000000000000e+01,2.996314162307318549e-02
3.203999999999999915e+01,2.359544158632018857e-02
3.207999999999999829e+01,2.415249665702590837e-02
3.211999999999999744e+01,1.697868354632918117e-02
3.215999999999999659e+01,6.744476412900834300e-03
3.220000000000000284e+01,1.358122737343750615e-02
3.224000000000000199e+01,1.429762009975132399e-02
3.228000000000000114e+01,1.050416332132061460e-02
3.232000000000000028e+01,2.039959941008873470e-02
3.235999999999999943e+01,1.644424011217309606e-02
3.239999999999999858e+01,9.589541256692556137e-03
3.243999999999999773e+01,8.210145679761693405e-03
3.247999999999999687e+01,1.874808647274179424e-02
3.252000000000000313e+01,4.966931530360815111e-03
3.256000000000000227e+01,2.146290675074769699e-02
3.260000000000000142e+01,1.412293988966308381e-02
3.264000000000000057e+01,2.176027726308471175e-02
3.267999999999999972e+01,1.522472249650217400e-02
3.271999999999999886e+01,3.091375972495170876e-02
3.275999999999999801e+01,2.630997517271323888e-02
3.279999999999999716e+01,2.492678800980150863e-02
3.284000000000000341e+01,2.821365615363209678e-02
3.288000000000000256e+01,2.135390550328098228e-02
3.292000000000000171e+01,2.898079359033993527e-03
3.296000000000000085e+01,2.051721870032093345e-02
3.300000000000000000e+01,1.864879397433759009e-02
3.303999999999999915e+01,1.855151298222003017e-02
3.307999999999999829e+01,2.550756370355917102e-04
3.311999999999999744e+01,1.513469159565793490e-02
3.315999999999999659e+01,2.131715033061805029e-02
3.320000000000000284e+01,2.411712924883790965e-02
3.324000000000000199e+01,1.741469810078302358e-02
3.328000000000000114e+01,9.584499722567927163e-03
3.332000000000000028e+01,1.785897161375944384e-02
3.335999999999999943e+01,2.226781368742501710e-02
3.339999999999999858e+01,2.828675416254936362e-02
3.343999999999999773e+01,1.594549295220000495e-02
3.347999999999999687e+01,3.049930885486527854e-02
3.352000000000000313e+01,1.203730039204622612e-02
3.356000000000000227e+01,1.241782965680471827e-02
3.360000000000000142e+01,5.711716515885848292e-03
3.364000000000000057e+01,9.151398468856326851e-03
3.367999999999999972e+01,2.128741881600191427e-02
3.371999999999999886e+01,2.343788396689226380e-02
3.375999999999999801e+01,1.769645508719396368e-02
3.379999999999999716e+01,1.292092744920986420e-02
3.384000000000000341e+01,2.119011256649822039e-02
3.388000000000000256e+01,1.496432218517640932e-02
3.392000000000000171e+01,1.018758730830907240e-02
3.396000000000000085e+01,1.716716051676396571e-02
3.400000000000000000e+01,1.077911573760006667e-02
3.403999999999999915e+01,1.405371970464369680e-02
3.407999999999999829e+01,2.924568439562428776e-02
3.411999999999999744e+01,2.607745775159218612e-02
3.415999999999999659e+01,1.244053017247364473e-02
3.420000000000000284e+01,2.118926792792393682e-02
3.424000000000000199e+01,1.399357835585498741e-02
3.428000000000000114e+01,1.597738874690917549e-02
3.432000000000000028e+01,1.522293961729234354e-02
3.435999999999999943e+01,6.576605589846639538e-03
3.439999999999999858e+01,8.881332284766490365e-03
3.443999999999999773e+01,2.648549223659725851e-02
3.447999999999999687e+01,2.216047771907088230e-03
3.452000000000000313e+01,2.754986075119868899e-02
3.456000000000000227e+01,1.938471275893453860e-02
3.460000000000000142e+01,2.442533990216790366e-02
3.464000000000000057e+01,1.158893606163538537e-02
3.467999999999999972e+01,1.823929024474957306e-02
3.471999999999999886e+01,2.488925480076634167e-02
3.475999999999999801e+01,2.557995029221388217e-02
3.479999999999999716e+01,2.143873301238230500e-02
3.484000000000000341e+01,3.533481888303510732e-02
3.488000000000000256e+01,2.636130224908006872e-02
3.492000000000000171e+01,2.109156770972450343e-02
3.496000000000000085e+01,2.194137805476055816e-02
3.500000000000000000e+01,2.246870141052813644e-02
3.503999999999999915e+01,2.959872330457692310e-02
3.507999999999999829e+01,3.125263344104999702e-02
3.511999999999999744e+01,2.066629832216177257e-02
3.515999999999999659e+01,2.956672853312808727e-02
3.520000000000000284e+01,2.413325414961850143e-02
3.524000000000000199e+01,1.209631475949634813e-02
3.528000000000000114e+01,2.631027663241696651e-02
3.532000000000000028e+01,2.892819954248060030e-02
3.535999999999999943e+01,2.784157388961354049e-02
3.539999999999999858e+01,2.498301002741957350e-02
3.543999999999999773e+01,2.405667724219303152e-02
3.547999999999999687e+01,3.263196430973470258e-02
3.552000000000000313e+01,3.959636580656420574e-02
3.556000000000000227e+01,2.787849626287880120e-02
3.560000000000000142e+01,2.437384190201141720e-02
3.564000000000000057e+01,2.441192978299238509e-02
3.567999999999999972e+01,2.557699833373085554e-02
3.571999999999999886e+01,3.060691196814450954e-02
3.575999999999999801e+01,4.868156758266178191e-02
3.579999999999999716e+01,3.744460221362537478e-02
3.584000000000000341e+01,4.247339628364920489e-02
3.588000000000000256e+01,4.476395457817739648e-02
3.592000000000000171e+01,3.755214359942431884e-02
3.596000000000000085e+01,4.419033170534188842e-02
3.600000000000000000e+01,5.115025129150833905e-02
3.603999999999999915e+01,5.021831155157310822e-02
3.607999999999999829e+01,5.299017156290612707e-02
3.611999999999999744e+01,5.173539295534526627e-02
3.615999999999999659e+01,4.806448445836877803e-02
3.620000000000000284e+01,4.423215804970609399e-02
3.624000000000000199e+01,5.843715610130054139e-02
3.628000000000000114e+01,6.249558711101856762e-02
3.632000000000000028e+01,6.800311015622995114e-02
3.635999999999999943e+01,5.692203489475543970e-02
3.639999999999999858e+01,6.935401413907482659e-02
3.643999999999999773e+01,6.503634548234679680e-02
3.647999999999999687e+01,6.232882210857757649e-02
3.652000000000000313e+01,7.588706852432960948e-02
3.656000000000000227e+01,6.093895958500417098e-02
3.660000000000000142e+01,7.836170285917809508e-02
3.664000000000000057e+01,8.595998619525688222e-02
3.667999999999999972e+01,8.888743618809973046e-02
3.671999999999999886e+01,8.907666319131059274e-02
3.675999999999999801e+01,9.490231004100393997e-02
3.679999999999999716e+01,9.122560101213023076e-02
3.684000000000000341e+01,9.592317685250743853e-02
3.688000000000000256e+01,9.627202401802750775e-02
3.692000000000000171e+01,9.887522641211458907e-02
3.696000000000000085e+01,1.075980041331257159e-01
3.700000000000000000e+01,1.040805652147560184e-01
3.703999999999999915e+01,1.223046316111001119e-01
3.707999999999999829e+01,1.390788869939702244e-01
3.711999999999999744e+01,1.458676389328900647e-01
3.715999999999999659e+01,1.487908188950957666e-01
3.720000000000000284e+01,1.658861184404677724e-01
3.724000000000000199e+01,1.709022558116256307e-01
3.728000000000000114e+01,1.767232965824414581e-01
3.732000000000000028e+01,1.968775095750382453e-01
3.735999999999999943e+01,2.089788325215420628e-01
3.739999999999999858e+01,2.168924855203100133e-01
3.743999999999999773e+01,2.370456520105949649e-01
3.747999999999999687e+01,2.530111497708452117e-01
3.752000000000000313e+01,2.770288411266818018e-01
3.756000000000000227e+01,3.002409320235032708e-01
3.760000000000000142e+01,3.326325734180516913e-01
3.764000000000000057e+01,3.542334652233947168e-01
3.767999999999999972e+01,3.798602827581574193e-01
3.771999999999999886e+01,4.008162827798010808e-01
3.775999999999999801e+01,4.378770206532734410e-01
3.779999999999999716e+01,4.905593445512366757e-01
3.784000000000000341e+01,5.398592592591350270e-01
3.788000000000000256e+01,5.809452410239359654e-01
3.792000000000000171e+01,6.101131217770466852e-01
3.796000000000000085e+01,6.727792311290180516e-01
3.800000000000000000e+01,7.381828645847122727e-01
3.803999999999999915e+01,7.966609740292140973e-01
3.807999999999999829e+01,8.372621048511055264e-01
3.811999999999999744e+01,8.852712351530920287e-01
3.815999999999999659e+01,9.313474184443838455e-01
3.820000000000000284e+01,9.790337731992122539e-01
3.824000000000000199e+01,9.775992942266560348e-01
3.828000000000000114e+01,1.000000000000000000e+00
3.832000000000000028e+01,9.840702776718660560e-01
3.835999999999999943e+01,9.805411336508769171e-01
3.839999999999999858e+01,9.794274181979913951e-01
3.843999999999999773e+01,9.135709432918863726e-01
3.847999999999999687e+01,9.206701538550785546e-01
3.852000000000000313e+01,8.762327727718991488e-01
3.856000000000000227e+01,8.155289284929453375e-01
3.860000000000000142e+01,7.921885420439689351e-01
3.864000000000000057e+01,7.169894641510475841e-01
3.867999999999999972e+01,6.814085566746836964e-01
3.871999999999999886e+01,6.564566740524301336e-01
3.875999999999999801e+01,5.923691159657420435e-01
3.879999999999999716e+01,5.538883094727027334e-01
3.884000000000000341e+01,5.472952368526110556e-01
3.888000000000000256e+01,5.015664905946365382e-01
3.892000000000000171e+01,4.712982965969085836e-01
3.896000000000000085e+01,4.294341190417325649e-01
3.900000000000000000e+01,4.028694441524416359e-01
3.903999999999999915e+01,4.006231180134011138e-01
3.907999999999999829e+01,3.693873224406858391e-01
3.911999999999999744e+01,3.339638831008124309e-01
3.915999999999999659e+01,3.349376052424491990e-01
3.920000000000000284e+01,3.051503008442725262e-01
3.924000000000000199e+01,2.953329763149048492e-01
3.928000000000000114e+01,2.851932299432882734e-01
3.932000000000000028e+01,2.657122168627582548e-01
3.935999999999999943e+01,2.639464741087105826e-01
3.939999999999999858e+01,2.278765899937219008e-01
3.943999999999999773e+01,2.325522435478925565e-01
3.947999999999999687e+01,2.106541959378362971e-01
3.952000000000000313e+01,2.109808438274224096e-01
3.956000000000000227e+01,1.958462978028139012e-01
3.960000000000000142e+01,1.890860786581510244e-01
3.964000000000000057e+01,1.794266301578907319e-01
3.967999999999999972e+01,1.791078146276539607e-01
3.971999999999999886e+01,1.704140433493869233e-01
3.975999999999999801e+01,1.766976846810416335e-01
3.979999999999999716e+01,1.660706784430407146e-01
3.984000000000000341e+01,1.609190881209595081e-01
3.988000000000000256e+01,1.599545078271465415e-01
3.992000000000000171e+01,1.510981272657447583e-01
3.996000000000000085e+01,1.403088270919274627e-01
4.000000000000000000e+01,1.380549106986250496e-01
4.003999999999999915e+01,1.362838380915497860e-01
4.007999999999999829e+01,1.380555753087449045e-01
4.011999999999999744e+01,1.253324320080311527e-01
4.015999999999999659e+01,1.077774575220251663e-01
4.020000000000000284e+01,1.151850526911895739e-01
4.024000000000000199e+01,1.132513951550056103e-01
4.028000000000000114e+01,1.101900769375250139e-01
4.032000000000000028e+01,1.109936738215442920e-01
4.035999999999999943e+01,1.088980523092777375e-01
4.039999999999999858e+01,1.079294833111453106e-01
4.043999999999999773e+01,9.842491871223153777e-02
4.047999999999999687e+01,1.024483203739862264e-01
4.052000000000000313e+01,9.133264435808742532e-02
4.056000000000000227e+01,9.551649475324888727e-02
4.060000000000000142e+01,1.027600104515508511e-01
4.064000000000000057e+01,1.011454319691992010e-01
4.067999999999999972e+01,9.244431884773504637e-02
4.071999999999999886e+01,7.842823062869939965e-02
4.075999999999999801e+01,9.179048276968482245e-02
4.079999999999999716e+01,8.904735662259469220e-02
4.084000000000000341e+01,8.276081613717552188e-02
4.088000000000000256e+01,8.001709765303970101e-02
4.092000000000000171e+01,8.822453913392523661e-02
4.096000000000000085e+01,8.725178968083681375e-02
4.100000000000000000e+01,9.159342298827416462e-02
4.103999999999999915e+01,5.937622852876833085e-02
4.107999999999999829e+01,9.029065957802318021e-02
4.111999999999999744e+01,7.997579052821587875e-02
4.115999999999999659e+01,7.771317047940400069e-02
4.120000000000000284e+01,7.995968217505732001e-02
4.124000000000000199e+01,7.495861694344441162e-02
4.128000000000000114e+01,8.203607284094806273e-02
4.132000000000000028e+01,7.365236161368565737e-02
4.135999999999999943e+01,7.219354674723253706e-02
4.139999999999999858e+01,7.476071423330954424e-02
4.143999999999999773e+01,6.508773266242778854e-02
4.147999999999999687e+01,7.103639313029669333e-02
4.152000000000000313e+01,6.651646469159860908e-02
4.156000000000000227e+01,7.423611245603438380e-02
4.160000000000000142e+01,7.245347740398107306e-02
4.164000000000000057e+01,7.775679378675431908e-02
4.167999999999999972e+01,7.710094643612065701e-02
4.171999999999999886e+01,7.161329164537008629e-02
4.175999999999999801e+01,6.064962677510223055e-02
4.179999999999999716e+01,6.981703155214766254e-02
4.184000000000000341e+01,5.965805762997909711e-02
4.188000000000000256e+01,7.462272974677100490e-02
4.192000000000000171e+01,6.784526220110864703e-02
4.196000000000000085e+01,6.316117578713226210e-02
4.200000000000000000e+01,7.297138364252565845e-02
4.203999999999999915e+01,7.166880725815936992e-02
4.207999999999999829e+01,6.730598784602248585e-02
4.211999999999999744e+01,6.584180606128800517e-02
4.215999999999999659e+01,6.244473815092362046e-02
4.220000000000000284e+01,7.676298379543755601e-02
4.224000000000000199e+01,6.096445242103849110e-02
4.228000000000000114e+01,8.269048570293950629e-02
4.232000000000000028e+01,8.106387729026508226e-02
4.235999999999999943e+01,6.671398138800854749e-02
4.239999999999999858e+01,7.748773943977084466e-02
4.243999999999999773e+01,7.296139822664805819e-02
4.247999999999999687e+01,7.487681798596444727e-02
4.252000000000000313e+01,7.985193227325254606e-02
4.256000000000000227e+01,7.484162592027872318e-02
4.260000000000000142e+01,7.820569211104930196e-02
4.264000000000000057e+01,8.511260709253176682e-02
4.267999999999999972e+01,7.076054641591061900e-02
4.271999999999999886e+01,8.153214456411357614e-02
4.275999999999999801e+01,7.909730887505260488e-02
4.279999999999999716e+01,8.294318821717318324e-02
4.284000000000000341e+01,8.533934422031314027e-02
4.288000000000000256e+01,8.660787911744866063e-02
4.292000000000000171e+01,9.125821625518790170e-02
4.296000000000000085e+01,9.204306969955700080e-02
4.300000000000000000e+01,9.588762497810557339e-02
4.303999999999999915e+01,9.264568153972987941e-02
4.307999999999999829e+01,9.729496551511797320e-02
4.311999999999999744e+01,1.021050385341076977e-01
4.315999999999999659e+01,1.025664784677921826e-01
4.320000000000000284e+01,1.022224037904029686e-01
4.324000000000000199e+01,1.054211870364854531e-01
4.328000000000000114e+01,1.079755077012582443e-01
4.332000000000000028e+01,1.155221448157689318e-01
4.335999999999999943e+01,1.048697820518295909e-01
4.339999999999999858e+01,1.178916311546105017e-01
4.343999999999999773e+01,1.212501746359694044e-01
4.347999999999999687e+01,1.273463256335900240e-01
4.352000000000000313e+01,1.273222900928707713e-01
4.356000000000000227e+01,1.326126762791188518e-01
4.360000000000000142e+01,1.288839625275985667e-01
4.364000000000000057e+01,1.460916004908353605e-01
4.367999999999999972e+01,1.512201743048124936e-01
4.371999999999999886e+01,1.495843613764519520e-01
4.375999999999999801e+01,1.605102597621365090e-01
4.379999999999999716e+01,1.635444169387453017e-01
4.384000000000000341e+01,1.596531383875056387e-01
4.388000000000000256e+01,1.680014713527374637e-01
4.392000000000000171e+01,1.615328800167465384e-01
4.396000000000000085e+01,1.884015577951509424e-01
4.400000000000000000e+01,1.750072841841165405e-01
4.403999999999999915e+01,1.791673013230276057e-01
4.407999999999999829e+01,1.918627643452197329e-01
4.411999999999999744e+01,1.936065255999487589e-01
4.415999999999999659e+01,1.993763112179027241e-01
4.420000000000000284e+01,1.877523638035840381e-01
4.424000000000000199e+01,1.989973869815354346e-01
4.428000000000000114e+01,1.988075583912379540e-01
4.432000000000000028e+01,2.145615166922128225e-01
4.435999999999999943e+01,2.014871367398612667e-01
4.439999999999999858e+01,2.233605407198898107e-01
4.443999999999999773e+01,2.049710000078367178e-01
4.447999999999999687e+01,2.237839558147438623e-01
4.452000000000000313e+01,2.245589802119325740e-01
4.456000000000000227e+01,2.214685452697771340e-01
4.460000000000000142e+01,2.114526861679354441e-01
4.464000000000000057e+01,2.117438404059744650e-01
4.467999999999999972e+01,1.904539478043167644e-01
4.471999999999999886e+01,2.132917402934221551e-01
4.475999999999999801e+01,2.008591681351968861e-01
4.479999999999999716e+01,1.950294430748111818e-01
4.484000000000000341e+01,1.945141592246135420e-01
4.488000000000000256e+01,1.910997257782535430e-01
4.492000000000000171e+01,1.868798039013977175e-01
4.496000000000000085e+01,1.681650751775614072e-01
4.500000000000000000e+01,1.689372615608394357e-01
4.503999999999999915e+01,1.534430833821479045e-01
4.507999999999999829e+01,1.508327382336984157e-01
4.511999999999999744e+01,1.553083974900819619e-01
4.515999999999999659e+01,1.573680638484459826e-01
4.520000000000000284e+01,1.421950632078664012e-01
4.524000000000000199e+01,1.365238309796133753e-01
4.528000000000000114e+01,1.290808109281437743e-01
4.532000000000000028e+01,1.205102069105593587e-01
4.535999999999999943e+01,1.198308650112256957e-01
4.539999999999999858e+01,1.077166883914614376e-01
4.543999999999999773e+01,1.126736713952269375e-01
4.547999999999999687e+01,1.039411095273843899e-01
4.552000000000000313e+01,9.730198297893556669e-02
4.556000000000000227e+01,9.549415616379819394e-02
4.560000000000000142e+01,8.676092041024094370e-02
4.564000000000000057e+01,9.155572945908581339e-02
4.567999999999999972e+01,8.008418368757161399e-02
4.571999999999999886e+01,7.473234658127350660e-02
4.575999999999999801e+01,7.984859067473704108e-02
4.579999999999999716e+01,8.238780079972861381e-02
4.584000000000000341e+01,7.429743696196047797e-02
4.588000000000000256e+01,6.878366635943027052e-02
4.592000000000000171e+01,6.826225178193010001e-02
4.596000000000000085e+01,6.017123049741472662e-02
4.600000000000000000e+01,6.415880218639261057e-02
4.603999999999999915e+01,4.865900829341172212e-02
4.607999999999999829e+01,6.069868654965098614e-02
4.611999999999999744e+01,5.196259394513079444e-02
4.615999999999999659e+01,5.127882644793706896e-02
4.620000000000000284e+01,3.980443965557674962e-02
4.624000000000000199e+01,5.345376526689764318e-02
4.628000000000000114e+01,4.439471270810842890e-02
4.632000000000000028e+01,3.839541251810252992e-02
4.635999999999999943e+01,4.270315184855520002e-02
4.639999999999999858e+01,3.235505543858802763e-02
4.643999999999999773e+01,4.390965823530000589e-02
4.647999999999999687e+01,3.404429240265726547e-02
4.652000000000000313e+01,3.835118801538200950e-02
4.656000000000000227e+01,4.217472178461311588e-02
4.660000000000000142e+01,3.408028666274477009e-02
4.664000000000000057e+01,4.225177536961182562e-02
4.667999999999999972e+01,4.269261751671269561e-02
4.671999999999999886e+01,3.185969584751709160e-02
4.675999999999999801e+01,3.391063278029074479e-02
4.679999999999999716e+01,3.515610989854914964e-02
4.684000000000000341e+01,2.754358720800450036e-02
4.688000000000000256e+01,2.991601032885130018e-02
4.692000000000000171e+01,2.407463810684745339e-02
4.696000000000000085e+01,3.691495676532580844e-02
4.700000000000000000e+01,3.332788988345361525e-02
4.703999999999999915e+01,2.780801115573068583e-02
4.707999999999999829e+01,2.228793093576084822e-02
4.711999999999999744e+01,2.691385099234910525e-02
4.715999999999999659e+01,2.187652205062565539e-02
4.720000000000000284e+01,1.957685724827433818e-02
4.724000000000000199e+01,3.241576972297884746e-02
4.728000000000000114e+01,2.608943711422033115e-02
4.732000000000000028e+01,2.733229483326891571e-02
4.735999999999999943e+01,1.923400822238457292e-02
4.739999999999999858e+01,2.337538670682887815e-02
4.743999999999999773e+01,1.527670746191173677e-02
4.747999999999999687e+01,1.152620473894893499e-02
4.752000000000000313e+01,2.033747056199223038e-02
4.756000000000000227e+01,1.739183291841435094e-02
4.760000000000000142e+01,2.185433905253533066e-02
4.764000000000000057e+01,1.665360349455243666e-02
4.767999999999999972e+01,1.402948857008661648e-02
4.771999999999999886e+01,1.639775706893008972e-02
4.775999999999999801e+01,1.635007224504613638e-02
4.779999999999999716e+01,1.517484120378765310e-02
4.784000000000000341e+01,2.559507870696382109e-02
4.788000000000000256e+01,6.381777475356812009e-03
4.792000000000000171e+01,1.937844994992004438e-02
4.796000000000000085e+01,1.916876773780369636e-02
4.800000000000000000e+01,2.556198133157884869e-02
4.803999999999999915e+01,1.874884145637573454e-02
4.807999999999999829e+01,1.193551531019191106e-02
4.811999999999999744e+01,1.430189978945582523e-02
4.815999999999999659e+01,1.795650571194246786e-02
4.820000000000000284e+01,2.531509586744404294e-02
4.824000000000000199e+01,1.608526854490249791e-02
4.828000000000000114e+01,1.039837586101434799e-02
4.832000000000000028e+01,1.791746714839639529e-02
4.835999999999999943e+01,9.170244408412717846e-03
4.839999999999999858e+01,2.200364908466444572e-02
4.843999999999999773e+01,1.341711496524325246e-02
4.847999999999999687e+01,2.061338024549905223e-02
4.852000000000000313e+01,1.782431560423975922e-02
4.856000000000000227e+01,1.761188499121181875e-02
4.860000000000000142e+01,2.421550500424233480e-03
4.864000000000000057e+01,1.396547306498450297e-02
4.867999999999999972e+01,1.004834053329810468e-02
4.871999999999999886e+01,1.418357207537979982e-02
4.875999999999999801e+01,2.443855855532704388e-02
4.879999999999999716e+01,1.230730684688053495e-02
4.884000000000000341e+01,2.046828275552442164e-02
4.888000000000000256e+01,1.236295255186105162e-02
4.892000000000000171e+01,1.134368459384241766e-02
4.896000000000000085e+01,1.129054863193399566e-02
4.900000000000000000e+01,1.155934202673534680e-02
4.903999999999999915e+01,1.488792919216415551e-02
4.907999999999999829e+01,8.714347396175201044e-03
4.911999999999999744e+01,1.365310119165344567e-02
4.915999999999999659e+01,1.923588840336960121e-02
4.920000000000000284e+01,1.805437228528693899e-02
4.924000000000000199e+01,7.209638829126403803e-03
4.928000000000000114e+01,1.246981857378143092e-02
4.932000000000000028e+01,7.905731385997044267e-03
4.935999999999999943e+01,1.429293263072093506e-02
4.939999999999999858e+01,1.987471363622174067e-02
4.943999999999999773e+01,3.553418631127514861e-03
4.947999999999999687e+01,1.573795239993518516e-02
4.952000000000000313e+01,6.985716248225770121e-03
4.956000000000000227e+01,7.413212640587417065e-03
4.960000000000000142e+01,1.347732432048988696e-02
4.964000000000000057e+01,3.758293892435822080e-03
4.967999999999999972e+01,5.956861640071787166e-03
4.971999999999999886e+01,1.620780868274207878e-02
4.975999999999999801e+01,1.888920685920886938e-02
4.979999999999999716e+01,1.770522545576641571e-02
4.984000000000000341e+01,1.442742401395590360e-02
4.988000000000000256e+01,1.646414049751520822e-02
4.992000000000000171e+01,1.125341217439915220e-02
4.996000000000000085e+01,8.458288377224464777e-03
5.000000000000000000e+01,4.857753473586370885e-03
5.003999999999999915e+01,9.470653547850550399e-03
5.007999999999999829e+01,7.641365311155770210e-03
5.011999999999999744e+01,1.160975108912304724e-02
5.015999999999999659e+01,6.720187592891182192e-03
5.020000000000000284e+01,2.051236429404406161e-02
5.024000000000000199e+01,9.985714980673425847e-03
5.028000000000000114e+01,1.298718109638023060e-02
5.032000000000000028e+01,1.808215559355872207e-02
5.035999999999999943e+01,1.657389522967003120e-02
5.039999999999999858e+01,1.554863634432657529e-02
5.043999999999999773e+01,1.790529416350887873e-02
5.047999999999999687e+01,1.591343031705470118e-02
5.052000000000000313e+01,1.359931571538388825e-02
5.056000000000000227e+01,1.353976396035140757e-02
5.060000000000000142e+01,1.283586104367802176e-02
5.064000000000000057e+01,2.260011360654540571e-02
5.067999999999999972e+01,1.835279882426345960e-02
5.071999999999999886e+01,1.732635419639906929e-02
5.075999999999999801e+01,1.227349378897830100e-02
5.079999999999999716e+01,1.543407992762206755e-02
5.084000000000000341e+01,9.253574706339473543e-03
5.088000000000000256e+01,2.062746434846324597e-02
5.092000000000000171e+01,1.025935131952880087e-02
5.096000000000000085e+01,1.035939864094032742e-02
5.100000000000000000e+01,1.432452362697492730e-02
5.103999999999999915e+01,2.247682851060881989e-02
5.107999999999999829e+01,1.387970833253291542e-02
5.111999999999999744e+01,1.478444606782890539e-02
5.115999999999999659e+01,1.214592654826331976e-02
5.120000000000000284e+01,1.127882718075809247e-02
5.124000000000000199e+01,1.266630101035221348e-02
5.128000000000000114e+01,1.824095839064954205e-02
5.132000000000000028e+01,1.044826141565902838e-02
5.135999999999999943e+01,1.006376545032836196e-02
5.139999999999999858e+01,1.789272516382201667e-02
5.143999999999999773e+01,1.026067179176380975e-02
5.147999999999999687e+01,2.372614028125268060e-02
5.152000000000000313e+01,1.770432660132176261e-02
5.156000000000000227e+01,1.055502393597723167e-02
5.160000000000000142e+01,1.113602755752201960e-02
5.164000000000000057e+01,6.241171485659748747e-03
5.167999999999999972e+01,1.922282407834244658e-02
5.171999999999999886e+01,1.674346784742783770e-02
5.175999999999999801e+01,1.265347323916452688e-02
5.179999999999999716e+01,7.758094922717075591e-03
5.184000000000000341e+01,1.316983953926710756e-02
5.188000000000000256e+01,2.035301465833851131e-02
5.192000000000000171e+01,5.472100703492361294e-03
5.196000000000000085e+01,1.571498621797026360e-02
5.200000000000000000e+01,1.516734072062565254e-02
5.203999999999999915e+01,1.413641679232628158e-02
5.207999999999999829e+01,1.600428209524094175e-02
5.211999999999999744e+01,1.803307343315328770e-02
5.215999999999999659e+01,1.378075893240314487e-02
5.220000000000000284e+01,1.146093061704239573e-02
5.224000000000000199e+01,1.348935127686320609e-02
5.228000000000000114e+01,1.889971664833961854e-02
5.232000000000000028e+01,2.511521434731792818e-02
5.235999999999999943e+01,1.103818860242627639e-02
5.239999999999999858e+01,1.065036136775931314e-02
5.243999999999999773e+01,2.056966619884951358e-02
5.247999999999999687e+01,1.663848189513239886e-02
5.252000000000000313e+01,1.753870326473970856e-02
5.256000000000000227e+01,1.827775574257622937e-02
5.260000000000000142e+01,1.112520095847975392e-02
5.264000000000000057e+01,1.975550889452788381e-02
5.267999999999999972e+01,1.421322911589635758e-02
5.271999999999999886e+01,1.221395155834033297e-02
5.275999999999999801e+01,1.746184550815409880e-02
5.279999999999999716e+01,1.449603361616265580e-02
5.284000000000000341e+01,1.974369932161885999e-02
5.288000000000000256e+01,1.919342258391263170e-02
5.292000000000000171e+01,1.493886456871062508e-02
5.296000000000000085e+01,1.406626161562519670e-02
5.300000000000000000e+01,1.544825864906767751e-02
5.303999999999999915e+01,1.167651892300138224e-02
5.307999999999999829e+01,1.418565070273347314e-02
5.311999999999999744e+01,1.701677455079217416e-02
5.315999999999999659e+01,1.356680778145468932e-02
5.320000000000000284e+01,1.881347652540904178e-02
5.324000000000000199e+01,1.761800505760572136e-02
5.328000000000000114e+01,1.481191834877841791e-02
5.332000000000000028e+01,2.488979009342689661e-02
5.335999999999999943e+01,2.272769421860998049e-02
5.339999999999999858e+01,1.766657843281884896e-02
5.343999999999999773e+01,2.259050830992566372e-02
5.347999999999999687e+01,1.624077726649562556e-02
5.352000000000000313e+01,2.599602396204993629e-02
5.356000000000000227e+01,1.674717197575592911e-02
5.360000000000000142e+01,1.877177458426450285e-02
5.364000000000000057e+01,1.982997067965601087e-02
5.367999999999999972e+01,2.137121817934595908e-02
5.371999999999999886e+01,1.759768845792546860e-02
5.375999999999999801e+01,2.042714221688992846e-02
5.379999999999999716e+01,2.518910651526966998e-02
5.384000000000000341e+01,2.028792349339615664e-02
5.388000000000000256e+01,2.617704689209148644e-02
5.392000000000000171e+01,1.934305875904222122e-02
5.396000000000000085e+01,1.959520958681949462e-02
5.400000000000000000e+01,1.598204476400567897e-02
5.403999999999999915e+01,2.106552824034736704e-02
5.407999999999999829e+01,1.197644531178214226e-02
5.411999999999999744e+01,2.366282280478126596e-02
5.415999999999999659e+01,1.521775506425242751e-02
5.420000000000000284e+01,1.144306775671242483e-02
5.424000000000000199e+01,2.344490701772671340e-02
5.428000000000000114e+01,1.870876266073991795e-02
5.432000000000000028e+01,2.165238692711417626e-02
5.435999999999999943e+01,1.763428024264632188e-02
5.439999999999999858e+01,2.072976850119281206e-02
5.443999999999999773e+01,1.750750666628856853e-02
5.447999999999999687e+01,2.003080361779780230e-02
5.452000000000000313e+01,2.117105661239340395e-02
5.456000000000000227e+01,1.532928584516715306e-02
5.460000000000000142e+01,1.682246106107551653e-02
5.464000000000000057e+01,1.989909415079400140e-02
5.467999999999999972e+01,2.040942479519777808e-02
5.471999999999999886e+01,1.764431953084929366e-02
5.475999999999999801e+01,2.099177555318434626e-02
5.479999999999999716e+01,2.320005620570184807e-02
5.484000000000000341e+01,1.760557863602691536e-02
5.488000000000000256e+01,1.613667208734947955e-02
5.492000000000000171e+01,1.969558350023516494e-02
5.496000000000000085e+01,1.842788140911416975e-02
5.500000000000000000e+01,1.917733328034559176e-02
5.503999999999999915e+01,2.168150756299185369e-02
5.507999999999999829e+01,1.781169168779069001e-02
5.511999999999999744e+01,2.117837992131584718e-02
5.515999999999999659e+01,2.123973624586997927e-02
5.520000000000000284e+01,1.706132000713869723e-02
5.524000000000000199e+01,1.421042332334667910e-02
5.528000000000000114e+01,1.391256266384627988e-02
5.532000000000000028e+01,2.242706743111923945e-02
5.535999999999999943e+01,2.708563119976878375e-02
5.539999999999999858e+01,1.987581707651032981e-02
5.543999999999999773e+01,2.012084947299362311e-02
5.547999999999999687e+01,2.078211369256115215e-02
5.552000000000000313e+01,1.793730933671772165e-02
5.556000000000000227e+01,1.885949392639261687e-02
5.560000000000000142e+01,1.683658054395969009e-02
5.564000000000000057e+01,2.010754373822993407e-02
5.567999999999999972e+01,2.070839255625187350e-02
5.571999999999999886e+01,2.049219155551119942e-02
5.575999999999999801e+01,1.562317882132281330e-02
5.579999999999999716e+01,2.222189278990352457e-02
5.584000000000000341e+01,1.765904044437677234e-02
5.588000000000000256e+01,1.774621151156102403e-02
5.592000000000000171e+01,1.783331564249182599e-02
5.596000000000000085e+01,2.806655460597418106e-02
5.600000000000000000e+01,1.816837634305836294e-02
5.603999999999999915e+01,3.403826290048383996e-02
5.607999999999999829e+01,3.138724156984019215e-02
5.611999999999999744e+01,2.293832711293665449e-02
5.615999999999999659e+01,2.672921108965388079e-02
5.620000000000000284e+01,2.456115234574978920e-02
5.624000000000000199e+01,1.884991367101648135e-02
5.628000000000000114e+01,2.119115414282391613e-02
5.632000000000000028e+01,2.063341914975454217e-02
5.635999999999999943e+01,2.522924990379745921e-02
5.639999999999999858e+01,2.451034422972328541e-02
5.643999999999999773e+01,2.733449739983496996e-02
5.647999999999999687e+01,2.403866129921710879e-02
5.652000000000000313e+01,2.976161287062047828e-02
5.656000000000000227e+01,2.517725527536360600e-02
5.660000000000000142e+01,2.928958494570381085e-02
5.664000000000000057e+01,2.470511478771270433e-02
5.667999999999999972e+01,1.915428438925387278e-02
5.671999999999999886e+01,2.809797231720360250e-02
5.675999999999999801e+01,2.931116711575067896e-02
5.679999999999999716e+01,2.601488563500100465e-02
5.684000000000000341e+01,3.044899020057564853e-02
5.688000000000000256e+01,2.441473965823252185e-02
5.692000000000000171e+01,2.578877475578942452e-02
5.696000000000000085e+01,2.973957174021402486e-02
5.700000000000000000e+01,2.563777762421426756e-02
5.703999999999999915e+01,3.458104939686341278e-02
5.707999999999999829e+01,2.645288581127449093e-02
5.711999999999999744e+01,3.298029745266343321e-02
5.715999999999999659e+01,2.436888469826888406e-02
5.720000000000000284e+01,2.815833701967469793e-02
5.724000000000000199e+01,2.631096407470160520e-02
5.728000000000000114e+01,2.671825626327585870e-02
5.732000000000000028e+01,2.454868983236501920e-02
5.735999999999999943e+01,2.898216167839755969e-02
5.739999999999999858e+01,2.568515013663780905e-02
5.743999999999999773e+01,2.142178992257261216e-02
5.747999999999999687e+01,2.456672387231654750e-02
5.752000000000000313e+01,2.916107254839792398e-02
5.756000000000000227e+01,2.844070245303105537e-02
5.760000000000000142e+01,2.916974830170289412e-02
5.764000000000000057e+01,3.038190583088746718e-02
5.767999999999999972e+01,2.917826103230563434e-02
5.771999999999999886e+01,2.749142425956115771e-02
5.775999999999999801e+01,2.902556479894845276e-02
5.779999999999999716e+01,2.186292316667331342e-02
5.784000000000000341e+01,3.225478233781750581e-02
5.788000000000000256e+01,3.346670811881227725e-02
5.792000000000000171e+01,2.920286979595192872e-02
5.796000000000000085e+01,3.331363781548509623e-02
5.800000000000000000e+01,2.550661046635372547e-02
5.803999999999999915e+01,3.589829021314602103e-02
5.807999999999999829e+01,2.728594007821335404e-02
5.811999999999999744e+01,3.155762145883426323e-02
5.815999999999999659e+01,3.631242243502635914e-02
5.820000000000000284e+01,3.929563224676155264e-02
5.824000000000000199e+01,2.875054222230837356e-02
5.828000000000000114e+01,3.511575645038064047e-02
5.832000000000000028e+01,2.891897693234250430e-02
5.835999999999999943e+01,3.995460450865660762e-02
5.839999999999999858e+01,3.359671519467851558e-02
5.843999999999999773e+01,3.368082978454858128e-02
5.847999999999999687e+01,3.714698345792484535e-02
5.852000000000000313e+01,3.610368703258228645e-02
5.856000000000000227e+01,3.055094111737159321e-02
5.860000000000000142e+01,2.548132149508927982e-02
5.864000000000000057e+01,3.699990998086261779e-02
5.867999999999999972e+01,3.515125613986754688e-02
5.871999999999999886e+01,3.024261255297185785e-02
5.875999999999999801e+01,3.564119723023587843e-02
5.879999999999999716e+01,3.121565927266434920e-02
5.884000000000000341e+01,3.339318211951016607e-02
5.888000000000000256e+01,2.961180303872815861e-02
5.892000000000000171e+01,3.710395952988506524e-02
5.896000000000000085e+01,3.895931693524094103e-02
5.900000000000000000e+01,3.984834941346675208e-02
5.903999999999999915e+01,3.590583808390664100e-02
5.907999999999999829e+01,3.727798471536562103e-02
5.911999999999999744e+01,3.687855418593270068e-02
5.915999999999999659e+01,3.535175035270941152e-02
5.920000000000000284e+01,3.736804737436678209e-02
5.924000000000000199e+01,3.584121012899366132e-02
5.928000000000000114e+01,3.318700140638218554e-02
5.932000000000000028e+01,3.552535267376818323e-02
5.935999999999999943e+01,3.609213043336607918e-02
5.939999999999999858e+01,3.295472554927335318e-02
5.943999999999999773e+01,4.125191496424071569e-02
5.947999999999999687e+01,3.151140067963237312e-02
5.952000000000000313e+01,3.513809165653873634e-02
5.956000000000000227e+01,4.118053328354215337e-02
5.960000000000000142e+01,3.739886445272298798e-02
5.964000000000000057e+01,3.683820155001607533e-02
5.967999999999999972e+01,3.804908787570709244e-02
5.971999999999999886e+01,3.845471104564245762e-02
5.975999999999999801e+01,4.111503709786540339e-02
5.979999999999999716e+01,4.039328821902972433e-02
5.984000000000000341e+01,4.369780237287333030e-02
5.988000000000000256e+01,3.830556601528831845e-02
5.992000000000000171e+01,3.983850852521368668e-02
5.996000000000000085e+01,3.766727691535745604e-02
