2.003999999999999915e+01,3.906331535575369163e-02
2.007999999999999829e+01,3.013769524087896168e-02
2.012000000000000099e+01,3.615804918164975540e-02
2.016000000000000014e+01,3.983657788422574619e-02
2.019999999999999929e+01,3.955255104689145429e-02
2.023999999999999844e+01,3.224458834566803350e-02
2.028000000000000114e+01,2.475577835964934414e-02
2.032000000000000028e+01,3.347351606543573499e-02
2.035999999999999943e+01,3.102545201332439564e-02
2.039999999999999858e+01,2.335426851849351643e-02
2.044000000000000128e+01,3.224979814103779568e-02
2.048000000000000043e+01,3.934375407041130340e-02
2.051999999999999957e+01,1.906459938474253449e-02
2.055999999999999872e+01,3.209971724528466047e-02
2.060000000000000142e+01,2.388448903208041652e-02
2.064000000000000057e+01,3.547744135302050711e-02
2.067999999999999972e+01,3.644484346108874812e-02
2.071999999999999886e+01,4.299400908010235500e-02
2.076000000000000156e+01,4.359973900527482071e-02
2.080000000000000071e+01,2.745715904295201529e-02
2.083999999999999986e+01,3.364390202041039890e-02
2.087999999999999901e+01,2.218193079312713589e-02
2.092000000000000171e+01,4.385415961928260109e-02
2.096000000000000085e+01,2.716833211730413852e-02
2.100000000000000000e+01,4.883906294614455412e-02
2.103999999999999915e+01,2.746962682115862073e-02
2.107999999999999829e+01,2.374740690359935374e-02
2.112000000000000099e+01,4.397524801421141133e-02
2.116000000000000014e+01,3.340845028025418023e-02
2.119999999999999929e+01,2.067993386758194135e-02
2.123999999999999844e+01,3.028075012803613242e-02
2.128000000000000114e+01,2.835562451172110934e-02
2.132000000000000028e+01,3.435333329255035179e-02
2.135999999999999943e+01,2.972550840719505316e-02
2.139999999999999858e+01,3.230019485452076400e-02
2.144000000000000128e+01,4.135706859672921148e-02
2.148000000000000043e+01,1.403679244476771330e-02
2.151999999999999957e+01,1.877024342956421996e-02
2.155999999999999872e+01,3.376759093769333281e-02
2.160000000000000142e+01,1.833047281349943144e-02
2.164000000000000057e+01,3.458692224050113201e-02
2.167999999999999972e+01,3.499548945728355592e-02
2.171999999999999886e+01,2.063666295388004099e-02
2.176000000000000156e+01,3.617059439384420066e-02
2.180000000000000071e+01,4.305989665491825186e-02
2.183999999999999986e+01,3.878343317147304320e-02
2.187999999999999901e+01,2.460177368632479253e-02
2.192000000000000171e+01,3.851206351005120876e-02
2.196000000000000085e+01,1.802610890023649548e-02
2.200000000000000000e+01,2.131015547916996489e-02
2.203999999999999915e+01,1.883087876375095712e-02
2.207999999999999829e+01,4.120209270044808414e-02
2.212000000000000099e+01,3.493966618600306828e-02
2.216000000000000014e+01,2.093302551659467770e-02
2.219999999999999929e+01,3.627890973888445864e-02
2.223999999999999844e+01,2.515213146343331027e-02
2.228000000000000114e+01,1.708601712001103085e-02
2.232000000000000028e+01,3.747202432437492237e-02
2.235999999999999943e+01,2.922439691760378433e-02
2.239999999999999858e+01,4.222564289396254361e-02
2.244000000000000128e+01,3.163553128378313734e-02
2.248000000000000043e+01,1.816340713046178668e-02
2.251999999999999957e+01,3.440397816108119872e-02
2.255999999999999872e+01,4.127961349503472821e-02
2.260000000000000142e+01,2.852568269701745082e-02
2.264000000000000057e+01,7.307224412918884165e-03
2.267999999999999972e+01,3.002788417596772425e-02
2.271999999999999886e+01,2.465516184624193946e-02
2.276000000000000156e+01,2.180287137020998911e-02
2.280000000000000071e+01,3.155556387706263954e-02
2.283999999999999986e+01,3.032259622554256406e-02
2.287999999999999901e+01,2.926900706153933926e-02
2.292000000000000171e+01,3.253666617239961423e-02
2.296000000000000085e+01,3.958533077310855824e-02
2.300000000000000000e+01,2.412313893066217463e-02
2.303999999999999915e+01,2.378707345007137833e-02
2.307999999999999829e+01,3.695640402962268450e-02
2.312000000000000099e+01,2.293276851366047100e-02
2.316000000000000014e+01,3.213891865479893972e-02
2.319999999999999929e+01,3.288055493653983113e-02
2.323999999999999844e+01,2.479751582665126047e-02
2.328000000000000114e+01,2.679833384069783483e-02
2.332000000000000028e+01,2.897854104894112895e-02
2.335999999999999943e+01,2.179383202720928600e-02
2.339999999999999858e+01,3.603810197475395410e-02
2.344000000000000128e+01,2.507030739407634448e-02
2.348000000000000043e+01,2.922864988193427105e-02
2.351999999999999957e+01,2.456232379150479275e-02
2.355999999999999872e+01,1.863474271301418517e-02
2.360000000000000142e+01,2.675281410636421928e-02
2.364000000000000057e+01,2.442548856638212043e-02
2.367999999999999972e+01,2.191739847504130256e-02
2.371999999999999886e+01,2.265008860855632217e-02
2.376000000000000156e+01,2.428250365408073791e-02
2.380000000000000071e+01,3.581870722410611385e-02
2.383999999999999986e+01,1.710058092132666144e-02
2.387999999999999901e+01,3.763948929336922988e-02
2.392000000000000171e+01,2.900455725597484921e-02
2.396000000000000085e+01,3.621609897826345154e-02
2.400000000000000000e+01,3.442290254949592621e-02
2.403999999999999915e+01,2.362496894300681466e-02
2.407999999999999829e+01,7.604005440576756120e-03
2.412000000000000099e+01,2.813886366122901259e-02
2.416000000000000014e+01,3.300598127118722913e-02
2.419999999999999929e+01,2.220535924378578066e-02
2.423999999999999844e+01,1.878739890860153805e-02
2.428000000000000114e+01,2.257201998618567698e-02
2.432000000000000028e+01,2.959743588864381311e-02
2.435999999999999943e+01,2.401649734439412556e-02
2.439999999999999858e+01,2.779911816631402965e-02
2.444000000000000128e+01,3.356196796362968804e-02
2.448000000000000043e+01,4.094488520410914656e-02
2.451999999999999957e+01,1.645275784342276060e-02
2.455999999999999872e+01,2.329410658178771715e-02
2.460000000000000142e+01,3.319617570558520969e-02
2.464000000000000057e+01,3.013173469045044364e-02
2.467999999999999972e+01,2.220444088495897653e-02
2.471999999999999886e+01,1.697770787933763903e-02
2.476000000000000156e+01,4.290437458665727344e-02
2.480000000000000071e+01,2.903242838369457166e-02
2.483999999999999986e+01,3.280778988160627796e-02
2.487999999999999901e+01,2.685810963068935991e-02
2.492000000000000171e+01,4.413825786359339837e-02
2.496000000000000085e+01,3.494580978550581446e-02
2.500000000000000000e+01,1.476775410911127656e-02
2.503999999999999915e+01,2.484269869508391390e-02
2.507999999999999829e+01,1.961008756262326222e-02
2.512000000000000099e+01,4.589104740868070464e-02
2.516000000000000014e+01,5.596404721905847562e-02
2.519999999999999929e+01,3.182096268877673134e-02
2.523999999999999844e+01,2.604552060384745724e-02
2.528000000000000114e+01,3.053406556236384212e-02
2.532000000000000028e+01,3.430164211788881701e-02
2.535999999999999943e+01,2.186126350440670968e-02
2.539999999999999858e+01,2.886901874631409362e-02
2.544000000000000128e+01,1.300581441290741234e-02
2.548000000000000043e+01,3.171757111534301288e-02
2.551999999999999957e+01,2.719820768356736446e-02
2.555999999999999872e+01,2.682007551395234474e-02
2.560000000000000142e+01,2.806203804086854561e-02
2.564000000000000057e+01,4.028832138237393307e-02
2.567999999999999972e+01,2.027942584384910193e-02
2.571999999999999886e+01,3.052354711437859497e-02
2.576000000000000156e+01,3.554467936901818670e-02
2.580000000000000071e+01,2.741924845864418883e-02
2.583999999999999986e+01,2.883749320726691767e-02
2.587999999999999901e+01,3.295632698246156456e-02
2.592000000000000171e+01,2.771030682109225721e-02
2.596000000000000085e+01,3.398885901933800663e-02
2.600000000000000000e+01,2.333914661079680361e-02
2.603999999999999915e+01,1.701075839721407149e-02
2.607999999999999829e+01,1.536385785749050555e-02
2.612000000000000099e+01,1.929885222887656529e-02
2.616000000000000014e+01,3.007631125418855356e-02
2.619999999999999929e+01,2.194461675877192042e-02
2.623999999999999844e+01,3.362123906433670678e-02
2.628000000000000114e+01,3.107082236820349688e-02
2.632000000000000028e+01,3.050068039418975599e-02
2.635999999999999943e+01,2.812910780718397979e-02
2.639999999999999858e+01,7.568711577254897196e-03
2.644000000000000128e+01,1.906216220423351607e-02
2.648000000000000043e+01,2.497247882977783606e-02
2.651999999999999957e+01,2.349884989939093546e-02
2.655999999999999872e+01,2.328517651999813254e-02
2.660000000000000142e+01,2.919365349007888369e-02
2.664000000000000057e+01,2.105518147125580095e-02
2.667999999999999972e+01,1.939902425414173973e-02
2.671999999999999886e+01,1.540120142569708153e-02
2.676000000000000156e+01,3.193203306271550496e-02
2.680000000000000071e+01,2.181023190934852987e-02
2.683999999999999986e+01,2.411343079287211685e-02
2.687999999999999901e+01,3.722089941157294413e-02
2.692000000000000171e+01,3.105906952400051477e-02
2.696000000000000085e+01,3.606167382384072029e-02
2.700000000000000000e+01,1.405148769440186553e-02
2.703999999999999915e+01,2.193418798849118209e-02
2.707999999999999829e+01,3.107685648692377206e-02
2.712000000000000099e+01,3.139494400717825207e-02
2.716000000000000014e+01,2.468926405042068742e-02
2.719999999999999929e+01,2.194477400975721956e-02
2.723999999999999844e+01,2.136066233069084871e-02
2.728000000000000114e+01,6.009292224941016614e-03
2.732000000000000028e+01,2.451260291729023474e-02
2.735999999999999943e+01,2.698808836014304768e-02
2.739999999999999858e+01,2.496094970495511475e-02
2.744000000000000128e+01,3.355801315884469199e-02
2.748000000000000043e+01,2.738782305272347700e-02
2.751999999999999957e+01,2.373818062710757529e-02
2.755999999999999872e+01,2.188876184419903323e-02
2.760000000000000142e+01,2.832249277752539596e-02
2.764000000000000057e+01,3.367514925569784628e-02
2.767999999999999972e+01,2.245974451270086811e-02
2.771999999999999886e+01,1.250432354739994603e-02
2.776000000000000156e+01,4.036538164810741375e-02
2.780000000000000071e+01,2.914822484975640102e-02
2.783999999999999986e+01,3.413779873010579918e-02
2.787999999999999901e+01,2.111866623369322571e-02
2.792000000000000171e+01,3.259000399067484011e-02
2.796000000000000085e+01,1.290670586439448403e-02
2.800000000000000000e+01,3.824314275545522002e-02
2.803999999999999915e+01,1.275926430410126954e-02
2.807999999999999829e+01,1.648962828729973878e-02
2.812000000000000099e+01,2.133036855693201672e-02
2.816000000000000014e+01,2.960919889210500075e-02
2.819999999999999929e+01,1.885569351022335985e-02
2.823999999999999844e+01,2.539199683800806573e-02
2.828000000000000114e+01,2.559873056293310994e-02
2.832000000000000028e+01,2.742370254005235125e-02
2.835999999999999943e+01,2.051568295870716263e-02
2.839999999999999858e+01,2.859458531918366783e-02
2.844000000000000128e+01,1.800756699861045737e-02
2.848000000000000043e+01,2.611781545813178507e-02
2.851999999999999957e+01,1.992269656721399121e-02
2.855999999999999872e+01,1.965319517034117350e-02
2.860000000000000142e+01,2.043418674720874628e-02
2.864000000000000057e+01,1.615632350839348030e-02
2.867999999999999972e+01,1.886550734536593041e-02
2.871999999999999886e+01,2.471512356707408070e-02
2.876000000000000156e+01,2.625636466985985240e-02
2.880000000000000071e+01,2.259011896738976483e-02
2.883999999999999986e+01,2.777613847979397768e-02
2.887999999999999901e+01,1.621102056791346585e-02
2.892000000000000171e+01,2.285784494596752175e-02
2.896000000000000085e+01,2.648425071032478248e-02
2.900000000000000000e+01,2.698876625031008947e-02
2.903999999999999915e+01,2.316201503339310533e-02
2.907999999999999829e+01,3.335506176282751478e-02
2.912000000000000099e+01,2.415275626925993471e-02
2.916000000000000014e+01,1.796506250225578596e-02
2.919999999999999929e+01,2.451188969772003304e-02
2.923999999999999844e+01,1.633447404992320606e-02
2.928000000000000114e+01,2.781623554758581168e-02
2.932000000000000028e+01,2.169434709298755093e-02
2.935999999999999943e+01,2.126146857822972316e-02
2.939999999999999858e+01,2.444624545779230593e-02
2.944000000000000128e+01,2.262678287846537836e-02
2.948000000000000043e+01,1.397351965333930475e-02
2.951999999999999957e+01,1.297008648415247899e-02
2.955999999999999872e+01,2.166399566062996926e-02
2.960000000000000142e+01,2.414344880626731818e-02
2.964000000000000057e+01,1.731332669984281952e-02
2.967999999999999972e+01,1.633449611101221721e-02
2.971999999999999886e+01,1.571529170268945105e-02
2.976000000000000156e+01,2.427969583458304548e-02
2.980000000000000071e+01,2.996226554355707616e-02
2.983999999999999986e+01,1.547520153576434528e-02
2.987999999999999901e+01,3.088109305825293555e-02
2.992000000000000171e+01,1.981450896323402183e-02
2.996000000000000085e+01,2.981690095879146671e-02
3.000000000000000000e+01,2.145047565875193504e-02
3.003999999999999915e+01,2.785018454854790160e-02
3.007999999999999829e+01,1.390018430880142486e-02
3.012000000000000099e+01,2.822241416429521754e-02
3.016000000000000014e+01,1.211038668105967296e-02
3.019999999999999929e+01,1.526652860057639560e-02
3.023999999999999844e+01,2.454490944301065611e-02
3.028000000000000114e+01,1.473415479205718824e-02
3.032000000000000028e+01,2.707287250838981071e-02
3.035999999999999943e+01,2.608505676706441775e-02
3.039999999999999858e+01,1.087030227749973682e-02
3.044000000000000128e+01,1.744486056965858373e-02
3.048000000000000043e+01,9.685006738733370826e-04
3.051999999999999957e+01,1.186397434275809036e-02
3.055999999999999872e+01,1.987763208207969645e-02
3.060000000000000142e+01,1.096313714808766146e-02
3.064000000000000057e+01,2.761966617093788989e-02
3.067999999999999972e+01,2.698788196157730218e-02
3.071999999999999886e+01,2.635558576052196220e-02
3.076000000000000156e+01,2.572277854110648770e-02
3.080000000000000071e+01,1.770612991255663196e-02
3.083999999999999986e+01,2.931782876567802162e-02
3.087999999999999901e+01,1.121561281122468272e-02
3.092000000000000171e+01,2.264621518818449308e-02
3.096000000000000085e+01,8.504773518250876435e-03
3.100000000000000000e+01,1.813355203733902840e-02
3.103999999999999915e+01,3.090694720118467194e-03
3.107999999999999829e+01,1.073757202188997499e-02
3.112000000000000099e+01,3.977446842660995602e-03
3.116000000000000014e+01,1.972697697630994979e-02
3.119999999999999929e+01,0.000000000000000000e+00
3.123999999999999844e+01,2.061072430876807055e-02
3.128000000000000114e+01,2.177217495194590929e-02
3.132000000000000028e+01,1.500955308098901771e-02
3.135999999999999943e+01,2.139236624485957652e-02
3.139999999999999858e+01,6.164933629745763394e-03
3.144000000000000128e+01,2.389187580227398328e-02
3.148000000000000043e+01,1.676711159239047469e-02
3.151999999999999957e+01,1.342356116594919414e-02
3.155999999999999872e+01,1.530187551854980850e-02
3.160000000000000142e+01,7.815474148092457773e-03
3.164000000000000057e+01,1.959727722043117654e-02
3.167999999999999972e+01,1.697209143845303941e-02
3.171999999999999886e+01,2.443096815399984495e-02
3.176000000000000156e+01,2.720724561218857557e-02
3.180000000000000071e+01,1.989848720285948211e-02
3.183999999999999986e+01,2.033273792487811510e-02
3.187999999999999901e+01,2.832991749879593124e-02
3.192000000000000171e+01,1.309613267203029938e-02
3.196000000000000085e+01,7.046009918881166248e-03
3.200000000000000000e+01,1.414133777391221765e-02
3.203999999999999915e+01,1.169187935978221148e-02
3.207999999999999829e+01,1.410413587247703014e-02
3.211999999999999744e+01,2.205471646750857551e-02
3.215999999999999659e+01,1.951486379616722625e-02
3.220000000000000284e+01,1.774478931961142800e-02
3.224000000000000199e+01,2.068154644217837929e-02
3.228000000000000114e+01,1.770820331751093296e-02
3.232000000000000028e+01,2.041627459723326446e-02
3.235999999999999943e+01,1.558177062996159330e-02
3.239999999999999858e+01,1.932284553144210729e-02
3.243999999999999773e+01,1.444767385538677298e-02
3.247999999999999687e+01,2.612781947089824752e-02
3.252000000000000313e+01,1.889903914512583438e-02
3.256000000000000227e+01,2.334988748897256355e-02
3.260000000000000142e+01,1.889215450125886903e-02
3.264000000000000057e+01,2.024716679642404177e-02
3.267999999999999972e+01,2.068113017831541001e-02
3.271999999999999886e+01,1.785410670194824759e-02
3.275999999999999801e+01,1.888432458014194237e-02
3.279999999999999716e+01,1.914509779695226094e-02
3.284000000000000341e+01,2.228500205347466040e-02
3.288000000000000256e+01,1.794549772056143119e-02
3.292000000000000171e+01,2.148181709287600230e-02
3.296000000000000085e+01,2.237739086340912592e-02
3.300000000000000000e+01,1.808474018904074679e-02
3.303999999999999915e+01,2.064872207109522823e-02
3.307999999999999829e+01,2.219799808815195452e-02
3.311999999999999744e+01,2.205287446464152673e-02
3.315999999999999659e+01,2.132986084801949747e-02
3.320000000000000284e+01,2.528596520395451352e-02
3.324000000000000199e+01,1.736229746500405138e-02
3.328000000000000114e+01,2.656160833039834801e-02
3.332000000000000028e+01,1.724811704087213932e-02
3.335999999999999943e+01,1.831119989918994148e-02
3.339999999999999858e+01,2.232840289920653282e-02
3.343999999999999773e+01,2.736671313709279282e-02
3.347999999999999687e+01,1.754701293717417232e-02
3.352000000000000313e+01,1.564314214875569750e-02
3.356000000000000227e+01,2.041757293543198723e-02
3.360000000000000142e+01,1.878927084426413457e-02
3.364000000000000057e+01,2.651053233065473261e-02
3.367999999999999972e+01,2.157558664574622115e-02
3.371999999999999886e+01,2.796814455301174784e-02
3.375999999999999801e+01,2.477864742108583720e-02
3.379999999999999716e+01,1.384521937455039306e-02
3.384000000000000341e+01,2.704224312935608193e-02
3.388000000000000256e+01,1.646810641852177598e-02
3.392000000000000171e+01,1.363702945243177797e-02
3.396000000000000085e+01,2.431161329348119002e-02
3.400000000000000000e+01,1.535690840290652136e-02
3.403999999999999915e+01,2.440989758571888296e-02
3.407999999999999829e+01,2.031652508376936145e-02
3.411999999999999744e+01,1.370158578459781777e-02
3.415999999999999659e+01,1.915166213697329714e-02
3.420000000000000284e+01,2.496147368332616093e-02
3.424000000000000199e+01,3.383224018873800393e-02
3.428000000000000114e+01,2.253348101751825525e-02
3.432000000000000028e+01,2.023836009387028345e-02
3.435999999999999943e+01,1.776273449918842548e-02
3.439999999999999858e+01,1.042449263444561805e-02
3.443999999999999773e+01,3.445991803687477491e-03
3.447999999999999687e+01,2.221868962267145586e-02
3.452000000000000313e+01,2.424341140791079138e-02
3.456000000000000227e+01,1.150105191335455343e-02
3.460000000000000142e+01,1.226436879929045966e-02
3.464000000000000057e+01,2.005043793886003220e-02
3.467999999999999972e+01,3.503934155818091978e-02
3.471999999999999886e+01,2.265548009622455478e-02
3.475999999999999801e+01,3.782363662518357927e-02
3.479999999999999716e+01,2.129707995273905433e-02
3.484000000000000341e+01,2.133758679810741563e-02
3.488000000000000256e+01,2.209800788970675903e-02
3.492000000000000171e+01,2.952102554271529566e-02
3.496000000000000085e+01,2.271721540762319802e-02
3.500000000000000000e+01,1.753372870268144618e-02
3.503999999999999915e+01,2.693641660161075202e-02
3.507999999999999829e+01,2.391309216027448156e-02
3.511999999999999744e+01,2.881293791650216263e-02
3.515999999999999659e+01,4.253636110754398236e-02
3.520000000000000284e+01,3.410938722803430467e-02
3.524000000000000199e+01,3.234501769661016907e-02
3.528000000000000114e+01,3.292130341981079622e-02
3.532000000000000028e+01,3.097605154582588893e-02
3.535999999999999943e+01,2.831007557582150558e-02
3.539999999999999858e+01,2.258232019695124299e-02
3.543999999999999773e+01,2.495782405510440366e-02
3.547999999999999687e+01,3.003415054012140151e-02
3.552000000000000313e+01,2.736658796391452236e-02
3.556000000000000227e+01,2.812017497237311037e-02
3.560000000000000142e+01,3.931808139737419383e-02
3.564000000000000057e+01,2.422373264449145802e-02
3.567999999999999972e+01,3.596109925808621544e-02
3.571999999999999886e+01,3.329157532415367299e-02
3.575999999999999801e+01,3.188223080816156296e-02
3.579999999999999716e+01,3.713550426693874862e-02
3.584000000000000341e+01,3.608554647343362176e-02
3.588000000000000256e+01,4.980186497660823997e-02
3.592000000000000171e+01,4.460926647934970735e-02
3.596000000000000085e+01,4.950083365307834243e-02
3.600000000000000000e+01,4.430746715941689257e-02
3.603999999999999915e+01,5.117916206402622209e-02
3.607999999999999829e+01,4.904641276461341182e-02
3.611999999999999744e+01,5.465677674334509101e-02
3.615999999999999659e+01,5.018221094802493426e-02
3.620000000000000284e+01,6.245482301667540370e-02
3.624000000000000199e+01,5.960023218001510303e-02
3.628000000000000114e+01,7.511355242904291241e-02
3.632000000000000028e+01,6.991715288315168697e-02
3.635999999999999943e+01,7.102322243314711236e-02
3.639999999999999858e+01,6.780696813815841051e-02
3.643999999999999773e+01,6.693139732449643331e-02
3.647999999999999687e+01,8.370341745206266726e-02
3.652000000000000313e+01,7.490352882623782516e-02
3.656000000000000227e+01,8.915367067180453298e-02
3.660000000000000142e+01,7.260954937993818747e-02
3.664000000000000057e+01,8.379757307849411418e-02
3.667999999999999972e+01,8.598116717304613021e-02
3.671999999999999886e+01,8.456277022042303637e-02
3.675999999999999801e+01,9.214807088877927099e-02
3.679999999999999716e+01,1.035147138207382495e-01
3.684000000000000341e+01,1.071374998115134508e-01
3.688000000000000256e+01,1.100395986929820491e-01
3.692000000000000171e+01,1.131214177023941031e-01
3.696000000000000085e+01,1.284484017495549080e-01
3.700000000000000000e+01,1.243262513179659301e-01
3.703999999999999915e+01,1.319090241124452056e-01
3.707999999999999829e+01,1.360698958725434227e-01
3.711999999999999744e+01,1.562576428721743904e-01
3.715999999999999659e+01,1.587970718142252824e-01
3.720000000000000284e+01,1.734015903812489157e-01
3.724000000000000199e+01,1.941285182047362001e-01
3.728000000000000114e+01,1.966668871322975742e-01
3.732000000000000028e+01,2.107301048464859106e-01
3.735999999999999943e+01,2.219116720979845137e-01
3.739999999999999858e+01,2.325526461463086891e-01
3.743999999999999773e+01,2.606611532431071243e-01
3.747999999999999687e+01,2.783246001803275638e-01
3.752000000000000313e+01,2.956275380871603575e-01
3.756000000000000227e+01,3.033858240449998633e-01
3.760000000000000142e+01,3.354547345504112488e-01
3.764000000000000057e+01,3.588794013174142483e-01
3.767999999999999972e+01,3.905874630809585413e-01
3.771999999999999886e+01,4.127508767888477537e-01
3.775999999999999801e+01,4.442781749566462879e-01
3.779999999999999716e+01,4.704026958294710847e-01
3.784000000000000341e+01,5.062512656144406709e-01
3.788000000000000256e+01,5.628088417046610559e-01
3.792000000000000171e+01,5.912734055692355772e-01
3.796000000000000085e+01,6.242396649352475180e-01
3.800000000000000000e+01,6.741332272180677876e-01
3.803999999999999915e+01,7.423947434132963652e-01
3.807999999999999829e+01,7.926478014320732512e-01
3.811999999999999744e+01,8.304749210840103313e-01
3.815999999999999659e+01,8.999960102743116419e-01
3.820000000000000284e+01,9.389029565133449884e-01
3.824000000000000199e+01,9.414331606853845180e-01
3.828000000000000114e+01,9.643122183904538902e-01
3.832000000000000028e+01,9.979958242043813765e-01
3.835999999999999943e+01,9.980039096630658468e-01
3.839999999999999858e+01,9.873868760960836655e-01
3.843999999999999773e+01,1.000000000000000000e+00
3.847999999999999687e+01,9.765965501824960260e-01
3.852000000000000313e+01,9.418476592481964671e-01
3.856000000000000227e+01,9.335703912548958261e-01
3.860000000000000142e+01,8.892765524601781157e-01
3.864000000000000057e+01,8.430015006133921851e-01
3.867999999999999972e+01,8.125732807134031788e-01
3.871999999999999886e+01,7.756618183884362860e-01
3.875999999999999801e+01,7.439723960427302440e-01
3.879999999999999716e+01,7.126428208244747209e-01
3.884000000000000341e+01,6.508791994810870785e-01
3.888000000000000256e+01,6.161274526237240368e-01
3.892000000000000171e+01,5.865977496389598311e-01
3.896000000000000085e+01,5.500445663108758376e-01
3.900000000000000000e+01,5.318593602552290633e-01
3.903999999999999915e+01,4.826998691827736332e-01
3.907999999999999829e+01,4.684758325854736505e-01
3.911999999999999744e+01,4.279596254903959007e-01
3.915999999999999659e+01,4.454292751733846534e-01
3.920000000000000284e+01,4.088742433766607287e-01
3.924000000000000199e+01,3.586327316969824541e-01
3.928000000000000114e+01,3.692583797599047757e-01
3.932000000000000028e+01,3.472890183443119172e-01
3.935999999999999943e+01,3.314421177719138467e-01
3.939999999999999858e+01,3.211774352576955982e-01
3.943999999999999773e+01,3.047896903440876493e-01
3.947999999999999687e+01,2.815585589932919075e-01
3.952000000000000313e+01,2.909218365381507909e-01
3.956000000000000227e+01,2.684104354556345329e-01
3.960000000000000142e+01,2.657076762678389215e-01
3.964000000000000057e+01,2.570619408001095230e-01
3.967999999999999972e+01,2.343695736505394256e-01
3.971999999999999886e+01,2.460724327911282261e-01
3.975999999999999801e+01,2.145554992456765175e-01
3.979999999999999716e+01,2.096903000673777384e-01
3.984000000000000341e+01,2.100471671483725988e-01
3.988000000000000256e+01,1.994187887115129176e-01
3.992000000000000171e+01,1.835677658191937345e-01
3.996000000000000085e+01,1.986904312541611650e-01
4.000000000000000000e+01,2.017473665745787570e-01
4.003999999999999915e+01,1.795926413006118938e-01
4.007999999999999829e+01,1.896721760434171844e-01
4.011999999999999744e+01,1.815632209970495792e-01
4.015999999999999659e+01,1.727336586548083863e-01
4.020000000000000284e+01,1.608424337038472096e-01
4.024000000000000199e+01,1.653383224180798861e-01
4.028000000000000114e+01,1.619103566451169929e-01
4.032000000000000028e+01,1.628040625475466185e-01
4.035999999999999943e+01,1.593755409651125832e-01
4.039999999999999858e+01,1.534256053989807300e-01
4.043999999999999773e+01,1.409924692612565811e-01
4.047999999999999687e+01,1.508891339705773493e-01
4.052000000000000313e+01,1.479997562075648643e-01
4.056000000000000227e+01,1.463706746626388389e-01
4.060000000000000142e+01,1.308750650753499334e-01
4.064000000000000057e+01,1.276247100725881878e-01
4.067999999999999972e+01,1.207724603827716459e-01
4.071999999999999886e+01,1.344492048521758742e-01
4.075999999999999801e+01,1.214736562249523338e-01
4.079999999999999716e+01,1.209234473283772870e-01
4.084000000000000341e+01,1.302774415968213084e-01
4.088000000000000256e+01,1.061360580828818317e-01
4.092000000000000171e+01,1.149492800368726309e-01
4.096000000000000085e+01,1.225016704033312920e-01
4.100000000000000000e+01,1.163676237135557873e-01
4.103999999999999915e+01,1.239194913639179441e-01
4.107999999999999829e+01,1.339922366551977162e-01
4.111999999999999744e+01,9.832408481484770923e-02
4.115999999999999659e+01,1.107373695162190419e-01
4.120000000000000284e+01,1.173877971504871526e-01
4.124000000000000199e+01,1.119725248435765319e-01
4.128000000000000114e+01,1.087179725386899221e-01
4.132000000000000028e+01,1.139269850565718389e-01
4.135999999999999943e+01,1.092312755866763491e-01
4.139999999999999858e+01,1.083170203138568571e-01
4.143999999999999773e+01,1.066821888918692562e-01
4.147999999999999687e+01,1.109897886470244677e-01
4.152000000000000313e+01,1.025113702632102081e-01
4.156000000000000227e+01,1.143818852258590979e-01
4.160000000000000142e+01,9.437777120119468510e-02
4.164000000000000057e+01,9.364210495296362846e-02
4.167999999999999972e+01,1.017301747930783040e-01
4.171999999999999886e+01,1.069367002639690784e-01
4.175999999999999801e+01,9.755640090806637355e-02
4.179999999999999716e+01,1.090652844969834667e-01
4.184000000000000341e+01,9.338165751095625633e-02
4.188000000000000256e+01,1.081315218139244777e-01
4.192000000000000171e+01,9.406814621356919537e-02
4.196000000000000085e+01,1.089976138266132849e-01
4.200000000000000000e+01,1.044780686277263781e-01
4.203999999999999915e+01,1.064412119910153193e-01
4.207999999999999829e+01,9.111631952243995358e-02
4.211999999999999744e+01,1.254936182306634618e-01
4.215999999999999659e+01,9.846297612182219883e-02
4.220000000000000284e+01,1.078085144304964521e-01
4.224000000000000199e+01,1.182343085845250080e-01
4.228000000000000114e+01,1.054293904315184022e-01
4.232000000000000028e+01,1.086514740515359956e-01
4.235999999999999943e+01,1.115131664146464391e-01
4.239999999999999858e+01,9.870756200761733601e-02
4.243999999999999773e+01,1.089521311521584879e-01
4.247999999999999687e+01,1.103724930789885400e-01
4.252000000000000313e+01,1.101718988727677373e-01
4.256000000000000227e+01,1.061893744734327683e-01
4.260000000000000142e+01,1.189541836715964640e-01
4.264000000000000057e+01,1.223545457870377495e-01
4.267999999999999972e+01,1.241339556627663321e-01
4.271999999999999886e+01,1.154684328857427666e-01
4.275999999999999801e+01,1.323742289859299870e-01
4.279999999999999716e+01,1.253290004212986308e-01
4.284000000000000341e+01,1.152221734880275184e-01
4.288000000000000256e+01,1.303265058464045667e-01
4.292000000000000171e+01,1.247212790100631075e-01
4.296000000000000085e+01,1.228975443308450988e-01
4.300000000000000000e+01,1.343996091795914560e-01
4.303999999999999915e+01,1.504034931432628175e-01
4.307999999999999829e+01,1.411957904859754698e-01
4.311999999999999744e+01,1.341488526041014206e-01
4.315999999999999659e+01,1.442094244519758484e-01
4.320000000000000284e+01,1.445454003382453945e-01
4.324000000000000199e+01,1.364173500057265509e-01
4.328000000000000114e+01,1.493585998841890083e-01
4.332000000000000028e+01,1.696829757354485491e-01
4.335999999999999943e+01,1.705583718681517869e-01
4.339999999999999858e+01,1.726941333256943878e-01
4.343999999999999773e+01,1.678065234533864802e-01
4.347999999999999687e+01,1.616581433136231316e-01
4.352000000000000313e+01,1.812611817972101247e-01
4.356000000000000227e+01,1.808750016705639729e-01
4.360000000000000142e+01,1.826495979993457697e-01
4.364000000000000057e+01,1.775809091177328325e-01
4.367999999999999972e+01,1.874587675858199465e-01
4.371999999999999886e+01,1.854510677122535867e-01
4.375999999999999801e+01,1.747992730204648015e-01
4.379999999999999716e+01,1.927802038098984094e-01
4.384000000000000341e+01,1.877105415051274206e-01
4.388000000000000256e+01,2.008288939668257111e-01
4.392000000000000171e+01,1.829730801585302824e-01
4.396000000000000085e+01,2.027540583639525495e-01
4.400000000000000000e+01,2.194734664274370639e-01
4.403999999999999915e+01,2.219662676497636267e-01
4.407999999999999829e+01,2.282405882825809251e-01
4.411999999999999744e+01,2.318135041990304068e-01
4.415999999999999659e+01,2.251216037555547889e-01
4.420000000000000284e+01,2.312152882817305466e-01
4.424000000000000199e+01,2.229022895806380133e-01
4.428000000000000114e+01,2.300760965876131048e-01
4.432000000000000028e+01,2.408513475923030611e-01
4.435999999999999943e+01,2.573890186014402559e-01
4.439999999999999858e+01,2.461939975706948502e-01
4.443999999999999773e+01,2.465239985801261913e-01
4.447999999999999687e+01,2.454131724026826222e-01
4.452000000000000313e+01,2.482639575951929856e-01
4.456000000000000227e+01,2.403096924027743053e-01
4.460000000000000142e+01,2.393784218242919482e-01
4.464000000000000057e+01,2.280022653131159316e-01
4.467999999999999972e+01,2.315726804850037068e-01
4.471999999999999886e+01,2.286599992320958175e-01
4.475999999999999801e+01,2.264674726390527304e-01
4.479999999999999716e+01,2.168914453039674228e-01
4.484000000000000341e+01,2.026331369919217029e-01
4.488000000000000256e+01,2.132258741326852058e-01
4.492000000000000171e+01,2.122932446373979598e-01
4.496000000000000085e+01,1.998352494793946277e-01
4.500000000000000000e+01,1.987222087354685307e-01
4.503999999999999915e+01,1.923866481229053460e-01
4.507999999999999829e+01,1.792078373399912106e-01
4.511999999999999744e+01,1.753930901105435480e-01
4.515999999999999659e+01,1.643749321518477857e-01
4.520000000000000284e+01,1.641614897155527497e-01
4.524000000000000199e+01,1.706108949609805581e-01
4.528000000000000114e+01,1.487873858215364997e-01
4.532000000000000028e+01,1.372283513661472221e-01
4.535999999999999943e+01,1.431370426794730533e-01
4.539999999999999858e+01,1.429228166202569927e-01
4.543999999999999773e+01,1.322637240950381432e-01
4.547999999999999687e+01,1.194435037051756326e-01
4.552000000000000313e+01,1.231906067134506677e-01
4.556000000000000227e+01,9.848472089741247548e-02
4.560000000000000142e+01,1.153774545630375653e-01
4.564000000000000057e+01,1.041773638565848259e-01
4.567999999999999972e+01,9.675883149400475725e-02
4.571999999999999886e+01,9.186128967915001275e-02
4.575999999999999801e+01,8.498270806577652714e-02
4.579999999999999716e+01,9.305072538883416011e-02
4.584000000000000341e+01,7.734787327328206119e-02
4.588000000000000256e+01,8.991763474678271528e-02
4.592000000000000171e+01,8.285839754235500842e-02
4.596000000000000085e+01,7.021650035041848703e-02
4.600000000000000000e+01,6.513787559747702405e-02
4.603999999999999915e+01,7.266479933479313980e-02
4.607999999999999829e+01,6.290378457369998066e-02
4.611999999999999744e+01,6.574832024953347620e-02
4.615999999999999659e+01,6.138946952948260566e-02
4.620000000000000284e+01,6.675487114849731896e-02
4.624000000000000199e+01,6.005469449315200409e-02
4.628000000000000114e+01,6.181820335405932565e-02
4.632000000000000028e+01,5.421735467902279865e-02
4.635999999999999943e+01,5.417978720299228279e-02
4.639999999999999858e+01,4.693883917108480214e-02
4.643999999999999773e+01,5.248353061556352422e-02
4.647999999999999687e+01,4.668297463682206938e-02
4.652000000000000313e+01,4.826562249764164425e-02
4.656000000000000227e+01,4.588635624601901386e-02
4.660000000000000142e+01,4.350696441651773910e-02
4.664000000000000057e+01,4.202785424638807998e-02
4.667999999999999972e+01,4.775187055637458017e-02
4.671999999999999886e+01,3.834893897470219998e-02
4.675999999999999801e+01,3.596905456703200499e-02
4.679999999999999716e+01,4.349351835122863136e-02
4.684000000000000341e+01,3.391014338315552490e-02
4.688000000000000256e+01,2.828843721177477094e-02
4.692000000000000171e+01,2.950970085495118259e-02
4.696000000000000085e+01,2.712922262459703873e-02
4.700000000000000000e+01,3.015106613320406997e-02
4.703999999999999915e+01,3.479352604566073731e-02
4.707999999999999829e+01,3.349319071840976131e-02
4.711999999999999744e+01,2.012729853015881795e-02
4.715999999999999659e+01,2.909136973582247473e-02
4.720000000000000284e+01,2.418907349932390011e-02
4.724000000000000199e+01,2.937121741415537821e-02
4.728000000000000114e+01,2.104715833905993622e-02
4.732000000000000028e+01,2.478843514257834599e-02
4.735999999999999943e+01,2.402757354199597586e-02
4.739999999999999858e+01,1.552311196055090881e-02
4.743999999999999773e+01,1.962423293607265876e-02
4.747999999999999687e+01,2.966793108891948791e-02
4.752000000000000313e+01,2.224364453061768859e-02
4.756000000000000227e+01,3.516843731896136804e-02
4.760000000000000142e+01,2.072077843975272254e-02
4.764000000000000057e+01,2.013927575366565581e-02
4.767999999999999972e+01,2.297921757261245368e-02
4.771999999999999886e+01,3.734426124516907614e-02
4.775999999999999801e+01,3.550189481606624148e-02
4.779999999999999716e+01,2.303463809491599831e-02
4.784000000000000341e+01,1.903110485006577826e-02
4.788000000000000256e+01,1.340674589899425347e-02
4.792000000000000171e+01,1.552578735975928929e-02
4.796000000000000085e+01,2.268701141394837903e-02
4.800000000000000000e+01,2.606643764852206724e-02
4.803999999999999915e+01,3.232707338979125961e-02
4.807999999999999829e+01,1.517705670475170097e-02
4.811999999999999744e+01,2.413873308210193538e-02
4.815999999999999659e+01,2.193528416906618747e-02
4.820000000000000284e+01,1.360898601690702266e-02
4.824000000000000199e+01,8.884227249248595470e-03
4.828000000000000114e+01,2.018661528146215717e-02
4.832000000000000028e+01,1.167998178303721740e-02
4.835999999999999943e+01,1.037651564477946528e-02
4.839999999999999858e+01,1.987784289568629917e-02
4.843999999999999773e+01,1.947462043903102832e-02
4.847999999999999687e+01,2.609448700976342572e-02
4.852000000000000313e+01,2.587118711691623052e-02
4.856000000000000227e+01,1.790431546990829334e-02
4.860000000000000142e+01,1.786094203420738463e-02
4.864000000000000057e+01,2.141911771635270773e-02
4.867999999999999972e+01,2.641786845628107949e-02
4.871999999999999886e+01,2.133199504920608308e-02
4.875999999999999801e+01,1.894726741606527279e-02
4.879999999999999716e+01,1.025962389103608589e-02
4.884000000000000341e+01,1.057597193402010256e-02
4.888000000000000256e+01,1.809549999052046179e-02
4.892000000000000171e+01,1.517024626112387260e-02
4.896000000000000085e+01,2.322988080035870082e-02
4.900000000000000000e+01,1.472197290573888651e-02
4.903999999999999915e+01,1.431765518188931122e-02
4.907999999999999829e+01,2.165676609657822896e-02
4.911999999999999744e+01,1.927142510317553237e-02
4.915999999999999659e+01,1.148358324181117558e-02
4.920000000000000284e+01,1.287982296125408065e-02
4.924000000000000199e+01,2.039876393752539790e-02
4.928000000000000114e+01,9.549356765452531384e-03
4.932000000000000028e+01,2.373118433910703304e-02
4.935999999999999943e+01,6.578815510700254665e-03
4.939999999999999858e+01,8.154839527279982361e-03
4.943999999999999773e+01,1.081129458943293035e-02
4.947999999999999687e+01,2.031078175955419729e-02
4.952000000000000313e+01,2.260696429389332657e-02
4.956000000000000227e+01,2.166163072701392592e-02
4.960000000000000142e+01,6.849988118045221598e-03
4.964000000000000057e+01,2.157161936105886704e-02
4.967999999999999972e+01,5.499305747036987296e-03
4.971999999999999886e+01,7.975311511894898550e-03
4.975999999999999801e+01,9.550862328387902181e-03
4.979999999999999716e+01,1.742920928117614940e-02
4.984000000000000341e+01,1.900466564877435413e-02
4.988000000000000256e+01,1.877926372409556566e-02
4.992000000000000171e+01,1.999446703057090186e-02
4.996000000000000085e+01,1.850840772752264385e-02
5.000000000000000000e+01,1.882311810786386347e-02
5.003999999999999915e+01,1.643656782535059604e-02
5.007999999999999829e+01,1.963249548134187936e-02
5.011999999999999744e+01,1.688570187105123757e-02
5.015999999999999659e+01,1.557951933192200031e-02
5.020000000000000284e+01,1.607411134285496521e-02
5.024000000000000199e+01,2.179102268006445631e-02
5.028000000000000114e+01,2.030464787484816472e-02
5.032000000000000028e+01,1.917840051743266438e-02
5.035999999999999943e+01,2.525536918691182256e-02
5.039999999999999858e+01,1.962702331439038564e-02
5.043999999999999773e+01,1.579945783193846889e-02
5.047999999999999687e+01,1.233202369062547966e-02
5.052000000000000313e+01,1.894910951407566616e-02
5.056000000000000227e+01,1.296047842494770300e-02
5.060000000000000142e+01,1.021328164149256680e-02
5.064000000000000057e+01,2.583434537082879290e-02
5.067999999999999972e+01,2.470782629357821600e-02
5.071999999999999886e+01,2.322111938634138090e-02
5.075999999999999801e+01,1.777260056678993047e-02
5.079999999999999716e+01,1.718625219463235099e-02
5.084000000000000341e+01,1.912101895702239193e-02
5.088000000000000256e+01,1.187162039639034009e-02
5.092000000000000171e+01,1.164537023655355316e-02
5.096000000000000085e+01,2.240405701207565797e-02
5.100000000000000000e+01,1.839606254830194326e-02
5.103999999999999915e+01,2.087097564697769012e-02
5.107999999999999829e+01,1.218083450868959368e-02
5.111999999999999744e+01,1.051384663786949017e-02
5.115999999999999659e+01,1.803098804124957100e-02
5.120000000000000284e+01,1.474324063323573242e-02
5.124000000000000199e+01,1.775832440156092235e-02
5.128000000000000114e+01,1.699169016370387364e-02
5.132000000000000028e+01,1.154293262908331202e-02
5.135999999999999943e+01,1.437790297141999622e-02
5.139999999999999858e+01,1.127018319418034500e-02
5.143999999999999773e+01,9.423024382024530396e-03
5.147999999999999687e+01,1.910105891692614327e-02
5.152000000000000313e+01,1.815429367989339002e-02
5.156000000000000227e+01,2.297012364752664543e-02
5.160000000000000142e+01,2.112294335112376714e-02
5.164000000000000057e+01,1.531397255576635169e-02
5.167999999999999972e+01,1.040540605993376874e-02
5.171999999999999886e+01,1.324033244272000871e-02
5.175999999999999801e+01,1.301387751047105613e-02
5.179999999999999716e+01,1.152685476435294162e-02
5.184000000000000341e+01,1.886381533355607765e-02
5.188000000000000256e+01,1.881744744093232641e-02
5.192000000000000171e+01,2.147230221567212813e-02
5.196000000000000085e+01,2.124586179483266626e-02
5.200000000000000000e+01,1.669747712948342275e-02
5.203999999999999915e+01,1.971251187664608759e-02
5.207999999999999829e+01,1.534422302865467644e-02
5.211999999999999744e+01,1.007553665903677259e-02
5.215999999999999659e+01,9.669053830187394893e-03
5.220000000000000284e+01,2.240851314346558112e-02
5.224000000000000199e+01,1.047685248774635029e-02
5.228000000000000114e+01,1.115089216247434553e-02
5.232000000000000028e+01,2.640801554224051981e-03
5.235999999999999943e+01,2.402421349027170777e-02
5.239999999999999858e+01,1.353325923933444176e-02
5.243999999999999773e+01,1.744882174001401165e-02
5.247999999999999687e+01,1.740261418176464875e-02
5.252000000000000313e+01,1.465520630740285019e-02
5.256000000000000227e+01,1.604968669602250750e-02
5.260000000000000142e+01,1.114134365953601408e-02
5.264000000000000057e+01,1.883870971350778620e-02
5.267999999999999972e+01,2.113366055295814311e-02
5.271999999999999886e+01,1.964692842627000294e-02
5.275999999999999801e+01,6.454939184319622748e-03
5.279999999999999716e+01,1.181134426800941120e-02
5.284000000000000341e+01,1.662753185566079317e-02
5.288000000000000256e+01,1.352017155649958349e-02
5.292000000000000171e+01,1.887665834712624197e-02
5.296000000000000085e+01,9.106349086283702099e-03
5.300000000000000000e+01,1.572346398435632217e-02
5.303999999999999915e+01,1.207597860277374348e-02
5.307999999999999829e+01,2.301510679894397740e-02
5.311999999999999744e+01,2.422988042047746760e-02
5.315999999999999659e+01,1.644062545184143270e-02
5.320000000000000284e+01,1.801563065025070520e-02
5.324000000000000199e+01,1.130693421629208779e-02
5.328000000000000114e+01,2.296656253520500124e-02
5.332000000000000028e+01,1.265631595690037796e-02
5.335999999999999943e+01,1.207049594454556382e-02
5.339999999999999858e+01,1.400585336014951478e-02
5.343999999999999773e+01,2.998758935516781729e-02
5.347999999999999687e+01,2.417953559908989775e-02
5.352000000000000313e+01,1.693087462974523366e-02
5.356000000000000227e+01,2.120745762085464101e-02
5.360000000000000142e+01,1.900116026743842862e-02
5.364000000000000057e+01,2.183718372095226276e-02
5.367999999999999972e+01,2.071146631557356857e-02
5.371999999999999886e+01,1.958579658586610470e-02
5.375999999999999801e+01,2.620366937483942921e-02
5.379999999999999716e+01,1.715452279401968871e-02
5.384000000000000341e+01,1.999078949256211796e-02
5.388000000000000256e+01,1.328280136260737848e-02
5.392000000000000171e+01,1.846022845868391243e-02
5.396000000000000085e+01,2.021616526755923293e-02
5.400000000000000000e+01,1.909085652091730215e-02
5.403999999999999915e+01,1.454405943374320088e-02
5.407999999999999829e+01,1.756073139914317641e-02
5.411999999999999744e+01,2.273843580695755415e-02
5.415999999999999659e+01,1.765156718848403736e-02
5.420000000000000284e+01,2.445012060938360487e-02
5.424000000000000199e+01,1.486491757362071522e-02
5.428000000000000114e+01,1.968857102629622408e-02
5.432000000000000028e+01,1.930468108922909001e-02
5.435999999999999943e+01,1.228552502668020172e-02
5.439999999999999858e+01,2.594186020651894492e-02
5.443999999999999773e+01,1.882724504059213322e-02
5.447999999999999687e+01,1.700543336117778942e-02
5.452000000000000313e+01,1.666091450704506108e-02
5.456000000000000227e+01,2.310397557231696000e-02
5.460000000000000142e+01,1.813232859758328805e-02
5.464000000000000057e+01,1.779514602052204367e-02
5.467999999999999972e+01,1.138267035639849156e-02
5.471999999999999886e+01,1.505773631873525212e-02
5.475999999999999801e+01,1.179550840245544366e-02
5.479999999999999716e+01,1.772132964198699923e-02
5.484000000000000341e+01,1.874308986208071334e-02
5.488000000000000256e+01,6.818620826256746245e-03
5.492000000000000171e+01,1.665163928830388010e-02
5.496000000000000085e+01,1.151971428290822150e-02
5.500000000000000000e+01,1.863124322821275991e-02
5.503999999999999915e+01,1.835617112185158883e-02
5.507999999999999829e+01,1.352064059271050958e-02
5.511999999999999744e+01,1.709510631966874514e-02
5.515999999999999659e+01,1.801337621558941546e-02
5.520000000000000284e+01,1.780171149763270025e-02
5.524000000000000199e+01,2.352605016155711118e-02
5.528000000000000114e+01,1.816822222800681952e-02
5.532000000000000028e+01,1.285289209733397886e-02
5.535999999999999943e+01,1.726305942012594172e-02
5.539999999999999858e+01,1.753826659224645007e-02
5.543999999999999773e+01,1.684223194006939997e-02
5.547999999999999687e+01,1.629927867755572718e-02
5.552000000000000313e+01,2.016137742913606118e-02
5.556000000000000227e+01,2.324714036036944903e-02
5.560000000000000142e+01,2.178585115695791732e-02
5.564000000000000057e+01,1.487689668418693684e-02
5.567999999999999972e+01,1.501383290784390027e-02
5.571999999999999886e+01,1.910387257348151666e-02
5.575999999999999801e+01,1.800864941816979550e-02
5.579999999999999716e+01,2.364091276519651383e-02
5.584000000000000341e+01,1.962595489993133532e-02
5.588000000000000256e+01,2.804861145577912038e-02
5.592000000000000171e+01,2.044413772299873491e-02
5.596000000000000085e+01,3.030764769258901051e-02
5.600000000000000000e+01,3.350825446494351545e-02
5.603999999999999915e+01,2.644433395773399670e-02
5.607999999999999829e+01,2.946506870878998208e-02
5.611999999999999744e+01,3.086517826054179653e-02
5.615999999999999659e+01,3.172515110302288194e-02
5.620000000000000284e+01,3.006409442895325787e-02
5.624000000000000199e+01,2.480152169496854450e-02
5.628000000000000114e+01,2.458133400799410520e-02
5.632000000000000028e+01,1.787833216324344332e-02
5.635999999999999943e+01,2.558194245689555946e-02
5.639999999999999858e+01,2.698282179222365879e-02
5.643999999999999773e+01,3.630739011243046960e-02
5.647999999999999687e+01,3.806866065150050354e-02
5.652000000000000313e+01,3.424752816338270944e-02
5.656000000000000227e+01,3.258748749108680148e-02
5.660000000000000142e+01,2.912675204671824614e-02
5.664000000000000057e+01,2.386532280361150851e-02
5.667999999999999972e+01,3.553165102454787505e-02
5.671999999999999886e+01,3.369200596251097773e-02
5.675999999999999801e+01,2.320858241598029031e-02
5.679999999999999716e+01,2.569113169226719395e-02
5.684000000000000341e+01,3.015469834493465784e-02
5.688000000000000256e+01,2.543424567476254561e-02
5.692000000000000171e+01,3.241919997792965663e-02
5.696000000000000085e+01,3.040021815770940078e-02
5.700000000000000000e+01,3.090250136555736105e-02
5.703999999999999915e+01,3.536670059707316266e-02
5.707999999999999829e+01,3.028672286685575588e-02
5.711999999999999744e+01,3.907313201004811859e-02
5.715999999999999659e+01,3.885560989652589448e-02
5.720000000000000284e+01,2.477196367447867184e-02
5.724000000000000199e+01,2.815633230150770341e-02
5.728000000000000114e+01,2.739896641697053478e-02
5.732000000000000028e+01,3.024336086387679687e-02
5.735999999999999943e+01,2.894602274588596591e-02
5.739999999999999858e+01,3.719312824785134253e-02
5.743999999999999773e+01,3.859728433984159490e-02
5.747999999999999687e+01,3.351865450075754843e-02
5.752000000000000313e+01,3.510317115710313157e-02
5.756000000000000227e+01,3.290612262079063016e-02
5.760000000000000142e+01,3.737222252657679961e-02
5.764000000000000057e+01,3.175391533896406576e-02
5.767999999999999972e+01,3.622030234299885437e-02
5.771999999999999886e+01,3.384374675040030533e-02
5.775999999999999801e+01,2.750554957903328379e-02
5.779999999999999716e+01,3.593416209167912129e-02
5.784000000000000341e+01,3.355804736646617742e-02
5.788000000000000256e+01,3.064183778536810204e-02
5.792000000000000171e+01,3.799040948870799350e-02
5.796000000000000085e+01,3.849604443542185839e-02
5.800000000000000000e+01,3.702093742398911147e-02
5.803999999999999915e+01,3.392525193331060590e-02
5.807999999999999829e+01,4.289516414823965618e-02
5.811999999999999744e+01,3.979978716916980630e-02
5.815999999999999659e+01,2.860090953066471431e-02
5.820000000000000284e+01,4.027250768475933163e-02
5.824000000000000199e+01,4.456093213722033680e-02
5.828000000000000114e+01,4.002553383911720830e-02
5.832000000000000028e+01,3.080818257779678257e-02
5.835999999999999943e+01,3.599749212160652939e-02
5.839999999999999858e+01,4.190728823236228306e-02
5.843999999999999773e+01,3.917334673867523681e-02
5.847999999999999687e+01,3.499891872520562858e-02
5.852000000000000313e+01,3.910839281557760422e-02
5.856000000000000227e+01,3.511437597985982845e-02
5.860000000000000142e+01,3.652296315012257960e-02
5.864000000000000057e+01,4.207358653021822659e-02
5.867999999999999972e+01,3.375812181516726906e-02
5.871999999999999886e+01,4.471152049040234139e-02
5.875999999999999801e+01,4.017810174211158131e-02
5.879999999999999716e+01,4.122737311925715048e-02
5.884000000000000341e+01,3.381299787808856455e-02
5.888000000000000256e+01,4.026505233704992526e-02
5.892000000000000171e+01,4.095468091611329658e-02
5.896000000000000085e+01,4.290505344715580399e-02
5.900000000000000000e+01,5.061820222309056094e-02
5.903999999999999915e+01,4.428519041110644955e-02
5.907999999999999829e+01,3.957308797667143802e-02
5.911999999999999744e+01,3.468108336528864799e-02
5.915999999999999659e+01,4.095429647563047365e-02
5.920000000000000284e+01,4.236549678333187408e-02
5.924000000000000199e+01,3.873460400894433026e-02
5.928000000000000114e+01,5.293193822926129527e-02
5.932000000000000028e+01,4.515954355254308411e-02
5.935999999999999943e+01,5.071334649761994467e-02
5.939999999999999858e+01,4.546246016488553199e-02
5.943999999999999773e+01,4.435362950867508675e-02
5.947999999999999687e+01,4.900758677737141605e-02
5.952000000000000313e+01,4.375726395217586356e-02
5.956000000000000227e+01,4.625062477917068343e-02
5.960000000000000142e+01,4.262141376738867032e-02
5.964000000000000057e+01,4.853670088229763285e-02
5.967999999999999972e+01,4.742901184118304692e-02
5.971999999999999886e+01,4.416054144252433422e-02
5.975999999999999801e+01,4.521421575984916480e-02
5.979999999999999716e+01,4.608800444691352888e-02
5.984000000000000341e+01,5.218434606054619257e-02
5.988000000000000256e+01,4.639552255968334288e-02
5.992000000000000171e+01,4.042681634856364059e-02
5.996000000000000085e+01,3.607904092835306081e-02
