5.0400,0.075
5.0800,0.149
5.1200,0.203
5.1600,0.151
5.2000,0.503
5.2400,0.316
5.2800,0.334
5.3200,0.297
5.3600,0.542
5.4000,0.337
5.4400,0.483
5.4800,0.152
5.5200,0.318
5.5600,0.236
5.6000,0.345
5.6400,0.322
5.6800,0.085
5.7200,0.258
5.7600,0.133
5.8000,0.344
5.8400,0.165
5.8800,0.000
5.9200,0.023
5.9600,0.088
6.0000,-0.222
6.0400,-0.097
6.0800,-0.125
6.1200,-0.004
6.1600,-0.070
6.2000,-0.172
6.2400,0.072
6.2800,0.020
6.3200,0.095
6.3600,0.042
6.4000,-0.120
6.4400,-0.060
6.4800,-0.360
6.5200,0.108
6.5600,-0.096
6.6000,0.043
6.6400,-0.113
6.6800,-0.117
6.7200,0.209
6.7600,0.083
6.8000,-0.111
6.8400,0.035
6.8800,-0.060
6.9200,-0.112
6.9600,0.006
7.0000,-0.111
7.0400,-0.117
7.0800,0.098
7.1200,0.221
7.1600,-0.034
7.2000,0.024
7.2400,0.044
7.2800,0.041
7.3200,0.020
7.3600,-0.001
7.4000,0.267
7.4400,-0.022
7.4800,0.162
7.5200,0.056
7.5600,0.020
7.6000,-0.158
7.6400,0.007
7.6800,0.024
7.7200,-0.105
7.7600,-0.034
7.8000,0.035
7.8400,0.022
7.8800,-0.153
7.9200,0.055
7.9600,-0.085
8.0000,-0.064
8.0400,0.001
8.0800,-0.059
8.1200,0.103
8.1600,0.034
8.2000,-0.001
8.2400,-0.088
8.2800,0.070
8.3200,0.157
8.3600,0.013
8.4000,0.035
8.4400,-0.088
8.4800,-0.099
8.5200,-0.028
8.5600,-0.018
8.6000,-0.170
8.6400,0.212
8.6800,0.003
8.7200,-0.011
8.7600,-0.039
8.8000,-0.086
8.8400,0.088
8.8800,0.216
8.9200,0.246
8.9600,0.166
9.0000,0.013
9.0400,-0.041
9.0800,0.035
9.1200,0.110
9.1600,0.046
9.2000,-0.157
9.2400,-0.046
9.2800,-0.064
9.3200,-0.049
9.3600,-0.078
9.4000,0.081
9.4400,0.001
9.4800,-0.099
9.5200,-0.007
9.5600,-0.098
9.6000,0.009
9.6400,-0.003
9.6800,0.004
9.7200,0.033
9.7600,-0.073
9.8000,0.047
9.8400,-0.137
9.8800,0.091
9.9200,0.028
9.9600,0.117
10.0000,-0.038
10.0400,-0.026
10.0800,0.036
10.1200,-0.096
10.1600,-0.064
10.2000,-0.001
10.2400,-0.078
10.2800,-0.017
10.3200,-0.123
10.3600,0.093
10.4000,-0.036
10.4400,0.110
10.4800,-0.169
10.5200,-0.054
10.5600,-0.095
10.6000,-0.030
10.6400,-0.094
10.6800,-0.071
10.7200,0.046
10.7600,-0.047
10.8000,-0.047
10.8400,0.215
10.8800,-0.093
10.9200,0.098
10.9600,-0.084
11.0000,-0.051
11.0400,-0.092
11.0800,-0.058
11.1200,-0.011
11.1600,-0.036
11.2000,0.043
11.2400,-0.147
11.2800,0.060
11.3200,-0.024
11.3600,-0.082
11.4000,0.116
11.4400,0.109
11.4800,-0.144
11.5200,-0.093
11.5600,-0.007
11.6000,0.038
11.6400,-0.003
11.6800,-0.080
11.7200,-0.082
11.7600,-0.081
11.8000,0.023
11.8400,0.088
11.8800,0.192
11.9200,0.076
11.9600,0.074
12.0000,-0.101
12.0400,-0.073
12.0800,0.026
12.1200,0.123
12.1600,0.009
12.2000,0.040
12.2400,0.021
12.2800,0.046
12.3200,0.031
12.3600,0.035
12.4000,-0.070
12.4400,0.017
12.4800,0.120
12.5200,-0.042
12.5600,0.145
12.6000,-0.061
12.6400,0.023
12.6800,-0.091
12.7200,-0.153
12.7600,0.130
12.8000,0.092
12.8400,-0.094
12.8800,-0.037
12.9200,0.048
12.9600,0.001
13.0000,-0.003
13.0400,0.044
13.0800,0.044
13.1200,0.121
13.1600,-0.026
13.2000,0.029
13.2400,0.003
13.2800,-0.028
13.3200,0.108
13.3600,-0.083
13.4000,0.016
13.4400,-0.112
13.4800,0.035
13.5200,0.087
13.5600,0.010
13.6000,-0.091
13.6400,-0.146
13.6800,0.227
13.7200,0.000
13.7600,0.039
13.8000,-0.041
13.8400,-0.029
13.8800,-0.041
13.9200,0.031
13.9600,-0.037
14.0000,0.096
14.0400,0.154
14.0800,0.099
14.1200,-0.151
14.1600,-0.074
14.2000,0.005
14.2400,0.012
14.2800,0.017
14.3200,-0.053
14.3600,0.051
14.4000,-0.104
14.4400,-0.049
14.4800,-0.033
14.5200,0.005
14.5600,0.005
14.6000,0.045
14.6400,-0.146
14.6800,-0.048
14.7200,0.100
14.7600,-0.017
14.8000,0.102
14.8400,-0.041
14.8800,0.036
14.9200,-0.059
14.9600,0.068
15.0000,0.068
15.0400,-0.109
15.0800,0.062
15.1200,-0.007
15.1600,-0.220
15.2000,0.115
15.2400,0.011
15.2800,-0.146
15.3200,-0.012
15.3600,0.001
15.4000,0.097
15.4400,-0.074
15.4800,-0.102
15.5200,0.074
15.5600,0.161
15.6000,-0.013
15.6400,-0.074
15.6800,-0.089
15.7200,0.126
15.7600,0.074
15.8000,-0.057
15.8400,-0.088
15.8800,-0.044
15.9200,-0.088
15.9600,0.069
16.0000,-0.057
16.0400,-0.068
16.0800,0.093
16.1200,-0.061
16.1600,-0.065
16.2000,0.066
16.2400,0.175
16.2800,0.045
16.3200,-0.014
16.3600,-0.088
16.4000,-0.079
16.4400,-0.050
16.4800,0.137
16.5200,0.035
16.5600,-0.038
16.6000,-0.029
16.6400,0.056
16.6800,-0.075
16.7200,-0.009
16.7600,-0.087
16.8000,-0.048
16.8400,-0.005
16.8800,0.081
16.9200,-0.108
16.9600,-0.033
17.0000,-0.047
17.0400,-0.013
17.0800,-0.084
17.1200,-0.257
17.1600,0.087
17.2000,-0.095
17.2400,0.037
17.2800,-0.057
17.3200,0.084
17.3600,0.044
17.4000,-0.198
17.4400,-0.020
17.4800,-0.150
17.5200,0.092
17.5600,0.167
17.6000,-0.026
17.6400,0.126
17.6800,-0.038
17.7200,-0.052
17.7600,-0.080
17.8000,-0.017
17.8400,0.059
17.8800,0.004
17.9200,0.070
17.9600,-0.135
18.0000,-0.078
18.0400,0.023
18.0800,0.048
18.1200,0.022
18.1600,0.078
18.2000,-0.230
18.2400,0.196
18.2800,-0.069
18.3200,0.009
18.3600,-0.143
18.4000,0.041
18.4400,0.050
18.4800,0.109
18.5200,-0.006
18.5600,0.085
18.6000,0.119
18.6400,-0.043
18.6800,0.106
18.7200,0.153
18.7600,-0.076
18.8000,0.080
18.8400,0.018
18.8800,-0.057
18.9200,0.239
18.9600,0.061
19.0000,-0.178
19.0400,0.046
19.0800,-0.048
19.1200,0.091
19.1600,0.109
19.2000,0.051
19.2400,0.004
19.2800,0.083
19.3200,0.186
19.3600,0.058
19.4000,0.099
19.4400,-0.088
19.4800,-0.107
19.5200,0.087
19.5600,-0.074
19.6000,0.091
19.6400,0.024
19.6800,-0.076
19.7200,0.207
19.7600,0.079
19.8000,-0.066
19.8400,0.290
19.8800,0.125
19.9200,0.004
19.9600,0.013
20.0000,0.045
20.0400,0.028
20.0800,0.038
20.1200,0.109
20.1600,0.075
20.2000,0.175
20.2400,-0.018
20.2800,0.078
20.3200,0.122
20.3600,0.048
20.4000,0.080
20.4400,-0.018
20.4800,0.115
20.5200,-0.028
20.5600,-0.081
20.6000,-0.062
20.6400,-0.064
20.6800,-0.033
20.7200,-0.007
20.7600,0.055
20.8000,0.119
20.8400,-0.095
20.8800,0.085
20.9200,0.052
20.9600,0.063
21.0000,0.041
21.0400,-0.033
21.0800,0.173
21.1200,0.087
21.1600,-0.029
21.2000,-0.073
21.2400,0.033
21.2800,-0.102
21.3200,-0.040
21.3600,-0.015
21.4000,0.004
21.4400,0.020
21.4800,-0.032
21.5200,0.080
21.5600,-0.104
21.6000,0.139
21.6400,-0.014
21.6800,0.019
21.7200,0.093
21.7600,-0.012
21.8000,-0.038
21.8400,0.097
21.8800,0.088
21.9200,0.073
21.9600,-0.052
22.0000,0.061
22.0400,0.044
22.0800,0.175
22.1200,-0.001
22.1600,-0.079
22.2000,-0.034
22.2400,-0.038
22.2800,-0.010
22.3200,-0.026
22.3600,-0.012
22.4000,-0.061
22.4400,-0.077
22.4800,0.011
22.5200,0.059
22.5600,0.020
22.6000,0.133
22.6400,0.069
22.6800,-0.035
22.7200,0.118
22.7600,0.149
22.8000,0.286
22.8400,-0.085
22.8800,-0.077
22.9200,0.069
22.9600,0.083
23.0000,0.050
23.0400,0.024
23.0800,0.055
23.1200,0.023
23.1600,0.044
23.2000,-0.002
23.2400,0.033
23.2800,0.086
23.3200,-0.030
23.3600,0.035
23.4000,0.029
23.4400,0.092
23.4800,0.010
23.5200,0.013
23.5600,0.046
23.6000,-0.002
23.6400,0.074
23.6800,0.015
23.7200,-0.019
23.7600,-0.141
23.8000,0.021
23.8400,-0.008
23.8800,0.153
23.9200,0.101
23.9600,0.015
24.0000,0.071
24.0400,0.047
24.0800,0.041
24.1200,0.046
24.1600,-0.007
24.2000,0.075
24.2400,0.031
24.2800,0.033
24.3200,0.023
24.3600,0.044
24.4000,-0.040
24.4400,0.009
24.4800,-0.075
24.5200,-0.027
24.5600,-0.013
24.6000,0.009
24.6400,0.073
24.6800,0.142
24.7200,0.044
24.7600,-0.075
24.8000,-0.052
24.8400,-0.005
24.8800,0.051
24.9200,0.110
24.9600,0.026
25.0000,0.120
25.0400,0.088
25.0800,-0.078
25.1200,0.030
25.1600,0.035
25.2000,-0.086
25.2400,0.125
25.2800,-0.021
25.3200,0.121
25.3600,-0.003
25.4000,-0.066
25.4400,0.054
25.4800,-0.076
25.5200,-0.024
25.5600,-0.054
25.6000,0.222
25.6400,-0.006
25.6800,-0.040
25.7200,0.061
25.7600,0.050
25.8000,-0.065
25.8400,-0.075
25.8800,0.031
25.9200,-0.017
25.9600,0.022
26.0000,0.105
26.0400,-0.002
26.0800,-0.240
26.1200,0.007
26.1600,-0.121
26.2000,0.022
26.2400,-0.112
26.2800,0.054
26.3200,-0.005
26.3600,-0.216
26.4000,0.004
26.4400,0.007
26.4800,-0.063
26.5200,-0.023
26.5600,0.021
26.6000,-0.034
26.6400,0.091
26.6800,-0.047
26.7200,0.062
26.7600,0.030
26.8000,-0.102
26.8400,-0.030
26.8800,-0.068
26.9200,0.024
26.9600,0.042
27.0000,-0.060
27.0400,0.056
27.0800,-0.121
27.1200,0.113
27.1600,0.048
27.2000,0.005
27.2400,0.023
27.2800,0.004
27.3200,-0.018
27.3600,-0.131
27.4000,0.014
27.4400,-0.034
27.4800,0.074
27.5200,0.086
27.5600,-0.013
27.6000,-0.004
27.6400,-0.062
27.6800,-0.082
27.7200,0.064
27.7600,0.063
27.8000,-0.023
27.8400,-0.022
27.8800,0.021
27.9200,-0.030
27.9600,0.007
28.0000,0.051
28.0400,0.029
28.0800,0.034
28.1200,-0.059
28.1600,0.004
28.2000,0.084
28.2400,-0.099
28.2800,-0.084
28.3200,0.106
28.3600,-0.004
28.4000,-0.048
28.4400,0.018
28.4800,0.064
28.5200,-0.054
28.5600,-0.070
28.6000,-0.070
28.6400,0.000
28.6800,0.116
28.7200,0.097
28.7600,0.007
28.8000,0.037
28.8400,-0.010
28.8800,-0.099
28.9200,0.012
28.9600,0.053
29.0000,-0.068
29.0400,0.133
29.0800,0.104
29.1200,0.173
29.1600,0.075
29.2000,0.044
29.2400,-0.104
29.2800,-0.047
29.3200,0.021
29.3600,-0.053
29.4000,0.112
29.4400,0.015
29.4800,0.072
29.5200,0.077
29.5600,0.081
29.6000,0.046
29.6400,0.021
29.6800,-0.069
29.7200,-0.028
29.7600,-0.016
29.8000,0.169
29.8400,0.009
29.8800,-0.039
29.9200,-0.069
29.9600,0.018
30.0000,0.004
30.0400,0.067
30.0800,-0.075
30.1200,-0.024
30.1600,0.077
30.2000,0.232
30.2400,0.027
30.2800,0.122
30.3200,-0.008
30.3600,-0.068
30.4000,-0.037
30.4400,0.082
30.4800,-0.003
30.5200,-0.038
30.5600,0.067
30.6000,0.167
30.6400,-0.114
30.6800,0.100
30.7200,0.061
30.7600,0.025
30.8000,0.058
30.8400,-0.041
30.8800,-0.067
30.9200,-0.013
30.9600,-0.022
31.0000,-0.019
31.0400,0.163
31.0800,-0.025
31.1200,0.124
31.1600,0.077
31.2000,0.073
31.2400,0.044
31.2800,0.065
31.3200,0.099
31.3600,-0.096
31.4000,-0.004
31.4400,0.039
31.4800,-0.114
31.5200,-0.039
31.5600,0.034
31.6000,-0.006
31.6400,0.060
31.6800,-0.097
31.7200,-0.051
31.7600,0.005
31.8000,-0.018
31.8400,0.050
31.8800,-0.051
31.9200,0.030
31.9600,-0.069
32.0000,-0.027
32.0400,-0.109
32.0800,0.051
32.1200,0.091
32.1600,0.057
32.2000,-0.037
32.2400,-0.018
32.2800,-0.033
32.3200,0.041
32.3600,-0.043
32.4000,-0.066
32.4400,0.018
32.4800,0.018
32.5200,-0.036
32.5600,0.025
32.6000,-0.047
32.6400,0.173
32.6800,-0.094
32.7200,-0.027
32.7600,-0.045
32.8000,-0.087
32.8400,0.051
32.8800,0.105
32.9200,0.022
32.9600,-0.038
33.0000,0.059
33.0400,-0.017
33.0800,-0.064
33.1200,0.019
33.1600,0.035
33.2000,0.036
33.2400,-0.085
33.2800,-0.035
33.3200,0.152
33.3600,0.033
33.4000,0.061
33.4400,-0.066
33.4800,-0.002
33.5200,0.050
33.5600,-0.025
33.6000,-0.007
33.6400,-0.029
33.6800,0.042
33.7200,0.017
33.7600,-0.050
33.8000,-0.053
33.8400,0.014
33.8800,0.059
33.9200,-0.034
33.9600,-0.063
34.0000,0.009
34.0400,0.040
34.0800,0.004
34.1200,0.073
34.1600,-0.031
34.2000,-0.035
34.2400,-0.025
34.2800,0.040
34.3200,0.078
34.3600,-0.014
34.4000,-0.063
34.4400,0.020
34.4800,0.108
34.5200,-0.053
34.5600,-0.058
34.6000,0.060
34.6400,-0.019
34.6800,0.119
34.7200,0.191
34.7600,-0.028
34.8000,-0.047
34.8400,-0.022
34.8800,-0.024
34.9200,-0.072
34.9600,0.021
35.0000,0.030
35.0400,0.091
35.0800,0.154
35.1200,0.019
35.1600,-0.073
35.2000,0.036
35.2400,0.061
35.2800,0.044
35.3200,-0.057
35.3600,-0.043
35.4000,-0.063
35.4400,0.028
35.4800,-0.041
35.5200,0.019
35.5600,-0.051
35.6000,-0.054
35.6400,-0.056
35.6800,0.032
35.7200,0.005
35.7600,-0.036
35.8000,0.007
35.8400,0.137
35.8800,-0.039
35.9200,0.053
35.9600,0.099
36.0000,-0.020
36.0400,0.001
36.0800,-0.026
36.1200,0.074
36.1600,0.143
36.2000,0.036
36.2400,0.043
36.2800,0.029
36.3200,-0.065
36.3600,-0.034
36.4000,0.070
36.4400,0.035
36.4800,0.074
36.5200,0.025
36.5600,-0.065
36.6000,-0.055
36.6400,-0.016
36.6800,-0.023
36.7200,0.020
36.7600,-0.144
36.8000,-0.021
36.8400,-0.002
36.8800,0.017
36.9200,-0.066
36.9600,-0.020
37.0000,-0.063
37.0400,0.045
37.0800,-0.001
37.1200,-0.002
37.1600,0.131
37.2000,0.137
37.2400,0.142
37.2800,0.153
37.3200,0.100
37.3600,0.163
37.4000,0.246
37.4400,0.327
37.4800,0.186
37.5200,0.529
37.5600,0.474
37.6000,0.455
37.6400,0.635
37.6800,0.659
37.7200,0.910
37.7600,1.270
37.8000,1.515
37.8400,1.804
37.8800,2.491
37.9200,3.076
37.9600,4.017
38.0000,5.620
38.0400,8.010
38.0800,11.446
38.1200,16.331
38.1600,22.383
38.2000,26.716
38.2400,28.159
38.2800,26.254
38.3200,21.899
38.3600,16.989
38.4000,12.190
38.4400,8.760
38.4800,6.235
38.5200,4.714
38.5600,3.597
38.6000,2.831
38.6400,2.180
38.6800,1.902
38.7200,1.452
38.7600,1.266
38.8000,0.973
38.8400,0.834
38.8800,0.749
38.9200,0.650
38.9600,0.506
39.0000,0.208
39.0400,0.277
39.0800,0.311
39.1200,0.198
39.1600,0.173
39.2000,0.115
39.2400,0.235
39.2800,0.071
39.3200,0.039
39.3600,0.079
39.4000,0.099
39.4400,0.025
39.4800,0.019
39.5200,-0.033
39.5600,0.105
39.6000,0.085
39.6400,0.034
39.6800,-0.042
39.7200,0.022
39.7600,0.088
39.8000,-0.027
39.8400,0.034
39.8800,-0.032
39.9200,0.035
39.9600,-0.077
40.0000,-0.035
40.0400,0.033
40.0800,0.027
40.1200,-0.020
40.1600,-0.059
40.2000,0.003
40.2400,0.118
40.2800,0.028
40.3200,0.009
40.3600,-0.011
40.4000,-0.070
40.4400,0.013
40.4800,0.003
40.5200,0.044
40.5600,0.087
40.6000,0.025
40.6400,0.081
40.6800,0.022
40.7200,-0.038
40.7600,0.086
40.8000,0.005
40.8400,-0.015
40.8800,0.048
40.9200,-0.118
40.9600,0.016
41.0000,-0.014
41.0400,0.044
41.0800,-0.123
41.1200,-0.046
41.1600,0.070
41.2000,0.082
41.2400,-0.043
41.2800,0.086
41.3200,0.030
41.3600,0.029
41.4000,0.076
41.4400,0.100
41.4800,0.104
41.5200,0.135
41.5600,-0.008
41.6000,-0.071
41.6400,0.006
41.6800,0.079
41.7200,0.060
41.7600,-0.023
41.8000,-0.001
41.8400,-0.056
41.8800,-0.007
41.9200,-0.004
41.9600,0.071
42.0000,0.030
42.0400,-0.096
42.0800,0.007
42.1200,0.129
42.1600,0.159
42.2000,-0.046
42.2400,0.012
42.2800,0.039
42.3200,0.066
42.3600,0.026
42.4000,-0.030
42.4400,-0.059
42.4800,0.020
42.5200,0.029
42.5600,0.043
42.6000,-0.039
42.6400,0.028
42.6800,0.043
42.7200,0.042
42.7600,-0.052
42.8000,-0.019
42.8400,-0.039
42.8800,0.025
42.9200,-0.135
42.9600,-0.025
43.0000,0.017
43.0400,-0.004
43.0800,-0.051
43.1200,0.003
43.1600,-0.018
43.2000,0.016
43.2400,0.030
43.2800,-0.011
43.3200,-0.015
43.3600,-0.016
43.4000,-0.004
43.4400,-0.002
43.4800,-0.019
43.5200,-0.005
43.5600,-0.003
43.6000,-0.016
43.6400,0.192
43.6800,0.144
43.7200,0.306
43.7600,0.362
43.8000,0.482
43.8400,0.342
43.8800,0.429
43.9200,0.509
43.9600,0.741
44.0000,0.704
44.0400,0.901
44.0800,1.219
44.1200,1.441
44.1600,1.853
44.2000,2.285
44.2400,2.695
44.2800,3.611
44.3200,4.275
44.3600,4.752
44.4000,5.330
44.4400,5.456
44.4800,5.550
44.5200,5.478
44.5600,4.597
44.6000,4.012
44.6400,3.424
44.6800,2.773
44.7200,2.211
44.7600,1.824
44.8000,1.481
44.8400,1.195
44.8800,0.937
44.9200,0.743
44.9600,0.646
45.0000,0.553
45.0400,0.398
45.0800,0.400
45.1200,0.155
45.1600,0.233
45.2000,0.185
45.2400,0.050
45.2800,0.039
45.3200,-0.006
45.3600,0.112
45.4000,0.077
45.4400,-0.019
45.4800,0.064
45.5200,-0.030
45.5600,0.037
45.6000,0.052
45.6400,0.018
45.6800,-0.041
45.7200,-0.053
45.7600,-0.023
45.8000,0.153
45.8400,0.071
45.8800,-0.033
45.9200,-0.008
45.9600,-0.052
46.0000,0.005
46.0400,-0.047
46.0800,0.095
46.1200,0.050
46.1600,-0.016
46.2000,0.069
46.2400,0.048
46.2800,0.012
46.3200,-0.034
46.3600,-0.050
46.4000,-0.002
46.4400,0.019
46.4800,-0.023
46.5200,0.111
46.5600,-0.006
46.6000,0.021
46.6400,0.062
46.6800,0.024
46.7200,-0.092
46.7600,-0.030
46.8000,0.000
46.8400,0.023
46.8800,0.095
46.9200,0.036
46.9600,0.101
47.0000,0.063
47.0400,-0.051
47.0800,0.008
47.1200,-0.082
47.1600,-0.003
47.2000,-0.054
47.2400,0.095
47.2800,-0.014
47.3200,0.036
47.3600,0.021
47.4000,-0.081
47.4400,-0.005
47.4800,-0.059
47.5200,0.024
47.5600,-0.104
47.6000,0.093
47.6400,-0.031
47.6800,-0.049
47.7200,-0.036
47.7600,-0.007
47.8000,0.088
47.8400,0.011
47.8800,-0.137
47.9200,-0.014
47.9600,-0.064
48.0000,0.153
48.0400,0.020
48.0800,-0.044
48.1200,-0.032
48.1600,0.035
48.2000,0.038
48.2400,0.031
48.2800,0.028
48.3200,0.125
48.3600,-0.041
48.4000,0.052
48.4400,-0.018
48.4800,-0.008
48.5200,-0.035
48.5600,-0.048
48.6000,-0.040
48.6400,0.004
48.6800,0.033
48.7200,0.073
48.7600,0.048
48.8000,0.070
48.8400,-0.011
48.8800,-0.048
48.9200,-0.038
48.9600,0.004
49.0000,-0.041
49.0400,-0.007
49.0800,0.019
49.1200,0.005
49.1600,-0.028
49.2000,-0.022
49.2400,-0.019
49.2800,-0.028
49.3200,-0.047
49.3600,-0.036
49.4000,-0.023
49.4400,-0.012
49.4800,0.010
49.5200,-0.042
49.5600,-0.029
49.6000,-0.026
49.6400,0.069
49.6800,-0.039
49.7200,-0.034
49.7600,-0.008
49.8000,0.029
49.8400,-0.014
49.8800,-0.045
49.9200,-0.047
49.9600,0.005
50.0000,-0.044
50.0400,0.003
50.0800,0.013
50.1200,-0.031
50.1600,0.041
50.2000,-0.107
50.2400,-0.039
50.2800,0.015
50.3200,-0.028
50.3600,-0.065
50.4000,0.056
50.4400,-0.056
50.4800,-0.011
50.5200,0.034
50.5600,-0.012
50.6000,0.030
50.6400,0.007
50.6800,-0.046
50.7200,-0.007
50.7600,0.045
50.8000,0.004
50.8400,0.022
50.8800,0.067
50.9200,0.001
50.9600,0.005
51.0000,-0.005
51.0400,0.033
51.0800,-0.025
51.1200,-0.066
51.1600,0.025
51.2000,0.015
51.2400,-0.017
51.2800,-0.045
51.3200,-0.025
51.3600,0.016
51.4000,0.018
51.4400,-0.027
51.4800,-0.003
51.5200,0.022
51.5600,-0.017
51.6000,0.083
51.6400,-0.053
51.6800,-0.040
51.7200,-0.023
51.7600,-0.003
51.8000,-0.060
51.8400,0.006
51.8800,-0.004
51.9200,-0.014
51.9600,-0.014
52.0000,0.037
52.0400,0.046
52.0800,-0.057
52.1200,0.023
52.1600,0.037
52.2000,0.083
52.2400,0.004
52.2800,0.021
52.3200,-0.044
52.3600,-0.029
52.4000,0.048
52.4400,0.052
52.4800,0.040
52.5200,-0.008
52.5600,0.088
52.6000,0.122
52.6400,0.038
52.6800,0.009
52.7200,-0.056
52.7600,-0.010
52.8000,0.042
52.8400,0.034
52.8800,-0.118
52.9200,0.045
52.9600,0.024
53.0000,0.024
53.0400,0.000
53.0800,-0.078
53.1200,0.002
53.1600,0.014
53.2000,0.064
53.2400,-0.050
53.2800,-0.044
53.3200,0.021
53.3600,0.020
53.4000,-0.011
53.4400,-0.017
53.4800,-0.078
53.5200,0.047
53.5600,-0.076
53.6000,-0.044
53.6400,-0.018
53.6800,0.054
53.7200,0.050
53.7600,-0.010
53.8000,-0.012
53.8400,-0.022
53.8800,-0.014
53.9200,-0.012
53.9600,0.034
54.0000,-0.009
54.0400,0.037
54.0800,0.084
54.1200,0.046
54.1600,0.009
54.2000,-0.066
54.2400,-0.002
54.2800,-0.043
54.3200,-0.035
54.3600,-0.008
54.4000,-0.025
54.4400,-0.019
54.4800,-0.039
54.5200,0.007
54.5600,0.050
54.6000,-0.048
54.6400,0.009
54.6800,0.015
54.7200,0.039
54.7600,0.020
54.8000,-0.023
54.8400,0.039
54.8800,-0.001
54.9200,-0.057
54.9600,-0.003
55.0000,0.003
55.0400,0.083
55.0800,0.015
55.1200,0.088
55.1600,-0.007
55.2000,0.013
55.2400,0.004
55.2800,0.037
55.3200,0.040
55.3600,0.058
55.4000,-0.012
55.4400,0.043
55.4800,-0.034
55.5200,-0.030
55.5600,0.012
55.6000,-0.042
55.6400,-0.037
55.6800,-0.046
55.7200,0.075
55.7600,0.049
55.8000,-0.034
55.8400,-0.034
55.8800,-0.001
55.9200,-0.032
55.9600,-0.007
56.0000,-0.020
56.0400,-0.085
56.0800,0.021
56.1200,-0.020
56.1600,-0.049
56.2000,0.053
56.2400,0.050
56.2800,-0.025
56.3200,0.050
56.3600,0.067
56.4000,0.024
56.4400,-0.034
56.4800,0.034
56.5200,0.103
56.5600,-0.077
56.6000,0.003
56.6400,-0.076
56.6800,-0.005
56.7200,-0.026
56.7600,0.014
56.8000,-0.024
56.8400,0.009
56.8800,0.026
56.9200,-0.019
56.9600,-0.065
57.0000,0.048
57.0400,0.000
57.0800,0.014
57.1200,0.036
57.1600,-0.014
57.2000,-0.001
57.2400,0.021
57.2800,0.092
57.3200,0.005
57.3600,-0.030
57.4000,-0.041
57.4400,-0.022
57.4800,-0.027
57.5200,-0.041
57.5600,-0.015
57.6000,-0.046
57.6400,0.017
57.6800,0.097
57.7200,0.013
57.7600,0.006
57.8000,0.095
57.8400,0.023
57.8800,0.044
57.9200,0.019
57.9600,-0.004
58.0000,0.008
58.0400,-0.041
58.0800,-0.014
58.1200,0.063
58.1600,-0.005
58.2000,-0.035
58.2400,0.020
58.2800,-0.017
58.3200,-0.010
58.3600,0.033
58.4000,0.015
58.4400,-0.001
58.4800,-0.059
58.5200,0.001
58.5600,-0.002
58.6000,-0.005
58.6400,0.022
58.6800,0.013
58.7200,0.026
58.7600,0.035
58.8000,-0.040
58.8400,0.053
58.8800,0.020
58.9200,0.040
58.9600,0.046
59.0000,0.008
59.0400,-0.030
59.0800,0.014
59.1200,-0.030
59.1600,-0.041
59.2000,-0.026
59.2400,-0.026
59.2800,-0.068
59.3200,0.027
59.3600,0.012
59.4000,-0.010
59.4400,-0.072
59.4800,0.020
59.5200,0.012
59.5600,0.018
59.6000,-0.025
59.6400,0.004
59.6800,-0.040
59.7200,-0.010
59.7600,0.101
59.8000,-0.002
59.8400,0.086
59.8800,0.059
59.9200,-0.001
59.9600,-0.104
60.0000,0.022
60.0400,0.052
60.0800,-0.109
60.1200,-0.037
60.1600,-0.009
60.2000,0.021
60.2400,-0.033
60.2800,0.016
60.3200,0.037
60.3600,0.007
60.4000,-0.020
60.4400,-0.014
60.4800,-0.041
60.5200,-0.008
60.5600,0.030
60.6000,-0.073
60.6400,0.039
60.6800,-0.061
60.7200,-0.040
60.7600,-0.016
60.8000,0.050
60.8400,-0.061
60.8800,-0.008
60.9200,0.008
60.9600,-0.031
61.0000,0.000
61.0400,-0.026
61.0800,0.004
61.1200,-0.090
61.1600,0.010
61.2000,-0.027
61.2400,-0.040
61.2800,0.000
61.3200,0.000
61.3600,-0.024
61.4000,-0.120
61.4400,0.049
61.4800,-0.020
61.5200,-0.055
61.5600,0.034
61.6000,-0.016
61.6400,0.080
61.6800,0.080
61.7200,0.057
61.7600,0.085
61.8000,-0.076
61.8400,-0.038
61.8800,-0.015
61.9200,-0.060
61.9600,0.011
62.0000,0.018
62.0400,0.015
62.0800,0.064
62.1200,0.023
62.1600,-0.024
62.2000,-0.019
62.2400,-0.017
62.2800,-0.046
62.3200,0.069
62.3600,-0.004
62.4000,0.046
62.4400,-0.017
62.4800,0.007
62.5200,-0.060
62.5600,-0.001
62.6000,-0.031
62.6400,-0.039
62.6800,-0.027
62.7200,-0.005
62.7600,0.019
62.8000,-0.010
62.8400,-0.002
62.8800,0.015
62.9200,0.018
62.9600,0.050
63.0000,-0.063
63.0400,-0.009
63.0800,0.074
63.1200,0.066
63.1600,-0.006
63.2000,-0.066
63.2400,-0.001
63.2800,0.021
63.3200,-0.003
63.3600,0.027
63.4000,0.084
63.4400,-0.010
63.4800,-0.003
63.5200,-0.037
63.5600,-0.040
63.6000,0.001
63.6400,-0.001
63.6800,-0.043
63.7200,-0.036
63.7600,-0.025
63.8000,0.066
63.8400,0.114
63.8800,0.033
63.9200,0.017
63.9600,0.061
64.0000,0.108
64.0400,0.145
64.0800,0.130
64.1200,0.095
64.1600,0.108
64.2000,0.307
64.2400,0.365
64.2800,0.373
64.3200,0.546
64.3600,0.799
64.4000,0.960
64.4400,1.298
64.4800,1.546
64.5200,1.958
64.5600,2.440
64.6000,3.250
64.6400,3.145
64.6800,3.063
64.7200,2.986
64.7600,2.685
64.8000,2.451
64.8400,2.041
64.8800,1.798
64.9200,1.462
64.9600,1.142
65.0000,0.789
65.0400,0.771
65.0800,0.438
65.1200,0.419
65.1600,0.327
65.2000,0.221
65.2400,0.210
65.2800,0.133
65.3200,0.117
65.3600,0.038
65.4000,-0.042
65.4400,0.118
65.4800,-0.010
65.5200,0.026
65.5600,0.007
65.6000,-0.013
65.6400,-0.002
65.6800,-0.038
65.7200,-0.043
65.7600,-0.027
65.8000,-0.019
65.8400,-0.046
65.8800,-0.029
65.9200,0.013
65.9600,0.034
66.0000,0.015
66.0400,-0.017
66.0800,-0.030
66.1200,0.004
66.1600,-0.031
66.2000,0.001
66.2400,0.002
66.2800,0.007
66.3200,0.010
66.3600,-0.013
66.4000,-0.097
66.4400,0.003
66.4800,0.109
66.5200,0.006
66.5600,-0.057
66.6000,0.000
66.6400,0.052
66.6800,-0.023
66.7200,0.029
66.7600,-0.009
66.8000,-0.046
66.8400,-0.047
66.8800,-0.015
66.9200,0.031
66.9600,0.062
67.0000,-0.010
67.0400,0.051
67.0800,0.019
67.1200,-0.076
67.1600,0.042
67.2000,0.007
67.2400,-0.033
67.2800,0.025
67.3200,-0.051
67.3600,-0.049
67.4000,0.047
67.4400,-0.036
67.4800,0.045
67.5200,0.036
67.5600,0.051
67.6000,0.002
67.6400,0.032
67.6800,0.103
67.7200,0.011
67.7600,0.108
67.8000,-0.053
67.8400,0.127
67.8800,0.112
67.9200,0.130
67.9600,0.096
68.0000,0.154
68.0400,0.258
68.0800,0.256
68.1200,0.178
68.1600,0.331
68.2000,0.396
68.2400,0.373
68.2800,0.391
68.3200,0.451
68.3600,0.554
68.4000,0.670
68.4400,0.626
68.4800,0.806
68.5200,0.812
68.5600,0.866
68.6000,1.082
68.6400,1.310
68.6800,1.658
68.7200,2.255
68.7600,3.318
68.8000,4.159
68.8400,5.004
68.8800,4.894
68.9200,5.228
68.9600,7.294
69.0000,11.771
69.0400,23.429
69.0800,84.535
69.1200,317.844
69.1600,380.791
69.2000,150.089
69.2400,44.772
69.2800,62.785
69.3200,171.902
69.3600,190.060
69.4000,73.298
69.4400,19.731
69.4800,9.705
69.5200,6.288
69.5600,4.499
69.6000,3.640
69.6400,2.743
69.6800,2.226
69.7200,1.980
69.7600,1.751
69.8000,1.532
69.8400,1.356
69.8800,1.193
69.9200,0.991
69.9600,1.006
70.0000,0.759
70.0400,0.715
70.0800,0.759
70.1200,0.554
70.1600,0.531
70.2000,0.668
70.2400,0.418
70.2800,0.477
70.3200,0.361
70.3600,0.395
70.4000,0.366
70.4400,0.308
70.4800,0.231
70.5200,0.214
70.5600,0.209
70.6000,0.255
70.6400,0.188
70.6800,0.118
70.7200,0.074
70.7600,0.062
70.8000,-0.001
70.8400,0.062
70.8800,0.027
70.9200,-0.034
70.9600,0.066
71.0000,-0.042
71.0400,0.026
71.0800,0.004
71.1200,-0.014
71.1600,-0.024
71.2000,-0.020
71.2400,0.059
71.2800,-0.002
71.3200,-0.072
71.3600,0.015
71.4000,0.077
71.4400,-0.052
71.4800,-0.017
71.5200,-0.077
71.5600,0.013
71.6000,-0.052
71.6400,-0.016
71.6800,-0.008
71.7200,0.052
71.7600,-0.065
71.8000,0.073
71.8400,0.035
71.8800,-0.058
71.9200,-0.026
71.9600,0.035
72.0000,-0.036
72.0400,-0.042
72.0800,-0.003
72.1200,-0.037
72.1600,0.021
72.2000,-0.039
72.2400,-0.013
72.2800,0.042
72.3200,-0.015
72.3600,-0.038
72.4000,-0.041
72.4400,-0.032
72.4800,-0.027
72.5200,-0.015
72.5600,-0.040
72.6000,-0.009
72.6400,-0.008
72.6800,0.018
72.7200,0.011
72.7600,0.006
72.8000,0.041
72.8400,0.042
72.8800,0.010
72.9200,0.023
72.9600,-0.056
73.0000,0.015
73.0400,-0.057
73.0800,-0.021
73.1200,-0.011
73.1600,0.014
73.2000,-0.091
73.2400,-0.012
73.2800,0.051
73.3200,0.020
73.3600,0.076
73.4000,-0.028
73.4400,-0.036
73.4800,0.026
73.5200,0.082
73.5600,0.005
73.6000,-0.036
73.6400,-0.008
73.6800,-0.001
73.7200,-0.002
73.7600,-0.014
73.8000,0.001
73.8400,-0.041
73.8800,0.001
73.9200,0.043
73.9600,0.063
74.0000,0.019
74.0400,0.001
74.0800,0.006
74.1200,0.003
74.1600,0.040
74.2000,0.015
74.2400,0.069
74.2800,0.031
74.3200,0.000
74.3600,0.018
74.4000,-0.034
74.4400,-0.027
74.4800,0.069
74.5200,0.080
74.5600,0.040
74.6000,0.014
74.6400,0.028
74.6800,0.065
74.7200,0.101
74.7600,-0.057
74.8000,0.023
74.8400,0.021
74.8800,0.000
74.9200,-0.044
74.9600,0.016
75.0000,-0.043
75.0400,0.027
75.0800,0.006
75.1200,-0.021
75.1600,0.002
75.2000,-0.014
75.2400,-0.034
75.2800,-0.025
75.3200,0.059
75.3600,0.060
75.4000,-0.024
75.4400,-0.030
75.4800,0.062
75.5200,0.002
75.5600,-0.007
75.6000,0.017
75.6400,-0.029
75.6800,-0.020
75.7200,-0.035
75.7600,-0.025
75.8000,0.030
75.8400,0.005
75.8800,0.009
75.9200,0.018
75.9600,0.020
76.0000,-0.045
76.0400,-0.020
76.0800,0.016
76.1200,-0.033
76.1600,-0.019
76.2000,0.084
76.2400,0.097
76.2800,0.073
76.3200,0.005
76.3600,-0.058
76.4000,-0.009
76.4400,0.032
76.4800,-0.038
76.5200,-0.035
76.5600,0.083
76.6000,0.080
76.6400,0.000
76.6800,0.103
76.7200,0.009
76.7600,-0.007
76.8000,0.108
76.8400,0.009
76.8800,0.096
76.9200,0.049
76.9600,0.064
77.0000,0.132
77.0400,0.091
77.0800,0.215
77.1200,0.293
77.1600,0.250
77.2000,0.314
77.2400,0.375
77.2800,0.510
77.3200,0.616
77.3600,0.736
77.4000,0.874
77.4400,1.214
77.4800,1.502
77.5200,1.744
77.5600,2.269
77.6000,2.556
77.6400,2.586
77.6800,2.408
77.7200,2.356
77.7600,2.250
77.8000,2.114
77.8400,1.890
77.8800,1.869
77.9200,1.395
77.9600,1.302
78.0000,0.905
78.0400,0.919
78.0800,0.683
78.1200,0.507
78.1600,0.406
78.2000,0.297
78.2400,0.218
78.2800,0.189
78.3200,0.096
78.3600,0.077
78.4000,0.138
78.4400,0.010
78.4800,0.042
78.5200,0.038
78.5600,0.006
78.6000,0.008
78.6400,0.052
78.6800,-0.045
78.7200,0.007
78.7600,0.010
78.8000,0.015
78.8400,-0.043
78.8800,-0.020
78.9200,0.043
78.9600,0.006
79.0000,0.007
79.0400,0.001
79.0800,-0.034
79.1200,-0.034
79.1600,-0.002
79.2000,-0.018
79.2400,0.007
79.2800,-0.044
79.3200,0.002
79.3600,-0.006
79.4000,-0.024
79.4400,0.018
79.4800,-0.008
79.5200,0.025
79.5600,-0.048
79.6000,-0.028
79.6400,-0.017
79.6800,0.011
79.7200,-0.019
79.7600,-0.003
79.8000,-0.031
79.8400,0.001
79.8800,-0.014
79.9200,-0.007
79.9600,-0.020
80.0000,-0.014
80.0400,0.006
80.0800,-0.032
80.1200,-0.042
80.1600,0.050
80.2000,-0.055
80.2400,-0.010
80.2800,0.021
80.3200,-0.036
80.3600,-0.018
80.4000,-0.036
80.4400,0.015
80.4800,-0.019
80.5200,-0.024
80.5600,-0.027
80.6000,0.016
80.6400,-0.024
80.6800,0.047
80.7200,-0.042
80.7600,-0.012
80.8000,0.045
80.8400,0.034
80.8800,-0.047
80.9200,-0.010
80.9600,-0.033
81.0000,-0.008
81.0400,0.057
81.0800,-0.058
81.1200,-0.033
81.1600,-0.012
81.2000,-0.004
81.2400,0.033
81.2800,0.051
81.3200,0.000
81.3600,0.093
81.4000,0.092
81.4400,0.073
81.4800,0.133
81.5200,0.246
81.5600,0.272
81.6000,0.359
81.6400,0.514
81.6800,0.725
81.7200,0.824
81.7600,0.794
81.8000,0.852
81.8400,0.808
81.8800,0.736
81.9200,0.687
81.9600,0.484
82.0000,0.573
82.0400,0.412
82.0800,0.349
82.1200,0.303
82.1600,0.304
82.2000,0.222
82.2400,0.137
82.2800,0.149
82.3200,0.078
82.3600,-0.025
82.4000,0.033
82.4400,0.047
82.4800,-0.032
82.5200,-0.011
82.5600,-0.002
82.6000,0.003
82.6400,0.013
82.6800,-0.010
82.7200,-0.004
82.7600,-0.043
82.8000,-0.002
82.8400,0.016
82.8800,0.007
82.9200,0.045
82.9600,0.041
83.0000,-0.001
83.0400,-0.020
83.0800,-0.008
83.1200,-0.030
83.1600,0.009
83.2000,0.041
83.2400,0.014
83.2800,0.036
83.3200,0.015
83.3600,-0.004
83.4000,0.006
83.4400,0.027
83.4800,-0.004
83.5200,0.009
83.5600,-0.050
83.6000,-0.011
83.6400,-0.007
83.6800,0.047
83.7200,0.025
83.7600,0.005
83.8000,-0.001
83.8400,-0.029
83.8800,-0.009
83.9200,0.044
83.9600,-0.007
84.0000,0.013
84.0400,0.015
84.0800,-0.001
84.1200,0.009
84.1600,-0.005
84.2000,-0.042
84.2400,0.011
84.2800,-0.023
84.3200,-0.065
84.3600,0.025
84.4000,-0.014
84.4400,-0.017
84.4800,0.012
84.5200,0.000
84.5600,-0.014
84.6000,0.021
84.6400,-0.013
84.6800,-0.029
84.7200,-0.004
84.7600,0.022
84.8000,-0.046
84.8400,-0.020
84.8800,0.039
84.9200,-0.006
84.9600,0.006
85.0000,0.006
85.0400,-0.015
85.0800,0.015
85.1200,-0.036
85.1600,-0.013
85.2000,-0.028
85.2400,-0.002
85.2800,0.024
85.3200,-0.023
85.3600,-0.007
85.4000,0.045
85.4400,0.086
85.4800,0.027
85.5200,-0.046
85.5600,-0.007
85.6000,-0.029
85.6400,-0.015
85.6800,-0.004
85.7200,0.056
85.7600,0.013
85.8000,0.004
85.8400,0.017
85.8800,-0.034
85.9200,-0.018
85.9600,0.018
86.0000,0.016
86.0400,0.020
86.0800,-0.005
86.1200,-0.010
86.1600,0.001
86.2000,0.025
86.2400,-0.007
86.2800,0.057
86.3200,0.012
86.3600,0.012
86.4000,0.026
86.4400,-0.015
86.4800,-0.012
86.5200,-0.014
86.5600,0.003
86.6000,-0.011
86.6400,-0.047
86.6800,0.011
86.7200,0.041
86.7600,-0.006
86.8000,-0.029
86.8400,0.005
86.8800,-0.006
86.9200,0.016
86.9600,0.054
87.0000,0.021
87.0400,0.051
87.0800,0.006
87.1200,0.017
87.1600,0.000
87.2000,0.013
87.2400,-0.043
87.2800,0.011
87.3200,0.031
87.3600,0.007
87.4000,-0.017
87.4400,-0.027
87.4800,-0.027
87.5200,0.011
87.5600,-0.078
87.6000,0.002
87.6400,0.010
87.6800,0.004
87.7200,0.033
87.7600,0.009
87.8000,-0.007
87.8400,-0.027
87.8800,-0.018
87.9200,0.029
87.9600,-0.001
88.0000,-0.023
88.0400,-0.010
88.0800,0.044
88.1200,-0.002
88.1600,0.067
88.2000,0.011
88.2400,0.020
88.2800,0.011
88.3200,0.005
88.3600,-0.015
88.4000,0.037
88.4400,0.012
88.4800,0.003
88.5200,-0.026
88.5600,-0.026
88.6000,0.015
88.6400,0.036
88.6800,0.030
88.7200,-0.022
88.7600,0.008
88.8000,-0.017
88.8400,0.033
88.8800,0.036
88.9200,0.023
88.9600,-0.011
89.0000,0.006
89.0400,0.007
89.0800,-0.004
89.1200,-0.013
89.1600,0.022
89.2000,0.026
89.2400,0.006
89.2800,-0.020
89.3200,-0.027
89.3600,-0.032
89.4000,0.035
89.4400,-0.012
89.4800,-0.011
89.5200,0.051
89.5600,0.000
89.6000,-0.010
89.6400,-0.024
89.6800,-0.027
89.7200,-0.011
89.7600,-0.021
89.8000,0.004
89.8400,-0.036
89.8800,0.003
89.9200,0.004
89.9600,0.019
90.0000,0.000
