2.003999999999999915e+01,5.769760654216306989e-02
2.007999999999999829e+01,6.574421669152978598e-02
2.012000000000000099e+01,2.507011164541979656e-02
2.016000000000000014e+01,5.362835281436219986e-02
2.019999999999999929e+01,3.439831613978160813e-02
2.023999999999999844e+01,4.920119671502658221e-02
2.028000000000000114e+01,5.980714993445438582e-02
2.032000000000000028e+01,3.684446616050299911e-02
2.035999999999999943e+01,3.486060913742978357e-02
2.039999999999999858e+01,4.989273005716820392e-02
2.044000000000000128e+01,1.806901466963036634e-02
2.048000000000000043e+01,5.104858638170101104e-02
2.051999999999999957e+01,4.812843818127146567e-02
2.055999999999999872e+01,3.401810549906349873e-02
2.060000000000000142e+01,3.808930006478867397e-02
2.064000000000000057e+01,5.218321440128921573e-02
2.067999999999999972e+01,4.319839783181163989e-02
2.071999999999999886e+01,3.444573289738026706e-02
2.076000000000000156e+01,5.832734592205000151e-02
2.080000000000000071e+01,3.815043783351102641e-02
2.083999999999999986e+01,3.568884563945518007e-02
2.087999999999999901e+01,5.327365853545200369e-02
2.092000000000000171e+01,4.824596443181848604e-02
2.096000000000000085e+01,3.016322578755864167e-02
2.100000000000000000e+01,4.634653308349546280e-02
2.103999999999999915e+01,4.504573044691527473e-02
2.107999999999999829e+01,2.672703655379183099e-02
2.112000000000000099e+01,3.684667136535204474e-02
2.116000000000000014e+01,3.950587842544801831e-02
2.119999999999999929e+01,3.330600589045763088e-02
2.123999999999999844e+01,4.482145971069843859e-02
2.128000000000000114e+01,5.074135943729542186e-02
2.132000000000000028e+01,4.174135351834366153e-02
2.135999999999999943e+01,3.110864545203922971e-02
2.139999999999999858e+01,4.262033540930551534e-02
2.144000000000000128e+01,2.522559396227777584e-02
2.148000000000000043e+01,2.764416448147533067e-02
2.151999999999999957e+01,3.845371608044821643e-02
2.155999999999999872e+01,6.744482003314959673e-02
2.160000000000000142e+01,2.090773377595650517e-02
2.164000000000000057e+01,4.756588229272323831e-02
2.167999999999999972e+01,3.902366767800810599e-02
2.171999999999999886e+01,2.791632507081588319e-02
2.176000000000000156e+01,4.548043672045379293e-02
2.180000000000000071e+01,4.859087290733948156e-02
2.183999999999999986e+01,3.445032889815408117e-02
2.187999999999999901e+01,2.893388419836652806e-02
2.192000000000000171e+01,5.185578912475907742e-02
2.196000000000000085e+01,3.118542090401145786e-02
2.200000000000000000e+01,4.314936307068446830e-02
2.203999999999999915e+01,3.692989501186242501e-02
2.207999999999999829e+01,2.791219956028688151e-02
2.212000000000000099e+01,4.709975015031609563e-02
2.216000000000000014e+01,5.486404928660979646e-02
2.219999999999999929e+01,5.283685971988982127e-02
2.223999999999999844e+01,4.381548827562454368e-02
2.228000000000000114e+01,4.201957371180845696e-02
2.232000000000000028e+01,2.646932372906135242e-02
2.235999999999999943e+01,6.313453400416600692e-02
2.239999999999999858e+01,5.107908871006465457e-02
2.244000000000000128e+01,3.156324913889340528e-02
2.248000000000000043e+01,5.400608510602039614e-02
2.251999999999999957e+01,5.779930577065107294e-02
2.255999999999999872e+01,6.881799063825448648e-02
2.260000000000000142e+01,5.419379784702639535e-02
2.264000000000000057e+01,3.467341297354684104e-02
2.267999999999999972e+01,3.636502433823433911e-02
2.271999999999999886e+01,4.691386579484020658e-02
2.276000000000000156e+01,3.135361614701496352e-02
2.280000000000000071e+01,1.369448438063156082e-02
2.283999999999999986e+01,5.081502238944188982e-02
2.287999999999999901e+01,3.315408819325741524e-02
2.292000000000000171e+01,4.066800636583037948e-02
2.296000000000000085e+01,6.216755483565956919e-02
2.300000000000000000e+01,5.476071269811240427e-02
2.303999999999999915e+01,1.541706640492034215e-02
2.307999999999999829e+01,2.199496119529016983e-02
2.312000000000000099e+01,2.973750564499332699e-02
2.316000000000000014e+01,4.843527102798349249e-02
2.319999999999999929e+01,3.403069236488041882e-02
2.323999999999999844e+01,6.275035319024468983e-02
2.328000000000000114e+01,4.391492553479638822e-02
2.332000000000000028e+01,2.018332358036854096e-02
2.335999999999999943e+01,3.538000558354154057e-02
2.339999999999999858e+01,3.122776885301575822e-02
2.344000000000000128e+01,3.080438711486626832e-02
2.348000000000000043e+01,3.993758178890540605e-02
2.351999999999999957e+01,4.510704265413691821e-02
2.355999999999999872e+01,2.929582726532247230e-02
2.360000000000000142e+01,3.726082913884044834e-02
2.364000000000000057e+01,4.918780005005821826e-02
2.367999999999999972e+01,4.759357992383839164e-02
2.371999999999999886e+01,4.599848107332673436e-02
2.376000000000000156e+01,3.834167535591083420e-02
2.380000000000000071e+01,4.700161005281744409e-02
2.383999999999999986e+01,3.887683448729286478e-02
2.387999999999999901e+01,5.009921602258386036e-02
2.392000000000000171e+01,1.353341699930992077e-02
2.396000000000000085e+01,3.617638452536552085e-02
2.400000000000000000e+01,5.042656331147088444e-02
2.403999999999999915e+01,4.695960180572089637e-02
2.407999999999999829e+01,4.325866217540307035e-02
2.412000000000000099e+01,5.004675095426866505e-02
2.416000000000000014e+01,4.471231413829159645e-02
2.419999999999999929e+01,4.660338441435464552e-02
2.423999999999999844e+01,4.592939260065394269e-02
2.428000000000000114e+01,3.849438107417348792e-02
2.432000000000000028e+01,3.991664148260407052e-02
2.435999999999999943e+01,4.786508672252579033e-02
2.439999999999999858e+01,4.252546856930611990e-02
2.444000000000000128e+01,3.951607867063606366e-02
2.448000000000000043e+01,3.254298006895425810e-02
2.451999999999999957e+01,4.818057871457807201e-02
2.455999999999999872e+01,2.535436613681410489e-02
2.460000000000000142e+01,1.278408570618197633e-02
2.464000000000000057e+01,3.634481692815104414e-02
2.467999999999999972e+01,4.288775104031028462e-02
2.471999999999999886e+01,3.357843316348207985e-02
2.476000000000000156e+01,2.613313427990331117e-02
2.480000000000000071e+01,4.735936915484091625e-02
2.483999999999999986e+01,4.434143784083365708e-02
2.487999999999999901e+01,2.966721739122919060e-02
2.492000000000000171e+01,3.970168398422427997e-02
2.496000000000000085e+01,4.204271338791323170e-02
2.500000000000000000e+01,4.601465924635077948e-02
2.503999999999999915e+01,3.646544963389467681e-02
2.507999999999999829e+01,1.153021507702343268e-02
2.512000000000000099e+01,3.135103087878247929e-02
2.516000000000000014e+01,4.674193813090265354e-02
2.519999999999999929e+01,3.485827401440766415e-02
2.523999999999999844e+01,4.045693204567641504e-02
2.528000000000000114e+01,2.367630591441915663e-02
2.532000000000000028e+01,4.209427395923692056e-02
2.535999999999999943e+01,4.232891860276931373e-02
2.539999999999999858e+01,5.724858379897058980e-02
2.544000000000000128e+01,2.438010818744989691e-02
2.548000000000000043e+01,4.489271850236426636e-02
2.551999999999999957e+01,2.764086914453484090e-02
2.555999999999999872e+01,1.971254177983514100e-02
2.560000000000000142e+01,1.877664930484462813e-02
2.564000000000000057e+01,5.000894478018423628e-02
2.567999999999999972e+01,1.340574763859412113e-02
2.571999999999999886e+01,3.158229558958484950e-02
2.576000000000000156e+01,1.970711101452264115e-03
2.580000000000000071e+01,3.459835587643429050e-02
2.583999999999999986e+01,4.391429587413982205e-02
2.587999999999999901e+01,2.175972361741139796e-02
2.592000000000000171e+01,2.804360559434477401e-02
2.596000000000000085e+01,3.805640846636797886e-02
2.600000000000000000e+01,4.946704513006068560e-02
2.603999999999999915e+01,4.455924669533602861e-02
2.607999999999999829e+01,2.170125250362240840e-02
2.612000000000000099e+01,4.266689956261156269e-02
2.616000000000000014e+01,3.822287087837721031e-02
2.619999999999999929e+01,3.820709581053025744e-02
2.623999999999999844e+01,3.003169939787224060e-02
2.628000000000000114e+01,3.980486996082208823e-02
2.632000000000000028e+01,4.188463890100963677e-02
2.635999999999999943e+01,3.207504859541887576e-02
2.639999999999999858e+01,2.226464965254894637e-02
2.644000000000000128e+01,4.065960972736393231e-02
2.648000000000000043e+01,2.805029086876611663e-02
2.651999999999999957e+01,5.250446808808371252e-02
2.655999999999999872e+01,4.339017150169381665e-02
2.660000000000000142e+01,7.467557789206455930e-03
2.664000000000000057e+01,1.024020499750565028e-02
2.667999999999999972e+01,1.301205089104922122e-02
2.671999999999999886e+01,1.834729348035669255e-02
2.676000000000000156e+01,5.515142686524087540e-02
2.680000000000000071e+01,2.108968232894635475e-02
2.683999999999999986e+01,3.714553587633771803e-02
2.687999999999999901e+01,3.082214710419605916e-02
2.692000000000000171e+01,3.405542470667723837e-02
2.696000000000000085e+01,4.195008461591671900e-02
2.700000000000000000e+01,3.002970230829200490e-02
2.703999999999999915e+01,1.787541928563556037e-02
2.707999999999999829e+01,2.087241838068913669e-02
2.712000000000000099e+01,1.501049269972949338e-02
2.716000000000000014e+01,2.802959226782176724e-02
2.719999999999999929e+01,2.752759285305994910e-02
2.723999999999999844e+01,4.963636181869173630e-02
2.728000000000000114e+01,3.374760832392216525e-02
2.732000000000000028e+01,2.718242284957401306e-02
2.735999999999999943e+01,3.413676511081321918e-02
2.739999999999999858e+01,3.456327806805768732e-02
2.744000000000000128e+01,3.452279195606942908e-02
2.748000000000000043e+01,2.912002270698350534e-02
2.751999999999999957e+01,4.096652641697624136e-02
2.755999999999999872e+01,1.714660313858629853e-02
2.760000000000000142e+01,2.969087773728344357e-02
2.764000000000000057e+01,3.244380589914176022e-02
2.767999999999999972e+01,4.218922334660013540e-02
2.771999999999999886e+01,3.818044659522785295e-02
2.776000000000000156e+01,3.790063781231221840e-02
2.780000000000000071e+01,4.507953908311991553e-02
2.783999999999999986e+01,3.197720247473561511e-02
2.787999999999999901e+01,3.402616890555767992e-02
2.792000000000000171e+01,3.869048086858908886e-02
2.796000000000000085e+01,3.357528314757884935e-02
2.800000000000000000e+01,3.571293048406323778e-02
2.803999999999999915e+01,3.731345433164995340e-02
2.807999999999999829e+01,2.269662049079250454e-02
2.812000000000000099e+01,2.536283293990396551e-02
2.816000000000000014e+01,2.564610202090169058e-02
2.819999999999999929e+01,2.373056198021571833e-02
2.823999999999999844e+01,2.534884021595917164e-02
2.828000000000000114e+01,2.858714409036355181e-02
2.832000000000000028e+01,2.314478154902193871e-02
2.835999999999999943e+01,3.230880777697827527e-02
2.839999999999999858e+01,2.543858651600460624e-02
2.844000000000000128e+01,2.690084491322548149e-02
2.848000000000000043e+01,2.806666021469579608e-02
2.851999999999999957e+01,2.598246915370825902e-02
2.855999999999999872e+01,2.298883963921580925e-02
2.860000000000000142e+01,2.440995944207619006e-02
2.864000000000000057e+01,2.707317790465044172e-02
2.867999999999999972e+01,2.642439208989963428e-02
2.871999999999999886e+01,1.642130067344693342e-02
2.876000000000000156e+01,3.024584328830980107e-02
2.880000000000000071e+01,2.400637548657877374e-02
2.883999999999999986e+01,2.294838037715748666e-02
2.887999999999999901e+01,2.677391984666733712e-02
2.892000000000000171e+01,2.259320574023022943e-02
2.896000000000000085e+01,2.644202381408773672e-02
2.900000000000000000e+01,2.213973536301580905e-02
2.903999999999999915e+01,2.469216315294632882e-02
2.907999999999999829e+01,2.489879168814345886e-02
2.912000000000000099e+01,2.792608665600343487e-02
2.916000000000000014e+01,2.699881232828226646e-02
2.919999999999999929e+01,2.400698219996836788e-02
2.923999999999999844e+01,1.837138927524212956e-02
2.928000000000000114e+01,2.246776100986799807e-02
2.932000000000000028e+01,2.627174015392176598e-02
2.935999999999999943e+01,2.726788112490833096e-02
2.939999999999999858e+01,2.168906696275963927e-02
2.944000000000000128e+01,2.536904761596869839e-02
2.948000000000000043e+01,2.409466620886513422e-02
2.951999999999999957e+01,2.953493521707904745e-02
2.955999999999999872e+01,2.878923561158791902e-02
2.960000000000000142e+01,2.624812750917543056e-02
2.964000000000000057e+01,1.879088435716246355e-02
2.967999999999999972e+01,2.031766470470363142e-02
2.971999999999999886e+01,3.049115357013402333e-02
2.976000000000000156e+01,3.926526877887300676e-02
2.980000000000000071e+01,3.708254996406592369e-02
2.983999999999999986e+01,1.974703950269656935e-02
2.987999999999999901e+01,2.432304001781005268e-02
2.992000000000000171e+01,3.729024128841023494e-02
2.996000000000000085e+01,2.135123396865222858e-02
3.000000000000000000e+01,2.266156446461152149e-02
3.003999999999999915e+01,1.814346114236260743e-02
3.007999999999999829e+01,2.224967157484919120e-02
3.012000000000000099e+01,2.985180287925711176e-02
3.016000000000000014e+01,2.742954483459027551e-02
3.019999999999999929e+01,3.666201827722691264e-02
3.023999999999999844e+01,2.514709897526148236e-02
3.028000000000000114e+01,2.808421903214311857e-02
3.032000000000000028e+01,1.004083962162282719e-02
3.035999999999999943e+01,3.232458012149355686e-02
3.039999999999999858e+01,3.502647613580906621e-02
3.044000000000000128e+01,2.257559619468455306e-02
3.048000000000000043e+01,3.576598396035705896e-02
3.051999999999999957e+01,4.149618875607273549e-02
3.055999999999999872e+01,3.860066755315880865e-02
3.060000000000000142e+01,1.892061287445773177e-02
3.064000000000000057e+01,2.464872127190337325e-02
3.067999999999999972e+01,3.294032992651986513e-02
3.071999999999999886e+01,3.750150188074558022e-02
3.076000000000000156e+01,1.642000957540237435e-02
3.080000000000000071e+01,0.000000000000000000e+00
3.083999999999999986e+01,1.714696725435085195e-02
3.087999999999999901e+01,1.144857916675128678e-02
3.092000000000000171e+01,2.999281740307488744e-02
3.096000000000000085e+01,1.799911149626415990e-02
3.100000000000000000e+01,2.325476955704115778e-02
3.103999999999999915e+01,1.755362602259141064e-02
3.107999999999999829e+01,3.306469840202054533e-02
3.112000000000000099e+01,3.622031838867561387e-02
3.116000000000000014e+01,3.168266332762133264e-02
3.119999999999999929e+01,3.297204553200346056e-02
3.123999999999999844e+01,2.493639307617939380e-02
3.128000000000000114e+01,2.412643286763845041e-02
3.132000000000000028e+01,3.100838358235427292e-02
3.135999999999999943e+01,3.019706447973483088e-02
3.139999999999999858e+01,3.754387602242097860e-02
3.144000000000000128e+01,3.160280828113351537e-02
3.148000000000000043e+01,1.563738571124027171e-02
3.151999999999999957e+01,1.319159966871552570e-02
3.155999999999999872e+01,3.032628038832082748e-02
3.160000000000000142e+01,2.601427748501948869e-02
3.164000000000000057e+01,1.540766497660362409e-02
3.167999999999999972e+01,1.971934606955236605e-02
3.171999999999999886e+01,2.239859594852621621e-02
3.176000000000000156e+01,3.276976825757996897e-02
3.180000000000000071e+01,3.404902936642449640e-02
3.183999999999999986e+01,2.390529217163957221e-02
3.187999999999999901e+01,1.422710728172454225e-02
3.192000000000000171e+01,2.599426908820902035e-02
3.196000000000000085e+01,2.470667402464199816e-02
3.200000000000000000e+01,1.429225802786364061e-02
3.203999999999999915e+01,1.329463726685268382e-02
3.207999999999999829e+01,1.560575611415429727e-02
3.211999999999999744e+01,8.304287676161512671e-03
3.215999999999999659e+01,2.111610188258923257e-02
3.220000000000000284e+01,2.298016248577351706e-02
3.224000000000000199e+01,1.426837996852822928e-02
3.228000000000000114e+01,1.411293657670898913e-02
3.232000000000000028e+01,1.336260129831133223e-02
3.235999999999999943e+01,1.532587230109885672e-02
3.239999999999999858e+01,1.826909524469332025e-02
3.243999999999999773e+01,2.282805546976496291e-02
3.247999999999999687e+01,1.558341052133201121e-02
3.252000000000000313e+01,1.535879041488377901e-02
3.256000000000000227e+01,2.220064202048428054e-02
3.260000000000000142e+01,9.629105387724091331e-03
3.264000000000000057e+01,2.021462801112845070e-02
3.267999999999999972e+01,2.024914326138409909e-02
3.271999999999999886e+01,1.854341245564760862e-02
3.275999999999999801e+01,1.232232165161331432e-02
3.279999999999999716e+01,1.836363683551770973e-02
3.284000000000000341e+01,1.821623886804938849e-02
3.288000000000000256e+01,2.383230739502949572e-02
3.292000000000000171e+01,1.451005608067224527e-02
3.296000000000000085e+01,1.859929026259762516e-02
3.300000000000000000e+01,9.926524891908502721e-03
3.303999999999999915e+01,1.658169445690190619e-02
3.307999999999999829e+01,1.519459907838417549e-02
3.311999999999999744e+01,1.244194544549850553e-02
3.315999999999999659e+01,1.375645237429224364e-02
3.320000000000000284e+01,2.470643071517977102e-02
3.324000000000000199e+01,1.776264643305633731e-02
3.328000000000000114e+01,1.591612218239992632e-02
3.332000000000000028e+01,9.948219927793232331e-03
3.335999999999999943e+01,1.291094996546665076e-02
3.339999999999999858e+01,1.686474735502095298e-02
3.343999999999999773e+01,1.644116050757052361e-02
3.347999999999999687e+01,2.247917836332789451e-02
3.352000000000000313e+01,1.546048138767620005e-02
3.356000000000000227e+01,1.465966115454162347e-02
3.360000000000000142e+01,2.310729943724676785e-02
3.364000000000000057e+01,4.626921876799778427e-02
3.367999999999999972e+01,2.653849789637877446e-02
3.371999999999999886e+01,3.174980301876853539e-02
3.375999999999999801e+01,4.092334183578707346e-02
3.379999999999999716e+01,1.093398462785197603e-02
3.384000000000000341e+01,3.012997330689784828e-02
3.388000000000000256e+01,1.179482975778636637e-02
3.392000000000000171e+01,2.935783173568403542e-02
3.396000000000000085e+01,2.733908232868531227e-02
3.400000000000000000e+01,2.508661422367323632e-02
3.403999999999999915e+01,1.607338164813671560e-02
3.407999999999999829e+01,2.454270240289832886e-02
3.411999999999999744e+01,2.158908448029524252e-02
3.415999999999999659e+01,1.933418730377607989e-02
3.420000000000000284e+01,3.899091407982002017e-02
3.424000000000000199e+01,1.575501529854137633e-02
3.428000000000000114e+01,2.748483619914736040e-02
3.432000000000000028e+01,2.849105009761114526e-02
3.435999999999999943e+01,2.763179300808848299e-02
3.439999999999999858e+01,2.677193649625021071e-02
3.443999999999999773e+01,2.218174056897911917e-02
3.447999999999999687e+01,3.111125857861298666e-02
3.452000000000000313e+01,2.418878088758967884e-02
3.456000000000000227e+01,4.873539797673229895e-02
3.460000000000000142e+01,3.225426944282173275e-02
3.464000000000000057e+01,2.533000917597381593e-02
3.467999999999999972e+01,3.355722978105135645e-02
3.471999999999999886e+01,2.476691584109848993e-02
3.475999999999999801e+01,3.019564960542260243e-02
3.479999999999999716e+01,3.748866492777531978e-02
3.484000000000000341e+01,3.708850144130193538e-02
3.488000000000000256e+01,3.552220701066326203e-02
3.492000000000000171e+01,3.255667386698463117e-02
3.496000000000000085e+01,4.450952010280558729e-02
3.500000000000000000e+01,3.338400992743288664e-02
3.503999999999999915e+01,1.876128484269913577e-02
3.507999999999999829e+01,4.982730584902332616e-02
3.511999999999999744e+01,3.706828905187284362e-02
3.515999999999999659e+01,3.992698330944470519e-02
3.520000000000000284e+01,3.439318172801540674e-02
3.524000000000000199e+01,4.377776684860939377e-02
3.528000000000000114e+01,4.966514333629133693e-02
3.532000000000000028e+01,4.482893897370150010e-02
3.535999999999999943e+01,3.579620162550071344e-02
3.539999999999999858e+01,4.144874634867311280e-02
3.543999999999999773e+01,4.383719543818211106e-02
3.547999999999999687e+01,4.086357060555710630e-02
3.552000000000000313e+01,3.882181090050929040e-02
3.556000000000000227e+01,5.053290219133604183e-02
3.560000000000000142e+01,5.268596402916213978e-02
3.564000000000000057e+01,4.271680049561814296e-02
3.567999999999999972e+01,3.904100901778909116e-02
3.571999999999999886e+01,3.932750249225480665e-02
3.575999999999999801e+01,4.614047892953466318e-02
3.579999999999999716e+01,5.784817767105695369e-02
3.584000000000000341e+01,5.580189456693665506e-02
3.588000000000000256e+01,5.981587993395592190e-02
3.592000000000000171e+01,6.849148192849251193e-02
3.596000000000000085e+01,5.618673195217662591e-02
3.600000000000000000e+01,7.115515574562904233e-02
3.603999999999999915e+01,4.835939498401460590e-02
3.607999999999999829e+01,6.962064476068202667e-02
3.611999999999999744e+01,6.523937045180616678e-02
3.615999999999999659e+01,7.227987468043210739e-02
3.620000000000000284e+01,7.559008552091718569e-02
3.624000000000000199e+01,9.591668854984158887e-02
3.628000000000000114e+01,7.381693700115815604e-02
3.632000000000000028e+01,7.712549707124560783e-02
3.635999999999999943e+01,8.159905305143091980e-02
3.639999999999999858e+01,6.742335671708170330e-02
3.643999999999999773e+01,6.163903164841442323e-02
3.647999999999999687e+01,8.918872209110029203e-02
3.652000000000000313e+01,9.062968127909201699e-02
3.656000000000000227e+01,8.367818019462633372e-02
3.660000000000000142e+01,8.278696641064697825e-02
3.664000000000000057e+01,9.308443490211762428e-02
3.667999999999999972e+01,1.047800164872342565e-01
3.671999999999999886e+01,1.076169243542937082e-01
3.675999999999999801e+01,9.739920088027986811e-02
3.679999999999999716e+01,1.072282988340962917e-01
3.684000000000000341e+01,1.165906435462619878e-01
3.688000000000000256e+01,1.219896038386092257e-01
3.692000000000000171e+01,1.222596366824653252e-01
3.696000000000000085e+01,1.369818835796631218e-01
3.700000000000000000e+01,1.367846348926404221e-01
3.703999999999999915e+01,1.512727111660585322e-01
3.707999999999999829e+01,1.562027966912443167e-01
3.711999999999999744e+01,1.921358263154852308e-01
3.715999999999999659e+01,2.000952709026332099e-01
3.720000000000000284e+01,1.931352251359348959e-01
3.724000000000000199e+01,1.945665715564149356e-01
3.728000000000000114e+01,2.235042340360070545e-01
3.732000000000000028e+01,2.284311655169467825e-01
3.735999999999999943e+01,2.494420832166227842e-01
3.739999999999999858e+01,2.532024276433316734e-01
3.743999999999999773e+01,2.667528223772899221e-01
3.747999999999999687e+01,2.856642009805319127e-01
3.752000000000000313e+01,3.194940259120620518e-01
3.756000000000000227e+01,3.456307431678535824e-01
3.760000000000000142e+01,3.598783951248903934e-01
3.764000000000000057e+01,3.913755846979347641e-01
3.767999999999999972e+01,4.025917937261922486e-01
3.771999999999999886e+01,4.604292531462435556e-01
3.775999999999999801e+01,4.742086349888087193e-01
3.779999999999999716e+01,5.108321701904683376e-01
3.784000000000000341e+01,5.409281491136611608e-01
3.788000000000000256e+01,6.143818592036539572e-01
3.792000000000000171e+01,6.339869256725806368e-01
3.796000000000000085e+01,6.650138177523762240e-01
3.800000000000000000e+01,7.076956453040645911e-01
3.803999999999999915e+01,7.727554148613976492e-01
3.807999999999999829e+01,7.928246799500447972e-01
3.811999999999999744e+01,8.532212678875980005e-01
3.815999999999999659e+01,9.056916550255850185e-01
3.820000000000000284e+01,9.031478617902828354e-01
3.824000000000000199e+01,9.248468863105951954e-01
3.828000000000000114e+01,9.472447393226975931e-01
3.832000000000000028e+01,9.745373805417562041e-01
3.835999999999999943e+01,9.866774529281884254e-01
3.839999999999999858e+01,9.624520553676652046e-01
3.843999999999999773e+01,1.000000000000000000e+00
3.847999999999999687e+01,9.361451174066188763e-01
3.852000000000000313e+01,9.408237347317804922e-01
3.856000000000000227e+01,9.009780777710537647e-01
3.860000000000000142e+01,8.835103774610187921e-01
3.864000000000000057e+01,8.441299600073464138e-01
3.867999999999999972e+01,8.061477079510604993e-01
3.871999999999999886e+01,7.830839336053071476e-01
3.875999999999999801e+01,7.590872385995952598e-01
3.879999999999999716e+01,7.120122865597974249e-01
3.884000000000000341e+01,6.761260743295645081e-01
3.888000000000000256e+01,6.355772035384057439e-01
3.892000000000000171e+01,6.241664534000729292e-01
3.896000000000000085e+01,5.407245992725586703e-01
3.900000000000000000e+01,5.437656363675966720e-01
3.903999999999999915e+01,5.332858841179271003e-01
3.907999999999999829e+01,5.001940997865941263e-01
3.911999999999999744e+01,4.552132899073495498e-01
3.915999999999999659e+01,4.239854251707130817e-01
3.920000000000000284e+01,4.265578647084163344e-01
3.924000000000000199e+01,4.291298313988567981e-01
3.928000000000000114e+01,3.934714806363917572e-01
3.932000000000000028e+01,3.638734883075004922e-01
3.935999999999999943e+01,3.412682907180559777e-01
3.939999999999999858e+01,3.291525211383754534e-01
3.943999999999999773e+01,3.268268541696852103e-01
3.947999999999999687e+01,3.170412385517972220e-01
3.952000000000000313e+01,3.233396656406856140e-01
3.956000000000000227e+01,2.965361765280811190e-01
3.960000000000000142e+01,2.634382859792507303e-01
3.964000000000000057e+01,2.830225252224925492e-01
3.967999999999999972e+01,2.555183225054959428e-01
3.971999999999999886e+01,2.641455258113067361e-01
3.975999999999999801e+01,2.510931500785239523e-01
3.979999999999999716e+01,2.298815076202935792e-01
3.984000000000000341e+01,2.247539162374380950e-01
3.988000000000000256e+01,2.193927599295675546e-01
3.992000000000000171e+01,2.205581953762920933e-01
3.996000000000000085e+01,2.207907415453025934e-01
4.000000000000000000e+01,2.210228347424720574e-01
4.003999999999999915e+01,1.974773768890263348e-01
4.007999999999999829e+01,1.895497587575053766e-01
4.011999999999999744e+01,2.095947485863074999e-01
4.015999999999999659e+01,1.673992360360516407e-01
4.020000000000000284e+01,1.932710497095822266e-01
4.024000000000000199e+01,1.778821564416594170e-01
4.028000000000000114e+01,1.573644235955301562e-01
4.032000000000000028e+01,1.795051592819164044e-01
4.035999999999999943e+01,1.785676787311345215e-01
4.039999999999999858e+01,1.540857653593603327e-01
4.043999999999999773e+01,1.561778154268108343e-01
4.047999999999999687e+01,1.531410311464288521e-01
4.052000000000000313e+01,1.501038074931784760e-01
4.056000000000000227e+01,1.629175449297001477e-01
4.060000000000000142e+01,1.507882018859066364e-01
4.064000000000000057e+01,1.321313757888831486e-01
4.067999999999999972e+01,1.398154105925835666e-01
4.071999999999999886e+01,1.332793735418702219e-01
4.075999999999999801e+01,1.428274116262525650e-01
4.079999999999999716e+01,1.332600948344312419e-01
4.084000000000000341e+01,1.414086169745017996e-01
4.088000000000000256e+01,1.313742215903162813e-01
4.092000000000000171e+01,1.274002264826973874e-01
4.096000000000000085e+01,1.292535238827703659e-01
4.100000000000000000e+01,1.122245804519632767e-01
4.103999999999999915e+01,1.371547979381699256e-01
4.107999999999999829e+01,1.434358855005956335e-01
4.111999999999999744e+01,1.254732326265272646e-01
4.115999999999999659e+01,1.394460647648685936e-01
4.120000000000000284e+01,1.210163500356331301e-01
4.124000000000000199e+01,1.221673552186336720e-01
4.128000000000000114e+01,1.340409463918640909e-01
4.132000000000000028e+01,1.170086260599845773e-01
4.135999999999999943e+01,1.041718469918986451e-01
4.139999999999999858e+01,1.221050151379238780e-01
4.143999999999999773e+01,1.309465241877709740e-01
4.147999999999999687e+01,1.134463228812518931e-01
4.152000000000000313e+01,1.022396463573711223e-01
4.156000000000000227e+01,1.036204336658399089e-01
4.160000000000000142e+01,9.987241591657135265e-02
4.164000000000000057e+01,1.254956987681658531e-01
4.167999999999999972e+01,1.035643743333639205e-01
4.171999999999999886e+01,1.112374614065242268e-01
4.175999999999999801e+01,1.137817476062464028e-01
4.179999999999999716e+01,1.156263014626456587e-01
4.184000000000000341e+01,1.055819009042209267e-01
4.188000000000000256e+01,1.141858017354314275e-01
4.192000000000000171e+01,1.218568645465939043e-01
4.196000000000000085e+01,1.225342611950962918e-01
4.200000000000000000e+01,1.169173191718620441e-01
4.203999999999999915e+01,1.092019981920567123e-01
4.207999999999999829e+01,1.096450871595332499e-01
4.211999999999999744e+01,1.219763281595583199e-01
4.215999999999999659e+01,1.289456699319439237e-01
4.220000000000000284e+01,1.326510928573103598e-01
4.224000000000000199e+01,1.163087633053685593e-01
4.228000000000000114e+01,1.041619990769411669e-01
4.232000000000000028e+01,1.244169678269921864e-01
4.235999999999999943e+01,1.159991610848281063e-01
4.239999999999999858e+01,1.080471817652108035e-01
4.243999999999999773e+01,1.331962650071450427e-01
4.247999999999999687e+01,1.222130938167045600e-01
4.252000000000000313e+01,1.084322297777423200e-01
4.256000000000000227e+01,1.307828460328995801e-01
4.260000000000000142e+01,1.223627137377450019e-01
4.264000000000000057e+01,1.241989853694651369e-01
4.267999999999999972e+01,1.330281385648418302e-01
4.271999999999999886e+01,1.201777901311616575e-01
4.275999999999999801e+01,1.164183046878331101e-01
4.279999999999999716e+01,1.378341915124464134e-01
4.284000000000000341e+01,1.233509421343079310e-01
4.288000000000000256e+01,1.326444142265638115e-01
4.292000000000000171e+01,1.272516543686219859e-01
4.296000000000000085e+01,1.358450478453452903e-01
4.300000000000000000e+01,1.428063051011922713e-01
4.303999999999999915e+01,1.462705566626417708e-01
4.307999999999999829e+01,1.536972856541525267e-01
4.311999999999999744e+01,1.522655082995769127e-01
4.315999999999999659e+01,1.396441374954948411e-01
4.320000000000000284e+01,1.487015171958603055e-01
4.324000000000000199e+01,1.526301347275559050e-01
4.328000000000000114e+01,1.647171935887777050e-01
4.332000000000000028e+01,1.595538339961054264e-01
4.335999999999999943e+01,1.676773117539980262e-01
4.339999999999999858e+01,1.692733786378229910e-01
4.343999999999999773e+01,1.650413621385036222e-01
4.347999999999999687e+01,1.785252536120141009e-01
4.352000000000000313e+01,1.922418929832169221e-01
4.356000000000000227e+01,1.782182235042469587e-01
4.360000000000000142e+01,1.930996882539072479e-01
4.364000000000000057e+01,1.802408462455444005e-01
4.367999999999999972e+01,1.792701970666480404e-01
4.371999999999999886e+01,1.960154621370304162e-01
4.375999999999999801e+01,2.080981962676144992e-01
4.379999999999999716e+01,1.964034776786162950e-01
4.384000000000000341e+01,2.000935883276263039e-01
4.388000000000000256e+01,2.135739177019312929e-01
4.392000000000000171e+01,2.116687148330604062e-01
4.396000000000000085e+01,2.083645096640583116e-01
4.400000000000000000e+01,2.227762260668586236e-01
4.403999999999999915e+01,2.096807549873336007e-01
4.407999999999999829e+01,2.294532805434779943e-01
4.411999999999999744e+01,2.182219884852042158e-01
4.415999999999999659e+01,2.333316483361635441e-01
4.420000000000000284e+01,2.255963011880868230e-01
4.424000000000000199e+01,2.490971931553322416e-01
4.428000000000000114e+01,2.411280540625597713e-01
4.432000000000000028e+01,2.541383683194813337e-01
4.435999999999999943e+01,2.207596894517665498e-01
4.439999999999999858e+01,2.340024356703402086e-01
4.443999999999999773e+01,2.456130833267310132e-01
4.447999999999999687e+01,2.420713221999428455e-01
4.452000000000000313e+01,2.417927497170608009e-01
4.456000000000000227e+01,2.466422374437558518e-01
4.460000000000000142e+01,2.358731018955972925e-01
4.464000000000000057e+01,2.276678316847209060e-01
4.467999999999999972e+01,2.474352886866967305e-01
4.471999999999999886e+01,2.308374410215382755e-01
4.475999999999999801e+01,2.179690059066337615e-01
4.479999999999999716e+01,2.172219017262401741e-01
4.484000000000000341e+01,2.288292383413817743e-01
4.488000000000000256e+01,2.096658860324761842e-01
4.492000000000000171e+01,2.019245413514573484e-01
4.496000000000000085e+01,2.025747907500566880e-01
4.500000000000000000e+01,1.973969975624295936e-01
4.503999999999999915e+01,1.770668102366709518e-01
4.507999999999999829e+01,1.800471842855228544e-01
4.511999999999999744e+01,1.872231979292011683e-01
4.515999999999999659e+01,1.808785822776188545e-01
4.520000000000000284e+01,1.584491414124062636e-01
4.524000000000000199e+01,1.630600071452954491e-01
4.528000000000000114e+01,1.485556351623605331e-01
4.532000000000000028e+01,1.594598101650304134e-01
4.535999999999999943e+01,1.591744492523088916e-01
4.539999999999999858e+01,1.365103303526947198e-01
4.543999999999999773e+01,1.387885439470107896e-01
4.547999999999999687e+01,1.270799189847658384e-01
4.552000000000000313e+01,1.179351823734490906e-01
4.556000000000000227e+01,1.146178585684281825e-01
4.560000000000000142e+01,1.108340106121416535e-01
4.564000000000000057e+01,1.205701684476341018e-01
4.567999999999999972e+01,1.216809957007780052e-01
4.571999999999999886e+01,1.036765967449208292e-01
4.575999999999999801e+01,9.779355382937010566e-02
4.579999999999999716e+01,1.049643032599986980e-01
4.584000000000000341e+01,9.535091776934562224e-02
4.588000000000000256e+01,1.067170264253043399e-01
4.592000000000000171e+01,8.358273231596924369e-02
4.596000000000000085e+01,7.723197577630454280e-02
4.600000000000000000e+01,8.276947273844582897e-02
4.603999999999999915e+01,7.385392815917449227e-02
4.607999999999999829e+01,8.032327139810110928e-02
4.611999999999999744e+01,6.488009310938087915e-02
4.615999999999999659e+01,6.691978406555366965e-02
4.620000000000000284e+01,6.989161945128007092e-02
4.624000000000000199e+01,5.934285378576584224e-02
4.628000000000000114e+01,5.042556108680341237e-02
4.632000000000000028e+01,5.829181537218485615e-02
4.635999999999999943e+01,6.569156538172210569e-02
4.639999999999999858e+01,6.003693615421709651e-02
4.643999999999999773e+01,6.906787771473490989e-02
4.647999999999999687e+01,5.129102204833977524e-02
4.652000000000000313e+01,4.773352163221813993e-02
4.656000000000000227e+01,5.606428936294966664e-02
4.660000000000000142e+01,4.131700404418477829e-02
4.664000000000000057e+01,4.638368867270572377e-02
4.667999999999999972e+01,3.699734849701111911e-02
4.671999999999999886e+01,6.304327096236847505e-02
4.675999999999999801e+01,4.223404543767966812e-02
4.679999999999999716e+01,3.680972656053561887e-02
4.684000000000000341e+01,4.886829471155650084e-02
4.688000000000000256e+01,5.183534603257446832e-02
4.692000000000000171e+01,4.174803171552272235e-02
4.696000000000000085e+01,4.448143126587056351e-02
4.700000000000000000e+01,2.833274689656092166e-02
4.703999999999999915e+01,4.994742168639672991e-02
4.707999999999999829e+01,3.846037693680530445e-02
4.711999999999999744e+01,4.002715905386215745e-02
4.715999999999999659e+01,4.788761345010663500e-02
4.720000000000000284e+01,4.082883901120921977e-02
4.724000000000000199e+01,3.446912738486117289e-02
4.728000000000000114e+01,2.997402369188467003e-02
4.732000000000000028e+01,2.547865845875868507e-02
4.735999999999999943e+01,3.730064977802275555e-02
4.739999999999999858e+01,1.858512689090267844e-02
4.743999999999999773e+01,3.809919125357521391e-02
4.747999999999999687e+01,2.427843772261929073e-02
4.752000000000000313e+01,3.912981212067613568e-02
4.756000000000000227e+01,3.067004976008250172e-02
4.760000000000000142e+01,4.388915297216635508e-02
4.764000000000000057e+01,3.169914218320396548e-02
4.767999999999999972e+01,2.440416438270479396e-02
4.771999999999999886e+01,3.109546439977416143e-02
4.775999999999999801e+01,3.848584082836539050e-02
4.779999999999999716e+01,3.795026856142205696e-02
4.784000000000000341e+01,4.137729820744322912e-02
4.788000000000000256e+01,3.384796665573586855e-02
4.792000000000000171e+01,3.004813029419320033e-02
4.796000000000000085e+01,2.438317861010205062e-02
4.800000000000000000e+01,4.086332058933560274e-02
4.803999999999999915e+01,3.449855599271554191e-02
4.807999999999999829e+01,2.720111447156941392e-02
4.811999999999999744e+01,2.223452048126512218e-02
4.815999999999999659e+01,3.405152159474625351e-02
4.820000000000000284e+01,2.279051150172357182e-02
4.824000000000000199e+01,2.481646638039346903e-02
4.828000000000000114e+01,2.590974956491148840e-02
4.832000000000000028e+01,1.441492135387751478e-02
4.835999999999999943e+01,1.317664665841711616e-02
4.839999999999999858e+01,2.545844993389820635e-02
4.843999999999999773e+01,2.258794798760721534e-02
4.847999999999999687e+01,1.855167076258888020e-02
4.852000000000000313e+01,2.267397190289801787e-02
4.856000000000000227e+01,2.003588829784145806e-02
4.860000000000000142e+01,2.812058211470639182e-02
4.864000000000000057e+01,2.524893460926442776e-02
4.867999999999999972e+01,2.330949639001463763e-02
4.871999999999999886e+01,1.414345997979948866e-02
4.875999999999999801e+01,1.919683740004765951e-02
4.879999999999999716e+01,1.585807464673251455e-02
4.884000000000000341e+01,1.018800195461597169e-02
4.888000000000000256e+01,2.060221675078310541e-02
4.892000000000000171e+01,2.192496806676300439e-02
4.896000000000000085e+01,1.159205998418593939e-02
4.900000000000000000e+01,1.035017807963207158e-02
4.903999999999999915e+01,1.143916776564080778e-02
4.907999999999999829e+01,2.418338268626691462e-02
4.911999999999999744e+01,1.058608705081694190e-02
4.915999999999999659e+01,2.053256830455834139e-02
4.920000000000000284e+01,2.441800799497965621e-02
4.924000000000000199e+01,1.618157797946878640e-02
4.928000000000000114e+01,1.726929027945434125e-02
4.932000000000000028e+01,2.162031675232421388e-02
4.935999999999999943e+01,1.851165295647629050e-02
4.939999999999999858e+01,1.447034675657130412e-02
4.943999999999999773e+01,2.068562231626006401e-02
4.947999999999999687e+01,1.687701378101099173e-02
4.952000000000000313e+01,1.563239820417182749e-02
4.956000000000000227e+01,2.534369396999932439e-02
4.960000000000000142e+01,3.295680848739634961e-02
4.964000000000000057e+01,2.215412575597296499e-02
4.967999999999999972e+01,2.860129550907705709e-02
4.971999999999999886e+01,2.012930232975282396e-02
4.975999999999999801e+01,1.958281112912582667e-02
4.979999999999999716e+01,1.600570865064447970e-02
4.984000000000000341e+01,3.131022454563648499e-02
4.988000000000000256e+01,3.053003761775184913e-02
4.992000000000000171e+01,3.301318055387381101e-02
4.996000000000000085e+01,2.244203735361230065e-02
5.000000000000000000e+01,2.236059937294140182e-02
5.003999999999999915e+01,2.064720928056208715e-02
5.007999999999999829e+01,1.706875930759963605e-02
5.011999999999999744e+01,8.594835905785431357e-03
5.015999999999999659e+01,2.156673621048754014e-02
5.020000000000000284e+01,2.195057428515406056e-02
5.024000000000000199e+01,1.673961562434480438e-02
5.028000000000000114e+01,2.784608987938731739e-02
5.032000000000000028e+01,2.333409044827526591e-02
5.035999999999999943e+01,1.532527675445733741e-02
5.039999999999999858e+01,1.897172281572566052e-02
5.043999999999999773e+01,3.520586493795315602e-02
5.047999999999999687e+01,2.346677036600190377e-02
5.052000000000000313e+01,2.921065906109885507e-02
5.056000000000000227e+01,2.143405968103564291e-02
5.060000000000000142e+01,3.463707788441269808e-02
5.064000000000000057e+01,2.942432499083973488e-02
5.067999999999999972e+01,2.188031027790691974e-02
5.071999999999999886e+01,2.132938738966900019e-02
5.075999999999999801e+01,2.917021026189781444e-02
5.079999999999999716e+01,3.444666563804167636e-02
5.084000000000000341e+01,3.506077522963003262e-02
5.088000000000000256e+01,2.215440511465665771e-02
5.092000000000000171e+01,1.414315272020679436e-02
5.096000000000000085e+01,1.918582761558772221e-02
5.100000000000000000e+01,1.583641987152032207e-02
5.103999999999999915e+01,2.181120047024137990e-02
5.107999999999999829e+01,1.403239777782533740e-02
5.111999999999999744e+01,2.093928826418580205e-02
5.115999999999999659e+01,1.479192399640732666e-02
5.120000000000000284e+01,2.169849329490848230e-02
5.124000000000000199e+01,1.904744215566278945e-02
5.128000000000000114e+01,2.245706222636149191e-02
5.132000000000000028e+01,2.656585180924083550e-02
5.135999999999999943e+01,1.948526238795133397e-02
5.139999999999999858e+01,1.706669442513361265e-02
5.143999999999999773e+01,3.725952771797389623e-02
5.147999999999999687e+01,3.111091217315238924e-02
5.152000000000000313e+01,2.845877715027961274e-02
5.156000000000000227e+01,1.228618020411707465e-02
5.160000000000000142e+01,1.779255343811384990e-02
5.164000000000000057e+01,2.003525469874835319e-02
5.167999999999999972e+01,2.041293792179242617e-02
5.171999999999999886e+01,7.736381035745059330e-03
5.175999999999999801e+01,1.720501614405515675e-02
5.179999999999999716e+01,2.154511294370634739e-02
5.184000000000000341e+01,3.124656915350086314e-02
5.188000000000000256e+01,2.299850432456364974e-02
5.192000000000000171e+01,2.151045388761634036e-02
5.196000000000000085e+01,2.398511310933978263e-02
5.200000000000000000e+01,1.830082465843495265e-02
5.203999999999999915e+01,2.007588018259294158e-02
5.207999999999999829e+01,2.161768983455520862e-02
5.211999999999999744e+01,2.525734280989155173e-02
5.215999999999999659e+01,2.889686082013120938e-02
5.220000000000000284e+01,1.178956038084374297e-02
5.224000000000000199e+01,2.079031434295314923e-02
5.228000000000000114e+01,1.766927810081648370e-02
5.232000000000000028e+01,2.340624604596332203e-02
5.235999999999999943e+01,2.214981980790271462e-02
5.239999999999999858e+01,1.529865332240645803e-02
5.243999999999999773e+01,1.823792942221622720e-02
5.247999999999999687e+01,2.793723455906334599e-02
5.252000000000000313e+01,1.898770894952737931e-02
5.256000000000000227e+01,3.568002848008774291e-02
5.260000000000000142e+01,2.649714609298019219e-02
5.264000000000000057e+01,1.824657655347185908e-02
5.267999999999999972e+01,2.235065284016289969e-02
5.271999999999999886e+01,2.389041184236029985e-02
5.275999999999999801e+01,1.913611356694686766e-02
5.279999999999999716e+01,2.580402899615941506e-02
5.284000000000000341e+01,1.778597190172874834e-02
5.288000000000000256e+01,2.655163334791208612e-02
5.292000000000000171e+01,1.247251583936951486e-02
5.296000000000000085e+01,2.799810378581296666e-02
5.300000000000000000e+01,3.070259391250849956e-02
5.303999999999999915e+01,2.221774897017759001e-02
5.307999999999999829e+01,2.422268979519820800e-02
5.311999999999999744e+01,2.785928246556435353e-02
5.315999999999999659e+01,3.079643987785584888e-02
5.320000000000000284e+01,2.930442203895545009e-02
5.324000000000000199e+01,2.501499169958458155e-02
5.328000000000000114e+01,2.468830553935344799e-02
5.332000000000000028e+01,2.133110015585196195e-02
5.335999999999999943e+01,2.030487933899331396e-02
5.339999999999999858e+01,3.746104355141827158e-02
5.343999999999999773e+01,3.153933359314046309e-02
5.347999999999999687e+01,1.885736755669955439e-02
5.352000000000000313e+01,2.901996598675661565e-02
5.356000000000000227e+01,3.615205146999228569e-02
5.360000000000000142e+01,3.372657823389527826e-02
5.364000000000000057e+01,1.964556798999500184e-02
5.367999999999999972e+01,1.791922972416459814e-02
5.371999999999999886e+01,2.528404107318590194e-02
5.375999999999999801e+01,2.472305959182036217e-02
5.379999999999999716e+01,1.507074225139529156e-02
5.384000000000000341e+01,2.360082144707678284e-02
5.388000000000000256e+01,2.910039606453533947e-02
5.392000000000000171e+01,2.993770544519925789e-02
5.396000000000000085e+01,2.401477130059798820e-02
5.400000000000000000e+01,3.044651750266504781e-02
5.403999999999999915e+01,2.475651952777801340e-02
5.407999999999999829e+01,1.790089272463812192e-02
5.411999999999999744e+01,2.596414637083556409e-02
5.415999999999999659e+01,1.934146201385887956e-02
5.420000000000000284e+01,1.877952523028823123e-02
5.424000000000000199e+01,2.684253403064295815e-02
5.428000000000000114e+01,2.674665478463390464e-02
5.432000000000000028e+01,2.292095602237642984e-02
5.435999999999999943e+01,3.005129413176373110e-02
5.439999999999999858e+01,3.018829140775924555e-02
5.443999999999999773e+01,3.055832215987220116e-02
5.447999999999999687e+01,3.279314913882397375e-02
5.452000000000000313e+01,3.176437946180045435e-02
5.456000000000000227e+01,3.446527862336127429e-02
5.460000000000000142e+01,2.620999232776296747e-02
5.464000000000000057e+01,3.240738245057563777e-02
5.467999999999999972e+01,2.951345972797473835e-02
5.471999999999999886e+01,2.358905439472210042e-02
5.475999999999999801e+01,1.813079972113499153e-02
5.479999999999999716e+01,3.295294602399551770e-02
5.484000000000000341e+01,2.423103713887289970e-02
5.488000000000000256e+01,2.156989361042828748e-02
5.492000000000000171e+01,3.172967211827176087e-02
5.496000000000000085e+01,3.746032140221543238e-02
5.500000000000000000e+01,2.524153124126317371e-02
5.503999999999999915e+01,2.747542795947008690e-02
5.507999999999999829e+01,3.110791896573902177e-02
5.511999999999999744e+01,3.543967886129631428e-02
5.515999999999999659e+01,3.254500898393393460e-02
5.520000000000000284e+01,2.988339245811055464e-02
5.524000000000000199e+01,3.607985648303239923e-02
5.528000000000000114e+01,2.828973823972358650e-02
5.532000000000000028e+01,2.469552634031963942e-02
5.535999999999999943e+01,3.695266257837036272e-02
5.539999999999999858e+01,3.265902272197034051e-02
5.543999999999999773e+01,4.514916835497265191e-02
5.547999999999999687e+01,3.479460198203732091e-02
5.552000000000000313e+01,2.933527362822951901e-02
5.556000000000000227e+01,2.667320500507866857e-02
5.560000000000000142e+01,3.100435582775036211e-02
5.564000000000000057e+01,2.507867483605666012e-02
5.567999999999999972e+01,3.267326220092127420e-02
5.571999999999999886e+01,3.187589036316602203e-02
5.575999999999999801e+01,2.851428074260323534e-02
5.579999999999999716e+01,2.608506660955025452e-02
5.584000000000000341e+01,2.878420767917287681e-02
5.588000000000000256e+01,3.311507277330333343e-02
5.592000000000000171e+01,4.299000329012877403e-02
5.596000000000000085e+01,4.338008961615081455e-02
5.600000000000000000e+01,4.283659859940146253e-02
5.603999999999999915e+01,4.362162731293587475e-02
5.607999999999999829e+01,4.528492725339679920e-02
5.611999999999999744e+01,4.750328826213566502e-02
5.615999999999999659e+01,4.164509750221240952e-02
5.620000000000000284e+01,3.849497412609116653e-02
5.624000000000000199e+01,4.515987811785031336e-02
5.628000000000000114e+01,4.841577591834939076e-02
5.632000000000000028e+01,4.276735107023132282e-02
5.635999999999999943e+01,4.538061415973361490e-02
5.639999999999999858e+01,4.056552470067186639e-02
5.643999999999999773e+01,4.374732084435089402e-02
5.647999999999999687e+01,4.153208866504599223e-02
5.652000000000000313e+01,4.196694117864628593e-02
5.656000000000000227e+01,4.095686589909360020e-02
5.660000000000000142e+01,4.165612237769994453e-02
5.664000000000000057e+01,4.178541664993793564e-02
5.667999999999999972e+01,4.366610578917754643e-02
5.671999999999999886e+01,4.351018396946074868e-02
5.675999999999999801e+01,4.636145467556310185e-02
5.679999999999999716e+01,4.272551714783139748e-02
5.684000000000000341e+01,3.980664164852786707e-02
5.688000000000000256e+01,4.224671052720397474e-02
5.692000000000000171e+01,3.931488260376450605e-02
5.696000000000000085e+01,4.645912865219842952e-02
5.700000000000000000e+01,4.676460788029032645e-02
5.703999999999999915e+01,3.860463248236426642e-02
5.707999999999999829e+01,3.858670870555822030e-02
5.711999999999999744e+01,4.709324648854781165e-02
5.715999999999999659e+01,4.157890218095099816e-02
5.720000000000000284e+01,4.333006695640175682e-02
5.724000000000000199e+01,3.572962600398827543e-02
5.728000000000000114e+01,4.731323533482186677e-02
5.732000000000000028e+01,4.922347451547178648e-02
5.735999999999999943e+01,4.413208387468100374e-02
5.739999999999999858e+01,3.972476572820404089e-02
5.743999999999999773e+01,4.868113857084879759e-02
5.747999999999999687e+01,4.354891499714249464e-02
5.752000000000000313e+01,4.492064121356750123e-02
5.756000000000000227e+01,4.295693034380149156e-02
5.760000000000000142e+01,4.262498847976054633e-02
5.764000000000000057e+01,3.809709629378206508e-02
5.767999999999999972e+01,4.662330713820368039e-02
5.771999999999999886e+01,5.748061657142327502e-02
5.775999999999999801e+01,3.850000917648498805e-02
5.779999999999999716e+01,3.723568424916123831e-02
5.784000000000000341e+01,5.275520757572881025e-02
5.788000000000000256e+01,4.636251692064583679e-02
5.792000000000000171e+01,5.255771794251296036e-02
5.796000000000000085e+01,4.896236545225301356e-02
5.800000000000000000e+01,4.583324835371883205e-02
5.803999999999999915e+01,5.599135251520761386e-02
5.807999999999999829e+01,4.516968318521800974e-02
5.811999999999999744e+01,4.693591076255250460e-02
5.815999999999999659e+01,4.380687517207347559e-02
5.820000000000000284e+01,4.813734465217936465e-02
5.824000000000000199e+01,5.736312328450027254e-02
5.828000000000000114e+01,5.166996284440376203e-02
5.832000000000000028e+01,4.970656957392460135e-02
5.835999999999999943e+01,4.238170073610703775e-02
5.839999999999999858e+01,4.787784494308679889e-02
5.843999999999999773e+01,3.822194544699888952e-02
5.847999999999999687e+01,4.208638753270654842e-02
5.852000000000000313e+01,3.569407312143558358e-02
5.856000000000000227e+01,4.748427868309972044e-02
5.860000000000000142e+01,4.668664169044001860e-02
5.864000000000000057e+01,4.285862460246059324e-02
5.867999999999999972e+01,5.791245707048917751e-02
5.871999999999999886e+01,5.012166226464047358e-02
5.875999999999999801e+01,5.515188991826240617e-02
5.879999999999999716e+01,5.342200062167200281e-02
5.884000000000000341e+01,5.402323920397449769e-02
5.888000000000000256e+01,4.763125411326481901e-02
5.892000000000000171e+01,5.709071026066856597e-02
5.896000000000000085e+01,4.114134844619932868e-02
5.900000000000000000e+01,5.130021781977120443e-02
5.903999999999999915e+01,6.192534978301398457e-02
5.907999999999999829e+01,6.322617515412370937e-02
5.911999999999999744e+01,4.774321290079123342e-02
5.915999999999999659e+01,6.186511824404149207e-02
5.920000000000000284e+01,5.407484412611013314e-02
5.924000000000000199e+01,5.397721109165839332e-02
5.928000000000000114e+01,4.478838551039705795e-02
5.932000000000000028e+01,5.797805844658334568e-02
5.935999999999999943e+01,5.181975307033180600e-02
5.939999999999999858e+01,5.638450755620261212e-02
5.943999999999999773e+01,5.535470590380557609e-02
5.947999999999999687e+01,5.199387256850857009e-02
5.952000000000000313e+01,5.026485845052793694e-02
5.956000000000000227e+01,5.809336430422130243e-02
5.960000000000000142e+01,5.566514190495627790e-02
5.964000000000000057e+01,5.253765371173704096e-02
5.967999999999999972e+01,6.502851781710321244e-02
5.971999999999999886e+01,5.374234554066446845e-02
5.975999999999999801e+01,6.436846565859730140e-02
5.979999999999999716e+01,6.380542749414780390e-02
5.984000000000000341e+01,4.948903512894622936e-02
5.988000000000000256e+01,6.267954985512870503e-02
5.992000000000000171e+01,6.211671247270877244e-02
5.996000000000000085e+01,6.108772647988260085e-02
