2.003999999999999915e+01,1.246717868921417144e-01
2.007999999999999829e+01,1.428672709859105383e-01
2.012000000000000099e+01,9.387567905593648121e-02
2.016000000000000014e+01,8.949690783777655700e-02
2.019999999999999929e+01,1.187084342550107363e-01
2.023999999999999844e+01,7.915824357618118923e-02
2.028000000000000114e+01,1.235870391408115804e-01
2.032000000000000028e+01,5.463913961076195119e-02
2.035999999999999943e+01,1.032626865818851436e-01
2.039999999999999858e+01,6.842782376440198489e-02
2.044000000000000128e+01,9.132784750696756881e-02
2.048000000000000043e+01,7.276003589381579983e-02
2.051999999999999957e+01,1.518181567298088896e-01
2.055999999999999872e+01,1.148751824624026224e-01
2.060000000000000142e+01,5.378548866109120197e-02
2.064000000000000057e+01,7.982408992546616289e-02
2.067999999999999972e+01,7.226809676587044040e-02
2.071999999999999886e+01,9.620289581842518534e-02
2.076000000000000156e+01,1.474294317740457438e-01
2.080000000000000071e+01,9.472717242410555460e-02
2.083999999999999986e+01,8.296358906890106966e-02
2.087999999999999901e+01,9.219316232089118379e-02
2.092000000000000171e+01,1.260900689102202876e-01
2.096000000000000085e+01,6.445630148318091945e-02
2.100000000000000000e+01,1.114710127022513209e-01
2.103999999999999915e+01,4.248465015996814864e-02
2.107999999999999829e+01,3.490737758543585589e-02
2.112000000000000099e+01,1.218067713219148918e-01
2.116000000000000014e+01,7.853327896194195468e-02
2.119999999999999929e+01,6.675060015616571252e-02
2.123999999999999844e+01,8.016015105170744282e-02
2.128000000000000114e+01,9.514223730938746459e-02
2.132000000000000028e+01,9.122645740571783124e-02
2.135999999999999943e+01,8.940809855714271226e-02
2.139999999999999858e+01,8.758763399837246610e-02
2.144000000000000128e+01,8.996412259549856072e-02
2.148000000000000043e+01,1.054605624381500240e-01
2.151999999999999957e+01,6.164322054393473610e-02
2.155999999999999872e+01,5.194111889019296241e-02
2.160000000000000142e+01,7.950355207112018430e-02
2.164000000000000057e+01,6.349867292914815331e-02
2.167999999999999972e+01,7.740998227557273348e-02
2.171999999999999886e+01,1.102149570339799600e-01
2.176000000000000156e+01,1.052263283004327560e-01
2.180000000000000071e+01,8.868820465086085791e-02
2.183999999999999986e+01,5.535176650428361156e-02
2.187999999999999901e+01,1.023202107896807878e-01
2.192000000000000171e+01,1.141194693768818186e-01
2.196000000000000085e+01,9.704812967577271243e-02
2.200000000000000000e+01,1.345624530806720232e-01
2.203999999999999915e+01,6.972268272147587320e-02
2.207999999999999829e+01,8.466292155082517923e-02
2.212000000000000099e+01,9.382738318761478513e-02
2.216000000000000014e+01,8.199448746784115949e-02
2.219999999999999929e+01,1.163491495714193136e-01
2.223999999999999844e+01,1.087111724375008637e-01
2.228000000000000114e+01,7.325237551520065449e-02
2.232000000000000028e+01,0.000000000000000000e+00
2.235999999999999943e+01,1.597552456994480799e-02
2.239999999999999858e+01,6.501656245704764969e-02
2.244000000000000128e+01,8.256261271814380187e-02
2.248000000000000043e+01,8.016108412260486427e-02
2.251999999999999957e+01,2.369463961228073651e-02
2.255999999999999872e+01,8.899879650843001144e-02
2.260000000000000142e+01,9.603898395921364739e-02
2.264000000000000057e+01,9.310436025039942054e-02
2.267999999999999972e+01,1.305836122115491826e-01
2.271999999999999886e+01,5.993509714773540692e-02
2.276000000000000156e+01,6.486756441944460660e-02
2.280000000000000071e+01,7.294728104428417625e-02
2.283999999999999986e+01,8.050007384911840591e-02
2.287999999999999901e+01,1.037972908268557370e-01
2.292000000000000171e+01,4.363621006172960226e-02
2.296000000000000085e+01,1.404128515966656943e-01
2.300000000000000000e+01,1.070166888463274513e-01
2.303999999999999915e+01,1.024870107816210213e-01
2.307999999999999829e+01,4.756661665282238549e-02
2.312000000000000099e+01,6.822722086608144776e-02
2.316000000000000014e+01,1.025327331579762996e-01
2.319999999999999929e+01,6.650201355524719415e-02
2.323999999999999844e+01,1.170748224850059610e-01
2.328000000000000114e+01,2.592743258815002547e-02
2.332000000000000028e+01,7.912060973512721751e-02
2.335999999999999943e+01,8.507237608323089950e-02
2.339999999999999858e+01,8.997236137443452575e-02
2.344000000000000128e+01,7.807410330878723770e-02
2.348000000000000043e+01,8.034564968575469424e-02
2.351999999999999957e+01,3.852508519355538757e-02
2.355999999999999872e+01,9.013153122920565530e-02
2.360000000000000142e+01,1.333378551971963755e-01
2.364000000000000057e+01,8.836197421185577883e-02
2.367999999999999972e+01,8.380001335907560911e-02
2.371999999999999886e+01,7.398722858983887429e-02
2.376000000000000156e+01,1.213845958605227898e-01
2.380000000000000071e+01,4.333313363954598846e-02
2.383999999999999986e+01,8.547768332932043078e-02
2.387999999999999901e+01,8.772919524405076164e-02
2.392000000000000171e+01,5.323696397793202528e-02
2.396000000000000085e+01,9.380088626650325001e-02
2.400000000000000000e+01,9.289712970769674338e-02
2.403999999999999915e+01,8.936697414020648711e-02
2.407999999999999829e+01,6.746395726408119242e-02
2.412000000000000099e+01,4.923313056766194518e-02
2.416000000000000014e+01,5.042095990790872173e-02
2.419999999999999929e+01,7.417673987901630961e-02
2.423999999999999844e+01,9.425636546206293820e-02
2.428000000000000114e+01,6.342044620018484624e-02
2.432000000000000028e+01,6.460036135175255267e-02
2.435999999999999943e+01,1.093435196861378966e-01
2.439999999999999858e+01,1.315147738523300691e-01
2.444000000000000128e+01,8.492449766536405709e-02
2.448000000000000043e+01,9.554440553138816850e-02
2.451999999999999957e+01,5.524877922351100618e-02
2.455999999999999872e+01,7.741216188511704233e-02
2.460000000000000142e+01,1.189942201469313537e-01
2.464000000000000057e+01,1.028372818030254127e-01
2.467999999999999972e+01,1.606867647549817535e-01
2.471999999999999886e+01,8.783863776138077506e-02
2.476000000000000156e+01,9.057158202849543982e-02
2.480000000000000071e+01,8.280492903927194615e-02
2.483999999999999986e+01,6.978750193169938609e-02
2.487999999999999901e+01,1.040075160791339298e-01
2.492000000000000171e+01,5.319467500105206498e-02
2.496000000000000085e+01,8.373661757163843034e-02
2.500000000000000000e+01,9.433109333133285479e-02
2.503999999999999915e+01,7.972928269915373345e-02
2.507999999999999829e+01,9.924286881578774089e-02
2.512000000000000099e+01,9.933387559298952063e-02
2.516000000000000014e+01,7.160419063408694773e-02
2.519999999999999929e+01,8.166408271114847239e-02
2.523999999999999844e+01,4.395776544306945893e-02
2.528000000000000114e+01,6.766072488564617293e-02
2.532000000000000028e+01,2.050266455835535184e-02
2.535999999999999943e+01,8.409280527788824677e-02
2.539999999999999858e+01,9.309327599896510819e-02
2.544000000000000128e+01,1.120645812217584275e-01
2.548000000000000043e+01,8.536921631422780821e-02
2.551999999999999957e+01,5.184846111506844629e-02
2.555999999999999872e+01,1.017820447859293653e-01
2.560000000000000142e+01,7.140674268937624580e-02
2.564000000000000057e+01,1.013909690381164241e-01
2.567999999999999972e+01,6.838742366275100959e-02
2.571999999999999886e+01,5.375283941380488983e-02
2.576000000000000156e+01,6.483556797306126718e-02
2.580000000000000071e+01,1.021604932549725758e-01
2.583999999999999986e+01,1.169135783948298812e-01
2.587999999999999901e+01,7.287795779068947932e-02
2.592000000000000171e+01,5.193524642902402205e-02
2.596000000000000085e+01,8.925254919688900557e-02
2.600000000000000000e+01,6.673138728437012779e-02
2.603999999999999915e+01,6.467872927009610251e-02
2.607999999999999829e+01,8.204481266067258083e-02
2.612000000000000099e+01,1.120061714672733050e-01
2.616000000000000014e+01,6.428308008525626671e-02
2.619999999999999929e+01,9.319088826199074804e-02
2.623999999999999844e+01,1.121240453444747043e-01
2.628000000000000114e+01,6.859433951635950100e-02
2.632000000000000028e+01,6.967772828964730047e-02
2.635999999999999943e+01,9.490381014085016997e-02
2.639999999999999858e+01,8.811019830197949765e-02
2.644000000000000128e+01,2.147814134626816612e-02
2.648000000000000043e+01,9.183844203291494090e-02
2.651999999999999957e+01,5.564579106031016659e-02
2.655999999999999872e+01,5.776765972874962213e-02
2.660000000000000142e+01,6.618623952387706066e-02
2.664000000000000057e+01,6.672971455358631121e-02
2.667999999999999972e+01,7.671919708268253035e-02
2.671999999999999886e+01,8.723169257854490599e-02
2.676000000000000156e+01,6.992356747845687726e-02
2.680000000000000071e+01,3.529246627989289509e-02
2.683999999999999986e+01,4.842377561897339561e-02
2.687999999999999901e+01,6.522739785452631722e-02
2.692000000000000171e+01,9.620097748402607618e-02
2.696000000000000085e+01,9.358024191466113306e-02
2.700000000000000000e+01,7.573606768313377591e-02
2.703999999999999915e+01,7.363650258890992728e-02
2.707999999999999829e+01,3.300406658730558034e-03
2.712000000000000099e+01,5.525999702041263506e-02
2.716000000000000014e+01,7.677457389144048960e-02
2.719999999999999929e+01,6.049578914703846594e-02
2.723999999999999844e+01,7.308367583117264532e-02
2.728000000000000114e+01,8.409507183733284930e-02
2.732000000000000028e+01,6.623610787469949579e-02
2.735999999999999943e+01,9.456493116241546093e-02
2.739999999999999858e+01,8.982434095075741975e-02
2.744000000000000128e+01,5.778804251366317923e-02
2.748000000000000043e+01,8.506159006114250021e-02
2.751999999999999957e+01,7.611643662906832086e-02
2.755999999999999872e+01,3.200234826784200542e-02
2.760000000000000142e+01,8.498962501499433830e-02
2.764000000000000057e+01,8.863615271939166707e-02
2.767999999999999972e+01,1.027784966576693465e-01
2.771999999999999886e+01,6.758009511020024451e-02
2.776000000000000156e+01,4.077798480982492563e-02
2.780000000000000071e+01,9.585566656784065553e-02
2.783999999999999986e+01,9.634378681613552098e-02
2.787999999999999901e+01,8.055874325745555897e-02
2.792000000000000171e+01,6.067728420457081662e-02
2.796000000000000085e+01,6.369129870843713570e-02
2.800000000000000000e+01,5.589865914396659891e-02
2.803999999999999915e+01,5.779578136556320911e-02
2.807999999999999829e+01,7.708035782167003969e-02
2.812000000000000099e+01,5.943896518717487615e-02
2.816000000000000014e+01,6.671309527142323115e-02
2.819999999999999929e+01,4.884453157671760082e-02
2.823999999999999844e+01,5.904053658604399568e-02
2.828000000000000114e+01,5.798572798586019983e-02
2.832000000000000028e+01,5.785739664884389372e-02
2.835999999999999943e+01,6.348575188893224031e-02
2.839999999999999858e+01,6.342306630422456237e-02
2.844000000000000128e+01,5.232685826090581471e-02
2.848000000000000043e+01,6.047055588461284353e-02
2.851999999999999957e+01,7.110810883016407957e-02
2.855999999999999872e+01,5.552031202747148564e-02
2.860000000000000142e+01,8.177635202490231292e-02
2.864000000000000057e+01,7.541735648059244568e-02
2.867999999999999972e+01,6.068936692415639877e-02
2.871999999999999886e+01,4.688788075178548787e-02
2.876000000000000156e+01,4.674247317827311815e-02
2.880000000000000071e+01,5.834390375010265611e-02
2.883999999999999986e+01,5.852838507619551045e-02
2.887999999999999901e+01,5.670374949048807844e-02
2.892000000000000171e+01,7.902816333778506230e-02
2.896000000000000085e+01,7.259700744721768462e-02
2.900000000000000000e+01,7.208982069567078377e-02
2.903999999999999915e+01,5.870788791693645758e-02
2.907999999999999829e+01,7.152479423456545304e-02
2.912000000000000099e+01,6.453007965788275235e-02
2.916000000000000014e+01,6.547766240865258991e-02
2.919999999999999929e+01,6.840838268483481754e-02
2.923999999999999844e+01,8.806436040725608427e-02
2.928000000000000114e+01,5.264589973190596239e-02
2.932000000000000028e+01,6.313977382151182705e-02
2.935999999999999943e+01,4.963011911393562514e-02
2.939999999999999858e+01,6.956412147253789036e-02
2.944000000000000128e+01,6.634425205191490926e-02
2.948000000000000043e+01,8.251111967661801938e-02
2.951999999999999957e+01,5.223964335544519638e-02
2.955999999999999872e+01,5.894979874356464505e-02
2.960000000000000142e+01,7.353144505400684150e-02
2.964000000000000057e+01,5.766818814103374241e-02
2.967999999999999972e+01,5.387548279497953591e-02
2.971999999999999886e+01,3.380969545312792479e-02
2.976000000000000156e+01,6.780503411108446121e-02
2.980000000000000071e+01,8.290288365050879626e-02
2.983999999999999986e+01,7.070513167472808336e-02
2.987999999999999901e+01,7.635164365381942597e-02
2.992000000000000171e+01,6.205090757799278794e-02
2.996000000000000085e+01,8.029113882060444352e-02
3.000000000000000000e+01,7.595971488556330087e-02
3.003999999999999915e+01,6.742751230957155784e-02
3.007999999999999829e+01,5.521941500708154454e-02
3.012000000000000099e+01,3.671101407685458534e-02
3.016000000000000014e+01,6.386564275629803833e-02
3.019999999999999929e+01,7.264768223819623172e-02
3.023999999999999844e+01,3.313885255198725094e-02
3.028000000000000114e+01,2.617100441224741447e-02
3.032000000000000028e+01,7.641359998706072354e-02
3.035999999999999943e+01,3.480011444555144995e-02
3.039999999999999858e+01,1.107585218096831248e-01
3.044000000000000128e+01,7.806462326414691233e-02
3.048000000000000043e+01,6.006572253534937095e-02
3.051999999999999957e+01,8.563033887896287499e-02
3.055999999999999872e+01,6.080457173870609106e-02
3.060000000000000142e+01,7.849256095597106908e-02
3.064000000000000057e+01,4.001646675093957495e-02
3.067999999999999972e+01,5.717618585915057450e-02
3.071999999999999886e+01,5.491357461846949062e-02
3.076000000000000156e+01,9.988866607286228660e-02
3.080000000000000071e+01,9.604803112225342165e-02
3.083999999999999986e+01,4.391655368109523283e-02
3.087999999999999901e+01,6.316736252415453001e-02
3.092000000000000171e+01,6.247096777489242331e-02
3.096000000000000085e+01,5.337477820268013429e-02
3.100000000000000000e+01,4.270226335335249729e-02
3.103999999999999915e+01,5.984682461853037261e-02
3.107999999999999829e+01,1.132065779518940940e-01
3.112000000000000099e+01,5.686429133825848803e-02
3.116000000000000014e+01,7.295406773026441583e-02
3.119999999999999929e+01,9.061682055336524322e-02
3.123999999999999844e+01,1.056534944984766911e-01
3.128000000000000114e+01,9.654392377021341065e-02
3.132000000000000028e+01,6.486275655492453052e-02
3.135999999999999943e+01,2.425693016577561492e-02
3.139999999999999858e+01,2.878930638396834038e-02
3.144000000000000128e+01,3.227025902453642403e-02
3.148000000000000043e+01,1.003032947640328069e-02
3.151999999999999957e+01,5.444877544501272593e-02
3.155999999999999872e+01,6.894728569434038778e-02
3.160000000000000142e+01,5.090145132314783522e-02
3.164000000000000057e+01,2.340608809167377471e-02
3.167999999999999972e+01,3.527523642163442330e-02
3.171999999999999886e+01,5.186667711893122590e-02
3.176000000000000156e+01,5.848371215550943192e-02
3.180000000000000071e+01,6.142492894125530650e-02
3.183999999999999986e+01,6.961332556579752362e-02
3.187999999999999901e+01,7.097661468082402947e-02
3.192000000000000171e+01,5.081809825827982713e-02
3.196000000000000085e+01,4.430488118521982294e-02
3.200000000000000000e+01,6.560878291075802893e-02
3.203999999999999915e+01,1.762661006292163060e-02
3.207999999999999829e+01,5.542123073590234789e-02
3.211999999999999744e+01,3.669125871531796201e-02
3.215999999999999659e+01,3.890205208533819431e-02
3.220000000000000284e+01,5.426088058470923681e-02
3.224000000000000199e+01,6.126739355301734358e-02
3.228000000000000114e+01,7.181647852445570412e-02
3.232000000000000028e+01,4.950430656065554075e-02
3.235999999999999943e+01,6.395524805218093245e-02
3.239999999999999858e+01,5.850198603609190612e-02
3.243999999999999773e+01,6.855356469058471180e-02
3.247999999999999687e+01,6.404778051065544708e-02
3.252000000000000313e+01,7.092170644667959711e-02
3.256000000000000227e+01,6.940723911506081756e-02
3.260000000000000142e+01,5.313392438094596826e-02
3.264000000000000057e+01,7.008275987625564585e-02
3.267999999999999972e+01,6.345932672690840493e-02
3.271999999999999886e+01,6.639248690555221710e-02
3.275999999999999801e+01,6.422289217826213092e-02
3.279999999999999716e+01,6.985719497707276737e-02
3.284000000000000341e+01,8.283281029783412519e-02
3.288000000000000256e+01,6.549977520295835465e-02
3.292000000000000171e+01,8.268113565833723477e-02
3.296000000000000085e+01,6.185751038154718717e-02
3.300000000000000000e+01,6.389846116596420433e-02
3.303999999999999915e+01,7.532419416209180929e-02
3.307999999999999829e+01,6.748028154282906255e-02
3.311999999999999744e+01,7.146419655268590465e-02
3.315999999999999659e+01,6.896860668634291480e-02
3.320000000000000284e+01,7.840964115806844936e-02
3.324000000000000199e+01,5.640016292714761237e-02
3.328000000000000114e+01,5.916865685792413454e-02
3.332000000000000028e+01,6.927089644499395682e-02
3.335999999999999943e+01,8.647487786981487845e-02
3.339999999999999858e+01,6.183859925346641556e-02
3.343999999999999773e+01,7.032728533551352301e-02
3.347999999999999687e+01,7.987905941810126420e-02
3.352000000000000313e+01,7.349588229597399380e-02
3.356000000000000227e+01,8.302096861031585395e-02
3.360000000000000142e+01,5.473032724388600390e-02
3.364000000000000057e+01,5.826683769459586881e-02
3.367999999999999972e+01,5.180852979235801847e-02
3.371999999999999886e+01,6.252217184510275305e-02
3.375999999999999801e+01,6.828316373141425644e-02
3.379999999999999716e+01,6.019059283061963667e-02
3.384000000000000341e+01,6.848689983465965081e-02
3.388000000000000256e+01,7.725314058330613742e-02
3.392000000000000171e+01,4.126852949066387582e-02
3.396000000000000085e+01,9.136304143359461061e-02
3.400000000000000000e+01,3.542981643344338127e-02
3.403999999999999915e+01,7.869777142458599106e-02
3.407999999999999829e+01,7.367502798399164221e-02
3.411999999999999744e+01,4.713057682353877231e-02
3.415999999999999659e+01,4.262963700545860379e-02
3.420000000000000284e+01,3.917692487031414206e-02
3.424000000000000199e+01,4.254614569204294428e-02
3.428000000000000114e+01,6.375982610406788487e-02
3.432000000000000028e+01,6.292692555280497702e-02
3.435999999999999943e+01,2.062680678666293718e-02
3.439999999999999858e+01,5.863212712420269590e-02
3.443999999999999773e+01,4.099841513326092646e-02
3.447999999999999687e+01,5.013216793625948492e-02
3.452000000000000313e+01,6.083904478617295497e-02
3.456000000000000227e+01,4.057635503269698546e-02
3.460000000000000142e+01,6.650177443876832684e-02
3.464000000000000057e+01,8.087826982855296498e-02
3.467999999999999972e+01,3.384204006544564575e-02
3.471999999999999886e+01,5.818826732292593784e-02
3.475999999999999801e+01,6.048793318066107705e-02
3.479999999999999716e+01,6.278608912699261413e-02
3.484000000000000341e+01,7.138132257180679341e-02
3.488000000000000256e+01,4.743235723341678728e-02
3.492000000000000171e+01,4.867622984466382641e-02
3.496000000000000085e+01,4.939371752257441794e-02
3.500000000000000000e+01,6.743081466790191991e-02
3.503999999999999915e+01,6.079695218326837403e-02
3.507999999999999829e+01,1.008761023361769288e-01
3.511999999999999744e+01,8.321672185137536648e-02
3.515999999999999659e+01,9.022530785128551889e-02
3.520000000000000284e+01,3.424654541100817517e-02
3.524000000000000199e+01,2.760521340203064139e-02
3.528000000000000114e+01,6.032855301983505031e-02
3.532000000000000028e+01,7.572929536048481070e-02
3.535999999999999943e+01,7.013326725084430280e-02
3.539999999999999858e+01,8.028221998581371033e-02
3.543999999999999773e+01,5.106353106930217045e-02
3.547999999999999687e+01,6.330905121588589757e-02
3.552000000000000313e+01,6.243104006542250783e-02
3.556000000000000227e+01,6.627549201866550499e-02
3.560000000000000142e+01,1.252310939051769489e-01
3.564000000000000057e+01,9.862943506925689330e-02
3.567999999999999972e+01,1.150666405967967487e-01
3.571999999999999886e+01,1.152310309041178343e-01
3.575999999999999801e+01,1.222174217514585132e-01
3.579999999999999716e+01,1.055826510323088774e-01
3.584000000000000341e+01,9.629476654613526587e-02
3.588000000000000256e+01,1.069509413342058513e-01
3.592000000000000171e+01,7.299067445335673254e-02
3.596000000000000085e+01,7.157164166652431325e-02
3.600000000000000000e+01,1.021689626162637782e-01
3.603999999999999915e+01,1.096700148064843616e-01
3.607999999999999829e+01,1.229433174928584865e-01
3.611999999999999744e+01,1.251926441035375592e-01
3.615999999999999659e+01,1.158931142810767367e-01
3.620000000000000284e+01,1.270625400968397878e-01
3.624000000000000199e+01,9.466530274361080466e-02
3.628000000000000114e+01,1.058318385673481660e-01
3.632000000000000028e+01,9.075282526540263961e-02
3.635999999999999943e+01,1.260610564647619281e-01
3.639999999999999858e+01,1.309246850078578939e-01
3.643999999999999773e+01,1.216150588875981875e-01
3.647999999999999687e+01,1.191274653204277834e-01
3.652000000000000313e+01,1.271360810364902394e-01
3.656000000000000227e+01,1.057498654822014578e-01
3.660000000000000142e+01,1.546964262662846590e-01
3.664000000000000057e+01,1.637505166180542870e-01
3.667999999999999972e+01,1.502332488023150892e-01
3.671999999999999886e+01,1.813295379989817713e-01
3.675999999999999801e+01,1.384160232621925168e-01
3.679999999999999716e+01,1.800071114269043981e-01
3.684000000000000341e+01,1.386654029040431668e-01
3.688000000000000256e+01,1.765794794802055812e-01
3.692000000000000171e+01,1.651532196265078911e-01
3.696000000000000085e+01,1.663227171633795409e-01
3.700000000000000000e+01,1.874363237726035802e-01
3.703999999999999915e+01,2.258696305529412085e-01
3.707999999999999829e+01,1.934424404435448608e-01
3.711999999999999744e+01,2.334475783368643864e-01
3.715999999999999659e+01,2.004926943536637085e-01
3.720000000000000284e+01,2.284227349393192497e-01
3.724000000000000199e+01,2.458537313833362714e-01
3.728000000000000114e+01,2.842786136211296055e-01
3.732000000000000028e+01,2.476439525526238083e-01
3.735999999999999943e+01,2.446003520976666734e-01
3.739999999999999858e+01,3.187130313184893815e-01
3.743999999999999773e+01,2.883727729554074748e-01
3.747999999999999687e+01,3.467362048159804977e-01
3.752000000000000313e+01,3.652072053713245059e-01
3.756000000000000227e+01,3.983735185385897659e-01
3.760000000000000142e+01,3.979459895890161136e-01
3.764000000000000057e+01,4.232363016632901820e-01
3.767999999999999972e+01,4.721449279961220102e-01
3.771999999999999886e+01,4.785367212365015388e-01
3.775999999999999801e+01,4.886013111264027597e-01
3.779999999999999716e+01,4.514251322573225034e-01
3.784000000000000341e+01,5.124005380655055619e-01
3.788000000000000256e+01,5.676008674116481689e-01
3.792000000000000171e+01,6.070533614912324571e-01
3.796000000000000085e+01,6.648753609194162362e-01
3.800000000000000000e+01,6.618096649464765280e-01
3.803999999999999915e+01,6.975838811811363449e-01
3.807999999999999829e+01,7.685238364502596786e-01
3.811999999999999744e+01,8.431366043754391359e-01
3.815999999999999659e+01,8.615856232370474599e-01
3.820000000000000284e+01,8.999788045261238878e-01
3.824000000000000199e+01,8.969049401151951706e-01
3.828000000000000114e+01,9.342456449907345917e-01
3.832000000000000028e+01,9.490150646174235760e-01
3.835999999999999943e+01,1.000000000000000000e+00
3.839999999999999858e+01,9.612287402893229249e-01
3.843999999999999773e+01,9.361030680457551600e-01
3.847999999999999687e+01,9.020530532020135661e-01
3.852000000000000313e+01,9.294129037537041116e-01
3.856000000000000227e+01,9.205545441929057215e-01
3.860000000000000142e+01,8.985727902798571476e-01
3.864000000000000057e+01,9.033586861251498012e-01
3.867999999999999972e+01,8.252118670940468137e-01
3.871999999999999886e+01,8.252711507012479020e-01
3.875999999999999801e+01,8.069582257107290602e-01
3.879999999999999716e+01,7.524271012787441260e-01
3.884000000000000341e+01,7.236138712257228489e-01
3.888000000000000256e+01,7.514865833511319426e-01
3.892000000000000171e+01,6.817298914646093833e-01
3.896000000000000085e+01,6.760074952168043660e-01
3.900000000000000000e+01,6.477138439547142079e-01
3.903999999999999915e+01,5.957991751849458506e-01
3.907999999999999829e+01,5.832493469998260016e-01
3.911999999999999744e+01,6.216117681687252094e-01
3.915999999999999659e+01,5.035579967704822968e-01
3.920000000000000284e+01,5.088502130441624471e-01
3.924000000000000199e+01,5.046932383732939398e-01
3.928000000000000114e+01,4.816391960893068869e-01
3.932000000000000028e+01,4.454617914661392897e-01
3.935999999999999943e+01,4.024596119136768513e-01
3.939999999999999858e+01,4.287405689229593642e-01
3.943999999999999773e+01,4.025320087324333884e-01
3.947999999999999687e+01,4.471812350685054338e-01
3.952000000000000313e+01,3.527353953302712064e-01
3.956000000000000227e+01,3.475182204338408964e-01
3.960000000000000142e+01,3.501729810856976655e-01
3.964000000000000057e+01,3.533513291610659857e-01
3.967999999999999972e+01,3.381575095443032364e-01
3.971999999999999886e+01,3.250619273159052747e-01
3.975999999999999801e+01,3.355847518282655262e-01
3.979999999999999716e+01,3.088396570898592763e-01
3.984000000000000341e+01,3.156857332322406950e-01
3.988000000000000256e+01,3.025850041671647728e-01
3.992000000000000171e+01,2.968313427424582596e-01
3.996000000000000085e+01,2.968501043287794516e-01
4.000000000000000000e+01,2.769220660431546688e-01
4.003999999999999915e+01,2.417711688876242604e-01
4.007999999999999829e+01,2.806273777519411872e-01
4.011999999999999744e+01,2.528222819804051835e-01
4.015999999999999659e+01,2.617576641333788090e-01
4.020000000000000284e+01,2.538955481226171651e-01
4.024000000000000199e+01,2.544302782521525863e-01
4.028000000000000114e+01,2.460407458141881110e-01
4.032000000000000028e+01,2.324011275388671027e-01
4.035999999999999943e+01,2.250588321955609150e-01
4.039999999999999858e+01,2.418598541850231487e-01
4.043999999999999773e+01,2.345150387784935841e-01
4.047999999999999687e+01,2.156215590172405883e-01
4.052000000000000313e+01,2.150976984288338612e-01
4.056000000000000227e+01,2.618119762689458674e-01
4.060000000000000142e+01,2.156208640178255143e-01
4.064000000000000057e+01,1.951477261783419737e-01
4.067999999999999972e+01,2.003925645289994784e-01
4.071999999999999886e+01,2.287309701685591168e-01
4.075999999999999801e+01,2.796380627395762541e-01
4.079999999999999716e+01,2.239928385772187447e-01
4.084000000000000341e+01,2.423547542262814158e-01
4.088000000000000256e+01,2.307971485474610562e-01
4.092000000000000171e+01,2.265866549716065437e-01
4.096000000000000085e+01,2.103026362471265009e-01
4.100000000000000000e+01,1.887685619198554987e-01
4.103999999999999915e+01,1.787806621186499301e-01
4.107999999999999829e+01,2.044835168756458377e-01
4.111999999999999744e+01,2.086649751509583317e-01
4.115999999999999659e+01,1.755785746446353879e-01
4.120000000000000284e+01,1.797575804398709454e-01
4.124000000000000199e+01,1.996818267412796555e-01
4.128000000000000114e+01,1.991344479469172590e-01
4.132000000000000028e+01,1.875633242823609714e-01
4.135999999999999943e+01,1.870135072359525030e-01
4.139999999999999858e+01,2.011591735378356338e-01
4.143999999999999773e+01,1.696388793324339617e-01
4.147999999999999687e+01,1.580628933918166168e-01
4.152000000000000313e+01,2.068471419625236285e-01
4.156000000000000227e+01,1.879203856516196425e-01
4.160000000000000142e+01,1.910374714848057098e-01
4.164000000000000057e+01,1.159459132744179860e-01
4.167999999999999972e+01,2.061910238790744254e-01
4.171999999999999886e+01,1.951326800154297436e-01
4.175999999999999801e+01,1.992947176425597655e-01
4.179999999999999716e+01,1.782612140709321225e-01
4.184000000000000341e+01,1.839955025379544085e-01
4.188000000000000256e+01,1.503624356926166195e-01
4.192000000000000171e+01,1.944107316299430455e-01
4.196000000000000085e+01,1.912184437726892616e-01
4.200000000000000000e+01,2.037714302131817812e-01
4.203999999999999915e+01,2.068753502043954862e-01
4.207999999999999829e+01,1.433180527064453758e-01
4.211999999999999744e+01,1.653153589229062470e-01
4.215999999999999659e+01,2.009584180073349380e-01
4.220000000000000284e+01,2.198040678532209025e-01
4.224000000000000199e+01,1.672645681004217844e-01
4.228000000000000114e+01,1.871576257773362451e-01
4.232000000000000028e+01,1.661087012975877575e-01
4.235999999999999943e+01,1.943975238228254354e-01
4.239999999999999858e+01,1.791199570686650977e-01
4.243999999999999773e+01,1.727642164084626786e-01
4.247999999999999687e+01,2.078729960495305229e-01
4.252000000000000313e+01,1.647731707741094120e-01
4.256000000000000227e+01,2.103772615923331368e-01
4.260000000000000142e+01,2.202882040629057236e-01
4.264000000000000057e+01,1.813839465656183203e-01
4.267999999999999972e+01,2.117629714673920360e-01
4.271999999999999886e+01,2.085483819008204232e-01
4.275999999999999801e+01,2.032331078013185910e-01
4.279999999999999716e+01,1.763965119172953566e-01
4.284000000000000341e+01,1.889249237972827067e-01
4.288000000000000256e+01,2.486915772590124474e-01
4.292000000000000171e+01,2.076797117435057183e-01
4.296000000000000085e+01,2.370009053484838923e-01
4.300000000000000000e+01,2.568730751882757346e-01
4.303999999999999915e+01,2.331788842047312904e-01
4.307999999999999829e+01,2.477999473843237321e-01
4.311999999999999744e+01,2.681935740767485421e-01
4.315999999999999659e+01,2.528940773205763937e-01
4.320000000000000284e+01,2.360187977309651242e-01
4.324000000000000199e+01,2.474860188354841284e-01
4.328000000000000114e+01,2.883455066845344028e-01
4.332000000000000028e+01,2.756658855767534777e-01
4.335999999999999943e+01,3.091747631208642266e-01
4.339999999999999858e+01,2.959680030324821631e-01
4.343999999999999773e+01,2.622897138875372458e-01
4.347999999999999687e+01,2.632525217391281647e-01
4.352000000000000313e+01,2.741869679761783085e-01
4.356000000000000227e+01,2.751475332111474881e-01
4.360000000000000142e+01,2.435642873767533134e-01
4.364000000000000057e+01,2.775901916738730546e-01
4.367999999999999972e+01,2.407558925343951384e-01
4.371999999999999886e+01,2.705805113553359509e-01
4.375999999999999801e+01,2.584134477738553315e-01
4.379999999999999716e+01,2.693400884260738759e-01
4.384000000000000341e+01,2.629445106224591600e-01
4.388000000000000256e+01,2.497243588604858011e-01
4.392000000000000171e+01,2.323040455983999275e-01
4.396000000000000085e+01,2.484750864029991180e-01
4.400000000000000000e+01,2.672694370318244306e-01
4.403999999999999915e+01,2.766148101365635825e-01
4.407999999999999829e+01,2.612896255532136114e-01
4.411999999999999744e+01,2.753567450629759161e-01
4.415999999999999659e+01,2.941467100547736080e-01
4.420000000000000284e+01,3.066369974521919728e-01
4.424000000000000199e+01,2.928820878676907657e-01
4.428000000000000114e+01,3.032706681308322549e-01
4.432000000000000028e+01,2.611699481716359128e-01
4.435999999999999943e+01,2.652577713269276827e-01
4.439999999999999858e+01,2.997876752967555403e-01
4.443999999999999773e+01,3.038733340895952151e-01
4.447999999999999687e+01,3.305278452147512036e-01
4.452000000000000313e+01,2.768743118048168084e-01
4.456000000000000227e+01,2.646853911783533797e-01
4.460000000000000142e+01,2.971103779295552472e-01
4.464000000000000057e+01,2.943671891727516199e-01
4.467999999999999972e+01,2.522567695988578995e-01
4.471999999999999886e+01,2.468870306989136565e-01
4.475999999999999801e+01,2.289190534722616299e-01
4.479999999999999716e+01,2.639631066909708945e-01
4.484000000000000341e+01,2.412690614484071239e-01
4.488000000000000256e+01,2.474424719545806339e-01
4.492000000000000171e+01,2.541397046467747667e-01
4.496000000000000085e+01,2.540124114002141331e-01
4.500000000000000000e+01,2.286897192352043973e-01
4.503999999999999915e+01,2.453565433316601263e-01
4.507999999999999829e+01,2.069096903176087798e-01
4.511999999999999744e+01,2.067781821703909562e-01
4.515999999999999659e+01,2.271160280462607983e-01
4.520000000000000284e+01,1.981139056425688383e-01
4.524000000000000199e+01,2.095266619850161272e-01
4.528000000000000114e+01,1.983684425382837846e-01
4.532000000000000028e+01,2.108288770443456084e-01
4.535999999999999943e+01,2.001934571822872044e-01
4.539999999999999858e+01,1.711861239541492274e-01
4.543999999999999773e+01,1.615983929267286179e-01
4.547999999999999687e+01,1.850772014131910337e-01
4.552000000000000313e+01,1.754874020625268871e-01
4.556000000000000227e+01,1.433266393722098797e-01
4.560000000000000142e+01,1.458070679391333946e-01
4.564000000000000057e+01,1.456620578894557427e-01
4.567999999999999972e+01,9.670198303821109231e-02
4.571999999999999886e+01,1.448440789575921595e-01
4.575999999999999801e+01,1.599175777108696184e-01
4.579999999999999716e+01,1.455966560281868605e-01
4.584000000000000341e+01,1.433470044279810118e-01
4.588000000000000256e+01,1.300738107070212313e-01
4.592000000000000171e+01,1.383197690726191420e-01
4.596000000000000085e+01,1.203206069319635446e-01
4.600000000000000000e+01,1.107185470361606583e-01
4.603999999999999915e+01,1.100384732996627785e-01
4.607999999999999829e+01,1.146062125493341050e-01
4.611999999999999744e+01,8.977954559107617638e-02
4.615999999999999659e+01,9.801944838126676329e-02
4.620000000000000284e+01,1.162311087166749135e-01
4.624000000000000199e+01,1.081976609953565621e-01
4.628000000000000114e+01,7.444398913176392130e-02
4.632000000000000028e+01,1.141728185986713995e-01
4.635999999999999943e+01,9.248944223581287427e-02
4.639999999999999858e+01,1.096463497878600174e-01
4.643999999999999773e+01,7.483893351422203633e-02
4.647999999999999687e+01,6.522486917783579252e-02
4.652000000000000313e+01,8.605297991669037805e-02
4.656000000000000227e+01,7.486229333141529441e-02
4.660000000000000142e+01,9.043961042674907025e-02
4.664000000000000057e+01,9.551830132885036351e-02
4.667999999999999972e+01,9.639695344760541851e-02
4.671999999999999886e+01,6.473193322029799357e-02
4.675999999999999801e+01,9.815131971185661608e-02
4.679999999999999716e+01,1.320946119791174822e-01
4.684000000000000341e+01,7.943137723312940213e-02
4.688000000000000256e+01,8.555396891013700156e-02
4.692000000000000171e+01,7.802865402774808445e-02
4.696000000000000085e+01,7.102725203507651019e-02
4.700000000000000000e+01,6.664929325442028873e-02
4.703999999999999915e+01,9.061400412576080254e-02
4.707999999999999829e+01,5.789048040394152023e-02
4.711999999999999744e+01,5.141010134733262071e-02
4.715999999999999659e+01,7.747145436582007771e-02
4.720000000000000284e+01,5.734222084562983629e-02
4.724000000000000199e+01,3.511250198494137581e-02
4.728000000000000114e+01,4.175034558322128497e-02
4.732000000000000028e+01,7.200693205948821563e-02
4.735999999999999943e+01,7.181940318954825597e-02
4.739999999999999858e+01,7.635486386045646501e-02
4.743999999999999773e+01,8.036449449123130029e-02
4.747999999999999687e+01,9.172152889960431821e-02
4.752000000000000313e+01,6.423634090060986734e-02
4.756000000000000227e+01,5.827037790683129576e-02
4.760000000000000142e+01,7.592317024056691177e-02
4.764000000000000057e+01,5.473374550244639730e-02
4.767999999999999972e+01,5.716307964884758536e-02
4.771999999999999886e+01,6.484029970007608445e-02
4.775999999999999801e+01,5.729500413264353859e-02
4.779999999999999716e+01,6.602012288196507095e-02
4.784000000000000341e+01,6.844572588075804875e-02
4.788000000000000256e+01,8.609198248141569643e-02
4.792000000000000171e+01,6.647068086758980976e-02
4.796000000000000085e+01,6.049539000479070561e-02
4.800000000000000000e+01,3.667318351461112264e-02
4.803999999999999915e+01,3.961904473117916492e-02
4.807999999999999829e+01,5.936021484997662523e-02
4.811999999999999744e+01,4.918218555008921355e-02
4.815999999999999659e+01,6.052340793297560778e-02
4.820000000000000284e+01,5.296795930910383476e-02
4.824000000000000199e+01,5.066041971060948612e-02
4.828000000000000114e+01,5.150126237220239989e-02
4.832000000000000028e+01,3.816937858608529521e-02
4.835999999999999943e+01,5.737928023018030316e-02
4.839999999999999858e+01,5.559299121624225459e-02
4.843999999999999773e+01,7.585084847055373336e-02
4.847999999999999687e+01,5.464211532184732462e-02
4.852000000000000313e+01,7.122399607685379885e-02
4.856000000000000227e+01,4.896370066559289219e-02
4.860000000000000142e+01,6.606866912289793836e-02
4.864000000000000057e+01,3.698311506766406576e-02
4.867999999999999972e+01,2.836707154385716828e-02
4.871999999999999886e+01,2.814825120316528581e-02
4.875999999999999801e+01,4.997359135875380221e-02
4.879999999999999716e+01,6.235016563221500163e-02
4.884000000000000341e+01,4.428269036411222603e-02
4.888000000000000256e+01,4.301055956831613403e-02
4.892000000000000171e+01,5.066054298410276741e-02
4.896000000000000085e+01,5.935941035074818184e-02
4.900000000000000000e+01,3.446494247415368695e-02
4.903999999999999915e+01,1.901747628060212331e-02
4.907999999999999829e+01,3.611182753033202047e-02
4.911999999999999744e+01,3.955837003837763682e-02
4.915999999999999659e+01,4.247915898195570028e-02
4.920000000000000284e+01,6.062066021802569454e-02
4.924000000000000199e+01,3.309654775506300911e-02
4.928000000000000114e+01,3.076591172462191104e-02
4.932000000000000028e+01,6.307663235227976839e-02
4.935999999999999943e+01,6.126915160728393928e-02
4.939999999999999858e+01,7.468239204729933134e-02
4.943999999999999773e+01,8.389571642073463675e-02
4.947999999999999687e+01,4.061996999882948323e-02
4.952000000000000313e+01,5.927946019686573115e-02
4.956000000000000227e+01,4.644516859451019997e-02
4.960000000000000142e+01,4.988137134158223546e-02
4.964000000000000057e+01,4.334396341915974782e-02
4.967999999999999972e+01,6.304981398619431687e-02
4.971999999999999886e+01,3.551542578839705921e-02
4.975999999999999801e+01,6.361769925018181948e-02
4.979999999999999716e+01,6.075108371854643502e-02
4.984000000000000341e+01,8.412773379038383792e-02
4.988000000000000256e+01,5.186603803622831521e-02
4.992000000000000171e+01,4.269831862686195717e-02
4.996000000000000085e+01,7.552033423493564879e-02
5.000000000000000000e+01,3.590778100217515562e-02
5.003999999999999915e+01,7.240230518051614383e-02
5.007999999999999829e+01,6.113172446461134779e-02
5.011999999999999744e+01,7.715418607360330361e-02
5.015999999999999659e+01,6.535706751140103743e-02
5.020000000000000284e+01,7.875346628730900411e-02
5.024000000000000199e+01,8.899974883861103137e-02
5.028000000000000114e+01,5.882928529146581875e-02
5.032000000000000028e+01,5.332746228199398975e-02
5.035999999999999943e+01,6.567081382136852330e-02
5.039999999999999858e+01,9.480957741619637502e-02
5.043999999999999773e+01,4.206591328665931079e-02
5.047999999999999687e+01,6.385469972392039673e-02
5.052000000000000313e+01,8.091873597825707809e-02
5.056000000000000227e+01,4.864304227254869634e-02
5.060000000000000142e+01,7.095428330310619980e-02
5.064000000000000057e+01,6.492108336856738937e-02
5.067999999999999972e+01,5.626266890891343936e-02
5.071999999999999886e+01,4.025510247911172346e-02
5.075999999999999801e+01,6.518754236492987908e-02
5.079999999999999716e+01,7.857177675001958406e-02
5.084000000000000341e+01,5.258905420761332550e-02
5.088000000000000256e+01,3.657829729537564328e-02
5.092000000000000171e+01,5.625873245328810029e-02
5.096000000000000085e+01,4.024639097085572909e-02
5.100000000000000000e+01,6.569894861101487071e-02
5.103999999999999915e+01,6.175731879921918244e-02
5.107999999999999829e+01,6.621301710226581982e-02
5.111999999999999744e+01,5.282193850123274165e-02
5.115999999999999659e+01,1.895967409488120980e-02
5.120000000000000284e+01,5.018201382132396471e-02
5.124000000000000199e+01,4.518670722100024545e-02
5.128000000000000114e+01,5.436244112347212581e-02
5.132000000000000028e+01,5.986322468499344351e-02
5.135999999999999943e+01,5.749000259648013450e-02
5.139999999999999858e+01,4.094419100505363590e-02
5.143999999999999773e+01,7.898535149847417391e-02
5.147999999999999687e+01,7.241076216097522278e-02
5.152000000000000313e+01,5.953682069530247256e-02
5.156000000000000227e+01,5.663487509436402473e-02
5.160000000000000142e+01,5.215752014579626283e-02
5.164000000000000057e+01,6.185122170655860813e-02
5.167999999999999972e+01,7.364369242833904150e-02
5.171999999999999886e+01,6.286547370006095869e-02
5.175999999999999801e+01,2.951656730022803043e-02
5.179999999999999716e+01,3.920724200090938000e-02
5.184000000000000341e+01,7.041733200671962400e-02
5.188000000000000256e+01,4.074034375224445947e-02
5.192000000000000171e+01,7.457334523578749985e-02
5.196000000000000085e+01,6.326573609450865388e-02
5.200000000000000000e+01,3.883532839977175272e-02
5.203999999999999915e+01,4.327269480596199203e-02
5.207999999999999829e+01,3.406238407975327454e-02
5.211999999999999744e+01,6.946631508993532378e-02
5.215999999999999659e+01,4.398318028935904039e-02
5.220000000000000284e+01,6.258940864623262212e-02
5.224000000000000199e+01,5.127662077031857474e-02
5.228000000000000114e+01,6.410767844281831107e-02
5.232000000000000028e+01,5.069389839117746654e-02
5.235999999999999943e+01,5.302585326978186825e-02
5.239999999999999858e+01,9.104906602317916486e-02
5.243999999999999773e+01,5.138899706499246850e-02
5.247999999999999687e+01,5.161924662619452042e-02
5.252000000000000313e+01,4.502530638587076695e-02
5.256000000000000227e+01,4.157993870554686777e-02
5.260000000000000142e+01,3.603432400424148169e-02
5.264000000000000057e+01,6.775462425659790899e-02
5.267999999999999972e+01,5.380946376125311098e-02
5.271999999999999886e+01,3.408988662879879061e-02
5.275999999999999801e+01,4.743717269792948471e-02
5.279999999999999716e+01,5.710957423075260775e-02
5.284000000000000341e+01,7.885355708422733811e-02
5.288000000000000256e+01,8.590013410348315559e-02
5.292000000000000171e+01,4.990567172580377686e-02
5.296000000000000085e+01,5.852548843309607340e-02
5.300000000000000000e+01,5.717184386521766831e-02
5.303999999999999915e+01,6.106632174317962181e-02
5.307999999999999829e+01,4.868875627159623132e-02
5.311999999999999744e+01,5.573113447347097238e-02
5.315999999999999659e+01,3.915312297952898424e-02
5.320000000000000284e+01,4.409458725984678751e-02
5.324000000000000199e+01,6.268229705370054194e-02
5.328000000000000114e+01,6.499797239052836073e-02
5.332000000000000028e+01,6.521343271944429754e-02
5.335999999999999943e+01,5.650521205162112315e-02
5.339999999999999858e+01,3.519913721392330108e-02
5.343999999999999773e+01,5.955712707514049242e-02
5.347999999999999687e+01,5.084686302149826059e-02
5.352000000000000313e+01,4.633497848384563605e-02
5.356000000000000227e+01,3.552383252171611300e-02
5.360000000000000142e+01,5.725470497380375640e-02
5.364000000000000057e+01,4.749197703289308875e-02
5.367999999999999972e+01,5.032574989716369351e-02
5.371999999999999886e+01,6.208185039348001338e-02
5.375999999999999801e+01,7.121287330947810579e-02
5.379999999999999716e+01,7.456952760797080915e-02
5.384000000000000341e+01,4.958188322167563639e-02
5.388000000000000256e+01,5.398697688343361695e-02
5.392000000000000171e+01,3.739612532069076095e-02
5.396000000000000085e+01,5.754636526628816029e-02
5.400000000000000000e+01,8.451941674966395590e-02
5.403999999999999915e+01,6.320265727472723638e-02
5.407999999999999829e+01,6.393029483708377592e-02
5.411999999999999744e+01,5.310987451453228619e-02
5.415999999999999659e+01,4.071415866859804528e-02
5.420000000000000284e+01,4.931308092357164496e-02
5.424000000000000199e+01,8.520522868933921856e-02
5.428000000000000114e+01,6.965828335212626010e-02
5.432000000000000028e+01,6.565810300425918566e-02
5.435999999999999943e+01,6.895984987213779616e-02
5.439999999999999858e+01,6.124026659115241328e-02
5.443999999999999773e+01,7.053298728774660964e-02
5.447999999999999687e+01,6.183899519912114395e-02
5.452000000000000313e+01,6.036939486168142743e-02
5.456000000000000227e+01,7.509700276343607428e-02
5.460000000000000142e+01,8.137743761934357334e-02
5.464000000000000057e+01,7.385698186767335194e-02
5.467999999999999972e+01,6.259354236881335687e-02
5.471999999999999886e+01,7.094741614973791577e-02
5.475999999999999801e+01,7.416282536646121026e-02
5.479999999999999716e+01,7.076521443900547770e-02
5.484000000000000341e+01,6.518251611553357860e-02
5.488000000000000256e+01,4.631579487321756117e-02
5.492000000000000171e+01,7.220094518657733940e-02
5.496000000000000085e+01,6.686094150485835663e-02
5.500000000000000000e+01,6.743493788174953485e-02
5.503999999999999915e+01,6.196362896143661758e-02
5.507999999999999829e+01,5.013748792046722469e-02
5.511999999999999744e+01,6.559714593559698437e-02
5.515999999999999659e+01,7.541936375281572957e-02
5.520000000000000284e+01,7.219201220811317932e-02
5.524000000000000199e+01,6.226280237326069222e-02
5.528000000000000114e+01,6.706815537257146409e-02
5.532000000000000028e+01,6.380852086591004557e-02
5.535999999999999943e+01,5.119027663083959567e-02
5.539999999999999858e+01,6.797604457724634730e-02
5.543999999999999773e+01,7.809283722390653049e-02
5.547999999999999687e+01,8.134393492872149523e-02
5.552000000000000313e+01,6.500993171519797720e-02
5.556000000000000227e+01,7.117700839191025419e-02
5.560000000000000142e+01,5.254509231339903053e-02
5.564000000000000057e+01,5.746449332535050886e-02
5.567999999999999972e+01,6.977918653915810010e-02
5.571999999999999886e+01,7.040571268256666515e-02
5.575999999999999801e+01,5.488350606810635940e-02
5.579999999999999716e+01,5.995775102034495846e-02
5.584000000000000341e+01,6.055655796612237352e-02
5.588000000000000256e+01,7.239822018147004656e-02
5.592000000000000171e+01,6.468936592263600793e-02
5.596000000000000085e+01,8.494787614945677190e-02
5.600000000000000000e+01,9.184004289331558490e-02
5.603999999999999915e+01,8.816002631876546092e-02
5.607999999999999829e+01,7.809205375975188101e-02
5.611999999999999744e+01,8.511369611539389146e-02
5.615999999999999659e+01,7.766130965949330500e-02
5.620000000000000284e+01,8.549709749365728972e-02
5.624000000000000199e+01,9.233471874786258748e-02
5.628000000000000114e+01,9.032928648492037638e-02
5.632000000000000028e+01,8.923178079533772289e-02
5.635999999999999943e+01,8.776821042093974068e-02
5.639999999999999858e+01,9.092647815820822932e-02
5.643999999999999773e+01,8.651502744794929700e-02
5.647999999999999687e+01,8.962605911317550467e-02
5.652000000000000313e+01,8.568396274090310516e-02
5.656000000000000227e+01,8.814342090960669562e-02
5.660000000000000142e+01,8.633733025921613846e-02
5.664000000000000057e+01,9.114570642198621675e-02
5.667999999999999972e+01,9.164891195083431363e-02
5.671999999999999886e+01,8.121278742426477071e-02
5.675999999999999801e+01,7.794070563318618305e-02
5.679999999999999716e+01,8.345608371470066011e-02
5.684000000000000341e+01,9.703318026338289548e-02
5.688000000000000256e+01,8.911261066848454038e-02
5.692000000000000171e+01,6.958215705107138882e-02
5.696000000000000085e+01,8.945736533909703914e-02
5.700000000000000000e+01,7.850793362905120198e-02
5.703999999999999915e+01,8.531536713480344924e-02
5.707999999999999829e+01,7.473561858072413910e-02
5.711999999999999744e+01,6.939064245888347526e-02
5.715999999999999659e+01,9.575919169395744057e-02
5.720000000000000284e+01,9.122104586995545550e-02
5.724000000000000199e+01,9.487947724681880524e-02
5.728000000000000114e+01,8.868575683202578608e-02
5.732000000000000028e+01,7.512989446421053374e-02
5.735999999999999943e+01,9.824858146634946054e-02
5.739999999999999858e+01,6.641575930351516222e-02
5.743999999999999773e+01,8.383670155277274383e-02
5.747999999999999687e+01,8.041400042497827416e-02
5.752000000000000313e+01,8.015307908246475932e-02
5.756000000000000227e+01,1.060425493790250751e-01
5.760000000000000142e+01,9.202301657199657425e-02
5.764000000000000057e+01,7.590346083547258593e-02
5.767999999999999972e+01,7.290546589046414949e-02
5.771999999999999886e+01,6.728256943701933779e-02
5.775999999999999801e+01,9.262722995434745366e-02
5.779999999999999716e+01,8.857800358687249742e-02
5.784000000000000341e+01,1.081479878438986741e-01
5.788000000000000256e+01,9.832408877312946716e-02
5.792000000000000171e+01,9.322364698972269992e-02
5.796000000000000085e+01,7.552555378588059198e-02
5.800000000000000000e+01,6.832462492184235292e-02
5.803999999999999915e+01,7.739456567154531785e-02
5.807999999999999829e+01,9.486214577426586858e-02
5.811999999999999744e+01,1.086550778816914864e-01
5.815999999999999659e+01,1.182484816363776753e-01
5.820000000000000284e+01,9.004990211612300122e-02
5.824000000000000199e+01,1.006921329479151944e-01
5.828000000000000114e+01,8.823908386833276274e-02
5.832000000000000028e+01,9.520620966770992899e-02
5.835999999999999943e+01,8.275223406435962270e-02
5.839999999999999858e+01,7.869591204205760027e-02
5.843999999999999773e+01,9.353488809827799344e-02
5.847999999999999687e+01,9.682600012651063071e-02
5.852000000000000313e+01,1.190124137902733303e-01
5.856000000000000227e+01,9.500874601045353196e-02
5.860000000000000142e+01,1.087961403173185321e-01
5.864000000000000057e+01,1.131352062540050135e-01
5.867999999999999972e+01,1.143245312303991790e-01
5.871999999999999886e+01,1.249612882877695896e-01
5.875999999999999801e+01,1.014802619208925866e-01
5.879999999999999716e+01,8.429737837630819908e-02
5.884000000000000341e+01,1.064802139972773065e-01
5.888000000000000256e+01,8.877156803407698638e-02
5.892000000000000171e+01,1.162023482888713960e-01
5.896000000000000085e+01,8.799518643804836449e-02
5.900000000000000000e+01,1.033528079543824807e-01
5.903999999999999915e+01,1.108367652934222486e-01
5.907999999999999829e+01,9.260106761142181120e-02
5.911999999999999744e+01,1.048081052333771496e-01
5.915999999999999659e+01,1.217386552763141117e-01
5.920000000000000284e+01,8.303127388465679493e-02
5.924000000000000199e+01,1.099337362410176683e-01
5.928000000000000114e+01,1.231888415956735733e-01
5.932000000000000028e+01,1.191224167754887930e-01
5.935999999999999943e+01,8.986123151973943179e-02
5.939999999999999858e+01,1.083639045037739362e-01
5.943999999999999773e+01,1.195178132315011660e-01
5.947999999999999687e+01,1.012779097715871546e-01
5.952000000000000313e+01,9.615964891436618034e-02
5.956000000000000227e+01,1.010137396226506029e-01
5.960000000000000142e+01,8.749654833372445817e-02
5.964000000000000057e+01,8.447659430326032171e-02
5.967999999999999972e+01,1.255463360104669968e-01
5.971999999999999886e+01,1.115030515395780547e-01
5.975999999999999801e+01,1.132058310221478042e-01
5.979999999999999716e+01,1.091345086627907995e-01
5.984000000000000341e+01,1.187097252701058842e-01
5.988000000000000256e+01,1.078141437859434226e-01
5.992000000000000171e+01,1.074158120097696706e-01
5.996000000000000085e+01,1.295870208469045437e-01
