5.0400,0.416
5.0800,0.286
5.1200,0.457
5.1600,0.219
5.2000,0.121
5.2400,0.282
5.2800,0.451
5.3200,0.135
5.3600,0.405
5.4000,0.282
5.4400,0.249
5.4800,0.219
5.5200,0.117
5.5600,0.186
5.6000,-0.037
5.6400,0.300
5.6800,0.270
5.7200,0.075
5.7600,-0.136
5.8000,0.067
5.8400,0.143
5.8800,0.027
5.9200,-0.238
5.9600,0.022
6.0000,-0.175
6.0400,-0.016
6.0800,-0.285
6.1200,0.131
6.1600,-0.049
6.2000,0.048
6.2400,0.133
6.2800,-0.001
6.3200,-0.126
6.3600,-0.025
6.4000,0.041
6.4400,-0.027
6.4800,-0.111
6.5200,0.056
6.5600,-0.005
6.6000,-0.118
6.6400,-0.093
6.6800,0.242
6.7200,-0.025
6.7600,-0.025
6.8000,-0.096
6.8400,0.068
6.8800,0.170
6.9200,0.032
6.9600,0.066
7.0000,-0.145
7.0400,0.021
7.0800,0.080
7.1200,0.007
7.1600,-0.029
7.2000,-0.144
7.2400,0.019
7.2800,-0.019
7.3200,0.108
7.3600,0.076
7.4000,0.022
7.4400,-0.083
7.4800,-0.078
7.5200,0.024
7.5600,-0.056
7.6000,0.002
7.6400,-0.105
7.6800,-0.118
7.7200,0.092
7.7600,0.252
7.8000,0.171
7.8400,0.021
7.8800,-0.041
7.9200,-0.069
7.9600,-0.102
8.0000,0.048
8.0400,-0.082
8.0800,-0.074
8.1200,-0.102
8.1600,0.030
8.2000,0.076
8.2400,-0.051
8.2800,-0.070
8.3200,-0.022
8.3600,0.121
8.4000,0.373
8.4400,0.017
8.4800,-0.026
8.5200,0.012
8.5600,0.169
8.6000,0.060
8.6400,-0.077
8.6800,0.046
8.7200,-0.020
8.7600,-0.099
8.8000,-0.054
8.8400,-0.140
8.8800,0.061
8.9200,-0.036
8.9600,0.176
9.0000,0.279
9.0400,-0.142
9.0800,-0.060
9.1200,-0.009
9.1600,-0.066
9.2000,0.073
9.2400,0.090
9.2800,-0.020
9.3200,0.013
9.3600,-0.047
9.4000,-0.047
9.4400,0.112
9.4800,0.113
9.5200,-0.014
9.5600,0.104
9.6000,0.086
9.6400,0.097
9.6800,0.149
9.7200,-0.095
9.7600,-0.188
9.8000,0.102
9.8400,-0.078
9.8800,0.016
9.9200,-0.003
9.9600,-0.038
10.0000,-0.046
10.0400,0.020
10.0800,0.046
10.1200,-0.124
10.1600,0.237
10.2000,0.201
10.2400,0.044
10.2800,-0.023
10.3200,0.211
10.3600,0.078
10.4000,-0.050
10.4400,0.052
10.4800,-0.116
10.5200,-0.053
10.5600,-0.058
10.6000,0.140
10.6400,-0.042
10.6800,-0.059
10.7200,0.015
10.7600,0.001
10.8000,-0.002
10.8400,-0.082
10.8800,-0.040
10.9200,-0.094
10.9600,-0.002
11.0000,0.048
11.0400,-0.221
11.0800,-0.049
11.1200,0.001
11.1600,0.054
11.2000,-0.172
11.2400,-0.042
11.2800,0.077
11.3200,0.001
11.3600,0.016
11.4000,-0.225
11.4400,0.039
11.4800,-0.010
11.5200,-0.151
11.5600,0.026
11.6000,-0.009
11.6400,0.001
11.6800,0.097
11.7200,0.102
11.7600,-0.012
11.8000,0.004
11.8400,-0.214
11.8800,0.072
11.9200,-0.232
11.9600,0.042
12.0000,-0.029
12.0400,-0.105
12.0800,0.024
12.1200,-0.052
12.1600,-0.094
12.2000,0.060
12.2400,0.126
12.2800,-0.053
12.3200,0.014
12.3600,0.069
12.4000,-0.006
12.4400,0.126
12.4800,0.110
12.5200,-0.142
12.5600,-0.020
12.6000,-0.013
12.6400,0.157
12.6800,-0.011
12.7200,0.028
12.7600,-0.067
12.8000,-0.022
12.8400,0.072
12.8800,-0.113
12.9200,0.067
12.9600,0.193
13.0000,-0.183
13.0400,-0.091
13.0800,0.129
13.1200,-0.180
13.1600,0.039
13.2000,0.000
13.2400,-0.033
13.2800,0.008
13.3200,0.103
13.3600,-0.047
13.4000,0.013
13.4400,-0.044
13.4800,-0.019
13.5200,-0.104
13.5600,0.015
13.6000,-0.175
13.6400,0.094
13.6800,0.111
13.7200,0.237
13.7600,-0.032
13.8000,0.044
13.8400,0.149
13.8800,0.020
13.9200,-0.198
13.9600,-0.027
14.0000,0.224
14.0400,0.185
14.0800,-0.024
14.1200,0.089
14.1600,-0.023
14.2000,0.003
14.2400,0.012
14.2800,0.158
14.3200,0.002
14.3600,-0.032
14.4000,-0.080
14.4400,0.131
14.4800,-0.113
14.5200,0.066
14.5600,-0.021
14.6000,0.148
14.6400,-0.022
14.6800,-0.039
14.7200,0.068
14.7600,0.177
14.8000,-0.024
14.8400,-0.050
14.8800,-0.089
14.9200,0.011
14.9600,-0.005
15.0000,0.034
15.0400,0.014
15.0800,0.126
15.1200,0.017
15.1600,0.017
15.2000,0.062
15.2400,0.030
15.2800,-0.123
15.3200,-0.022
15.3600,0.100
15.4000,-0.062
15.4400,-0.006
15.4800,-0.150
15.5200,0.023
15.5600,-0.009
15.6000,-0.113
15.6400,0.011
15.6800,-0.088
15.7200,-0.050
15.7600,-0.089
15.8000,0.087
15.8400,-0.007
15.8800,0.028
15.9200,0.072
15.9600,-0.053
16.0000,0.038
16.0400,-0.177
16.0800,-0.037
16.1200,0.027
16.1600,-0.042
16.2000,-0.098
16.2400,0.079
16.2800,-0.017
16.3200,0.128
16.3600,0.088
16.4000,-0.046
16.4400,0.052
16.4800,-0.088
16.5200,0.038
16.5600,0.108
16.6000,0.020
16.6400,-0.087
16.6800,-0.049
16.7200,0.149
16.7600,0.011
16.8000,0.106
16.8400,-0.049
16.8800,0.082
16.9200,-0.086
16.9600,0.176
17.0000,0.077
17.0400,0.170
17.0800,0.086
17.1200,0.040
17.1600,0.124
17.2000,-0.107
17.2400,-0.085
17.2800,0.067
17.3200,0.126
17.3600,0.021
17.4000,0.021
17.4400,0.097
17.4800,0.039
17.5200,0.096
17.5600,0.198
17.6000,-0.065
17.6400,-0.070
17.6800,0.112
17.7200,-0.081
17.7600,0.004
17.8000,-0.023
17.8400,0.107
17.8800,-0.072
17.9200,-0.009
17.9600,-0.036
18.0000,0.053
18.0400,-0.010
18.0800,-0.002
18.1200,0.043
18.1600,-0.142
18.2000,0.042
18.2400,0.119
18.2800,0.075
18.3200,0.059
18.3600,-0.054
18.4000,0.039
18.4400,0.012
18.4800,0.001
18.5200,0.087
18.5600,0.026
18.6000,-0.084
18.6400,-0.064
18.6800,0.095
18.7200,0.088
18.7600,0.023
18.8000,-0.012
18.8400,-0.051
18.8800,0.101
18.9200,0.053
18.9600,-0.058
19.0000,0.113
19.0400,-0.036
19.0800,0.066
19.1200,-0.038
19.1600,-0.059
19.2000,0.077
19.2400,-0.045
19.2800,0.040
19.3200,-0.101
19.3600,0.108
19.4000,0.116
19.4400,-0.097
19.4800,-0.117
19.5200,0.117
19.5600,0.095
19.6000,-0.070
19.6400,0.034
19.6800,0.033
19.7200,-0.036
19.7600,-0.040
19.8000,0.052
19.8400,-0.131
19.8800,-0.052
19.9200,-0.080
19.9600,-0.009
20.0000,-0.023
20.0400,0.132
20.0800,-0.035
20.1200,-0.024
20.1600,0.087
20.2000,-0.078
20.2400,-0.082
20.2800,0.026
20.3200,0.045
20.3600,0.025
20.4000,-0.134
20.4400,0.015
20.4800,0.117
20.5200,-0.038
20.5600,-0.021
20.6000,-0.039
20.6400,0.021
20.6800,-0.092
20.7200,-0.029
20.7600,0.015
20.8000,0.043
20.8400,-0.035
20.8800,0.189
20.9200,0.062
20.9600,0.025
21.0000,-0.005
21.0400,-0.152
21.0800,0.063
21.1200,0.038
21.1600,-0.064
21.2000,0.056
21.2400,-0.068
21.2800,0.004
21.3200,-0.085
21.3600,0.028
21.4000,0.010
21.4400,-0.058
21.4800,0.112
21.5200,-0.020
21.5600,0.057
21.6000,0.143
21.6400,-0.042
21.6800,0.111
21.7200,0.006
21.7600,-0.064
21.8000,-0.086
21.8400,0.056
21.8800,0.005
21.9200,0.158
21.9600,0.005
22.0000,-0.211
22.0400,0.058
22.0800,-0.090
22.1200,-0.011
22.1600,-0.044
22.2000,0.047
22.2400,-0.120
22.2800,-0.045
22.3200,-0.075
22.3600,-0.025
22.4000,0.116
22.4400,0.077
22.4800,0.033
22.5200,0.147
22.5600,-0.031
22.6000,0.075
22.6400,0.072
22.6800,0.028
22.7200,-0.037
22.7600,0.067
22.8000,-0.007
22.8400,0.063
22.8800,-0.002
22.9200,-0.046
22.9600,0.030
23.0000,-0.146
23.0400,-0.035
23.0800,0.026
23.1200,-0.009
23.1600,-0.087
23.2000,0.010
23.2400,-0.034
23.2800,0.141
23.3200,0.122
23.3600,-0.080
23.4000,-0.058
23.4400,0.071
23.4800,-0.033
23.5200,-0.047
23.5600,0.125
23.6000,-0.054
23.6400,0.025
23.6800,0.072
23.7200,-0.049
23.7600,0.036
23.8000,-0.079
23.8400,0.004
23.8800,-0.030
23.9200,-0.064
23.9600,0.016
24.0000,0.166
24.0400,0.049
24.0800,0.010
24.1200,0.047
24.1600,0.061
24.2000,-0.057
24.2400,-0.076
24.2800,-0.043
24.3200,0.066
24.3600,0.154
24.4000,-0.046
24.4400,-0.118
24.4800,0.036
24.5200,0.102
24.5600,0.044
24.6000,0.025
24.6400,0.052
24.6800,0.192
24.7200,0.015
24.7600,-0.017
24.8000,0.037
24.8400,-0.028
24.8800,0.072
24.9200,-0.101
24.9600,-0.053
25.0000,0.023
25.0400,0.004
25.0800,0.017
25.1200,-0.078
25.1600,-0.003
25.2000,-0.012
25.2400,-0.029
25.2800,0.012
25.3200,-0.043
25.3600,0.032
25.4000,-0.133
25.4400,0.086
25.4800,0.053
25.5200,0.014
25.5600,-0.114
25.6000,-0.014
25.6400,-0.123
25.6800,0.062
25.7200,0.044
25.7600,-0.094
25.8000,-0.026
25.8400,-0.024
25.8800,0.026
25.9200,0.005
25.9600,0.031
26.0000,0.038
26.0400,-0.046
26.0800,0.066
26.1200,0.052
26.1600,-0.074
26.2000,-0.056
26.2400,0.033
26.2800,-0.004
26.3200,0.114
26.3600,0.089
26.4000,0.060
26.4400,0.060
26.4800,0.093
26.5200,0.167
26.5600,0.036
26.6000,0.066
26.6400,-0.059
26.6800,0.059
26.7200,-0.060
26.7600,-0.119
26.8000,0.056
26.8400,-0.032
26.8800,0.037
26.9200,0.072
26.9600,0.098
27.0000,0.026
27.0400,0.221
27.0800,0.197
27.1200,-0.046
27.1600,-0.126
27.2000,0.045
27.2400,-0.016
27.2800,-0.013
27.3200,0.035
27.3600,-0.069
27.4000,0.108
27.4400,0.072
27.4800,0.060
27.5200,0.000
27.5600,0.028
27.6000,-0.002
27.6400,0.056
27.6800,-0.082
27.7200,-0.027
27.7600,0.098
27.8000,0.089
27.8400,0.131
27.8800,0.030
27.9200,0.105
27.9600,0.060
28.0000,0.016
28.0400,0.106
28.0800,0.014
28.1200,0.203
28.1600,0.139
28.2000,0.001
28.2400,0.135
28.2800,0.046
28.3200,-0.071
28.3600,-0.057
28.4000,0.037
28.4400,0.182
28.4800,0.048
28.5200,0.094
28.5600,-0.034
28.6000,0.110
28.6400,0.001
28.6800,0.116
28.7200,-0.039
28.7600,-0.038
28.8000,-0.048
28.8400,0.004
28.8800,0.042
28.9200,-0.089
28.9600,0.011
29.0000,-0.141
29.0400,-0.004
29.0800,-0.058
29.1200,0.009
29.1600,0.031
29.2000,0.037
29.2400,0.069
29.2800,-0.189
29.3200,-0.070
29.3600,-0.028
29.4000,0.054
29.4400,0.055
29.4800,-0.037
29.5200,-0.028
29.5600,-0.062
29.6000,-0.013
29.6400,-0.045
29.6800,-0.059
29.7200,-0.058
29.7600,0.053
29.8000,-0.020
29.8400,-0.059
29.8800,0.003
29.9200,0.029
29.9600,0.056
30.0000,-0.132
30.0400,-0.051
30.0800,0.074
30.1200,0.072
30.1600,-0.053
30.2000,-0.048
30.2400,-0.005
30.2800,-0.076
30.3200,0.000
30.3600,0.035
30.4000,0.011
30.4400,0.013
30.4800,0.072
30.5200,-0.039
30.5600,0.032
30.6000,0.011
30.6400,-0.068
30.6800,-0.026
30.7200,-0.012
30.7600,0.062
30.8000,-0.014
30.8400,-0.004
30.8800,-0.033
30.9200,0.031
30.9600,-0.042
31.0000,0.061
31.0400,0.142
31.0800,0.098
31.1200,0.054
31.1600,0.065
31.2000,0.012
31.2400,-0.055
31.2800,0.024
31.3200,0.007
31.3600,0.019
31.4000,0.045
31.4400,-0.077
31.4800,-0.055
31.5200,0.088
31.5600,0.062
31.6000,0.029
31.6400,0.034
31.6800,0.049
31.7200,0.037
31.7600,0.035
31.8000,-0.019
31.8400,-0.001
31.8800,0.120
31.9200,0.023
31.9600,0.073
32.0000,-0.004
32.0400,-0.017
32.0800,0.004
32.1200,-0.065
32.1600,0.015
32.2000,-0.042
32.2400,0.003
32.2800,0.082
32.3200,-0.095
32.3600,-0.027
32.4000,0.071
32.4400,0.093
32.4800,-0.128
32.5200,-0.057
32.5600,0.004
32.6000,0.045
32.6400,0.035
32.6800,0.024
32.7200,-0.068
32.7600,-0.030
32.8000,0.177
32.8400,0.092
32.8800,-0.003
32.9200,0.218
32.9600,1.875
33.0000,2.985
33.0400,0.875
33.0800,-0.021
33.1200,-0.069
33.1600,0.154
33.2000,0.057
33.2400,0.135
33.2800,0.148
33.3200,-0.003
33.3600,-0.011
33.4000,-0.177
33.4400,0.012
33.4800,0.048
33.5200,-0.076
33.5600,0.034
33.6000,-0.094
33.6400,0.104
33.6800,-0.024
33.7200,-0.034
33.7600,0.034
33.8000,0.021
33.8400,0.004
33.8800,0.036
33.9200,-0.064
33.9600,-0.059
34.0000,0.130
34.0400,0.092
34.0800,-0.011
34.1200,-0.042
34.1600,0.079
34.2000,-0.011
34.2400,0.024
34.2800,0.023
34.3200,0.006
34.3600,0.017
34.4000,0.051
34.4400,-0.076
34.4800,0.059
34.5200,0.015
34.5600,0.058
34.6000,0.028
34.6400,-0.006
34.6800,-0.084
34.7200,-0.003
34.7600,0.076
34.8000,-0.008
34.8400,-0.082
34.8800,0.074
34.9200,-0.007
34.9600,0.056
35.0000,-0.026
35.0400,0.078
35.0800,0.057
35.1200,0.077
35.1600,-0.005
35.2000,0.052
35.2400,0.055
35.2800,-0.046
35.3200,0.003
35.3600,-0.070
35.4000,0.002
35.4400,0.027
35.4800,0.072
35.5200,-0.118
35.5600,0.050
35.6000,0.047
35.6400,0.013
35.6800,-0.010
35.7200,0.063
35.7600,0.040
35.8000,-0.062
35.8400,-0.053
35.8800,-0.021
35.9200,0.029
35.9600,0.084
36.0000,-0.056
36.0400,0.054
36.0800,0.029
36.1200,0.003
36.1600,-0.045
36.2000,-0.103
36.2400,0.046
36.2800,-0.038
36.3200,0.000
36.3600,-0.003
36.4000,-0.018
36.4400,-0.015
36.4800,-0.109
36.5200,0.038
36.5600,0.046
36.6000,-0.095
36.6400,-0.005
36.6800,-0.062
36.7200,-0.025
36.7600,-0.015
36.8000,0.084
36.8400,-0.043
36.8800,-0.057
36.9200,-0.033
36.9600,0.020
37.0000,-0.028
37.0400,-0.099
37.0800,0.020
37.1200,0.080
37.1600,0.039
37.2000,-0.055
37.2400,-0.054
37.2800,-0.073
37.3200,0.103
37.3600,0.005
37.4000,0.061
37.4400,0.010
37.4800,-0.040
37.5200,0.041
37.5600,-0.050
37.6000,-0.063
37.6400,-0.041
37.6800,-0.031
37.7200,0.037
37.7600,0.140
37.8000,0.159
37.8400,-0.046
37.8800,0.059
37.9200,0.186
37.9600,0.200
38.0000,0.153
38.0400,0.210
38.0800,0.266
38.1200,0.421
38.1600,0.470
38.2000,0.550
38.2400,0.647
38.2800,0.829
38.3200,0.987
38.3600,1.248
38.4000,1.737
38.4400,2.079
38.4800,2.435
38.5200,3.277
38.5600,4.084
38.6000,4.889
38.6400,5.958
38.6800,6.939
38.7200,7.419
38.7600,7.746
38.8000,7.470
38.8400,7.084
38.8800,6.274
38.9200,5.160
38.9600,4.230
39.0000,3.508
39.0400,2.877
39.0800,2.284
39.1200,1.745
39.1600,1.284
39.2000,1.262
39.2400,1.048
39.2800,0.675
39.3200,0.594
39.3600,0.570
39.4000,0.411
39.4400,0.333
39.4800,0.261
39.5200,0.321
39.5600,0.191
39.6000,0.193
39.6400,0.097
39.6800,0.062
39.7200,0.032
39.7600,0.030
39.8000,0.031
39.8400,0.035
39.8800,0.036
39.9200,0.008
39.9600,0.033
40.0000,0.025
40.0400,0.019
40.0800,0.038
40.1200,-0.059
40.1600,-0.059
40.2000,-0.053
40.2400,0.016
40.2800,-0.013
40.3200,0.197
40.3600,0.016
40.4000,0.005
40.4400,-0.010
40.4800,-0.059
40.5200,0.005
40.5600,-0.001
40.6000,0.123
40.6400,0.041
40.6800,-0.017
40.7200,0.008
40.7600,0.083
40.8000,-0.041
40.8400,-0.057
40.8800,-0.041
40.9200,0.048
40.9600,-0.029
41.0000,-0.009
41.0400,0.000
41.0800,0.002
41.1200,0.026
41.1600,-0.003
41.2000,0.019
41.2400,-0.124
41.2800,0.062
41.3200,-0.085
41.3600,-0.056
41.4000,-0.037
41.4400,0.019
41.4800,-0.029
41.5200,-0.044
41.5600,0.019
41.6000,0.091
41.6400,0.011
41.6800,0.040
41.7200,-0.055
41.7600,-0.050
41.8000,0.026
41.8400,0.017
41.8800,-0.013
41.9200,-0.014
41.9600,0.063
42.0000,0.046
42.0400,-0.048
42.0800,-0.022
42.1200,0.030
42.1600,0.069
42.2000,0.069
42.2400,0.050
42.2800,-0.106
42.3200,0.005
42.3600,0.004
42.4000,-0.031
42.4400,-0.018
42.4800,0.061
42.5200,0.032
42.5600,0.016
42.6000,0.029
42.6400,0.010
42.6800,-0.054
42.7200,-0.024
42.7600,0.017
42.8000,-0.030
42.8400,0.040
42.8800,0.041
42.9200,0.059
42.9600,-0.042
43.0000,0.008
43.0400,-0.088
43.0800,0.035
43.1200,-0.026
43.1600,-0.015
43.2000,-0.004
43.2400,0.032
43.2800,-0.054
43.3200,-0.033
43.3600,0.005
43.4000,0.064
43.4400,-0.019
43.4800,-0.102
43.5200,0.018
43.5600,-0.071
43.6000,-0.024
43.6400,-0.052
43.6800,0.003
43.7200,0.037
43.7600,-0.006
43.8000,-0.031
43.8400,0.111
43.8800,0.059
43.9200,-0.081
43.9600,0.003
44.0000,-0.009
44.0400,0.026
44.0800,0.019
44.1200,0.068
44.1600,0.078
44.2000,0.099
44.2400,0.054
44.2800,0.117
44.3200,0.133
44.3600,0.203
44.4000,0.192
44.4400,0.061
44.4800,0.224
44.5200,0.390
44.5600,0.295
44.6000,0.386
44.6400,0.530
44.6800,0.554
44.7200,0.631
44.7600,0.629
44.8000,0.845
44.8400,0.946
44.8800,1.050
44.9200,1.450
44.9600,1.561
45.0000,1.415
45.0400,1.749
45.0800,1.723
45.1200,1.687
45.1600,1.599
45.2000,1.412
45.2400,1.464
45.2800,1.199
45.3200,1.128
45.3600,1.031
45.4000,0.734
45.4400,0.681
45.4800,0.514
45.5200,0.462
45.5600,0.316
45.6000,0.319
45.6400,0.248
45.6800,0.193
45.7200,0.144
45.7600,0.147
45.8000,0.146
45.8400,0.068
45.8800,-0.032
45.9200,0.046
45.9600,-0.063
46.0000,0.006
46.0400,0.021
46.0800,-0.023
46.1200,-0.020
46.1600,0.013
46.2000,-0.254
46.2400,-0.017
46.2800,0.017
46.3200,-0.029
46.3600,-0.021
46.4000,-0.018
46.4400,0.028
46.4800,-0.004
46.5200,0.036
46.5600,0.036
46.6000,0.033
46.6400,0.016
46.6800,0.017
46.7200,-0.058
46.7600,-0.024
46.8000,0.016
46.8400,0.008
46.8800,0.047
46.9200,-0.060
46.9600,0.015
47.0000,0.008
47.0400,-0.007
47.0800,0.021
47.1200,0.037
47.1600,-0.027
47.2000,-0.016
47.2400,-0.048
47.2800,0.008
47.3200,0.027
47.3600,0.029
47.4000,-0.009
47.4400,0.091
47.4800,0.035
47.5200,0.006
47.5600,0.081
47.6000,0.003
47.6400,-0.056
47.6800,-0.005
47.7200,-0.036
47.7600,0.019
47.8000,0.005
47.8400,-0.047
47.8800,-0.006
47.9200,-0.026
47.9600,0.079
48.0000,0.016
48.0400,0.053
48.0800,0.115
48.1200,0.081
48.1600,0.045
48.2000,0.106
48.2400,0.021
48.2800,0.158
48.3200,0.085
48.3600,-0.046
48.4000,-0.046
48.4400,0.010
48.4800,-0.053
48.5200,0.022
48.5600,0.074
48.6000,-0.028
48.6400,0.104
48.6800,0.074
48.7200,0.095
48.7600,-0.020
48.8000,-0.016
48.8400,0.009
48.8800,0.068
48.9200,-0.039
48.9600,-0.046
49.0000,0.013
49.0400,-0.017
49.0800,-0.030
49.1200,0.018
49.1600,-0.021
49.2000,0.004
49.2400,0.053
49.2800,0.106
49.3200,0.053
49.3600,-0.005
49.4000,0.015
49.4400,0.012
49.4800,0.089
49.5200,-0.005
49.5600,-0.010
49.6000,-0.056
49.6400,0.006
49.6800,0.055
49.7200,-0.047
49.7600,0.025
49.8000,-0.024
49.8400,0.005
49.8800,-0.007
49.9200,-0.024
49.9600,-0.042
50.0000,-0.046
50.0400,0.019
50.0800,-0.025
50.1200,-0.022
50.1600,-0.046
50.2000,-0.030
50.2400,0.021
50.2800,-0.063
50.3200,0.035
50.3600,-0.030
50.4000,0.009
50.4400,-0.029
50.4800,-0.006
50.5200,-0.027
50.5600,-0.033
50.6000,-0.027
50.6400,0.002
50.6800,-0.045
50.7200,-0.039
50.7600,-0.023
50.8000,0.036
50.8400,-0.064
50.8800,-0.005
50.9200,-0.008
50.9600,0.032
51.0000,-0.005
51.0400,0.063
51.0800,-0.029
51.1200,0.026
51.1600,-0.003
51.2000,0.026
51.2400,-0.007
51.2800,0.003
51.3200,-0.019
51.3600,-0.010
51.4000,-0.013
51.4400,0.087
51.4800,0.045
51.5200,-0.031
51.5600,-0.044
51.6000,-0.044
51.6400,0.018
51.6800,-0.009
51.7200,0.010
51.7600,0.008
51.8000,0.028
51.8400,0.062
51.8800,0.012
51.9200,0.011
51.9600,-0.041
52.0000,0.027
52.0400,0.034
52.0800,0.000
52.1200,0.032
52.1600,-0.084
52.2000,-0.036
52.2400,0.044
52.2800,0.082
52.3200,0.109
52.3600,-0.038
52.4000,-0.076
52.4400,0.039
52.4800,-0.002
52.5200,0.006
52.5600,0.019
52.6000,0.049
52.6400,-0.061
52.6800,-0.030
52.7200,0.022
52.7600,-0.053
52.8000,0.019
52.8400,-0.048
52.8800,0.037
52.9200,-0.057
52.9600,-0.036
53.0000,0.020
53.0400,0.018
53.0800,0.029
53.1200,-0.026
53.1600,-0.013
53.2000,-0.043
53.2400,-0.033
53.2800,0.045
53.3200,0.103
53.3600,0.014
53.4000,0.047
53.4400,-0.046
53.4800,0.027
53.5200,-0.025
53.5600,0.014
53.6000,-0.029
53.6400,0.030
53.6800,-0.002
53.7200,-0.041
53.7600,0.025
53.8000,-0.017
53.8400,0.027
53.8800,0.020
53.9200,-0.075
53.9600,-0.025
54.0000,0.049
54.0400,0.066
54.0800,0.041
54.1200,0.016
54.1600,0.014
54.2000,0.020
54.2400,-0.004
54.2800,-0.072
54.3200,0.052
54.3600,-0.004
54.4000,0.010
54.4400,-0.067
54.4800,-0.007
54.5200,-0.064
54.5600,0.024
54.6000,-0.029
54.6400,-0.014
54.6800,0.004
54.7200,-0.030
54.7600,-0.048
54.8000,0.026
54.8400,-0.027
54.8800,0.044
54.9200,-0.059
54.9600,0.018
55.0000,-0.018
55.0400,-0.046
55.0800,0.019
55.1200,-0.062
55.1600,0.066
55.2000,0.004
55.2400,0.058
55.2800,0.034
55.3200,0.048
55.3600,0.086
55.4000,0.026
55.4400,-0.065
55.4800,0.127
55.5200,0.049
55.5600,0.025
55.6000,-0.041
55.6400,-0.041
55.6800,0.011
55.7200,0.065
55.7600,0.021
55.8000,-0.021
55.8400,0.052
55.8800,-0.036
55.9200,0.053
55.9600,-0.040
56.0000,0.017
56.0400,-0.017
56.0800,0.000
56.1200,0.003
56.1600,-0.040
56.2000,-0.003
56.2400,-0.027
56.2800,-0.004
56.3200,-0.034
56.3600,-0.009
56.4000,-0.032
56.4400,0.101
56.4800,0.021
56.5200,-0.033
56.5600,-0.041
56.6000,-0.045
56.6400,0.067
56.6800,-0.005
56.7200,-0.003
56.7600,0.031
56.8000,0.017
56.8400,0.046
56.8800,-0.011
56.9200,-0.048
56.9600,0.041
57.0000,-0.068
57.0400,-0.020
57.0800,0.023
57.1200,-0.045
57.1600,0.018
57.2000,-0.048
57.2400,-0.003
57.2800,-0.033
57.3200,-0.041
57.3600,-0.038
57.4000,-0.016
57.4400,0.010
57.4800,0.027
57.5200,0.017
57.5600,0.012
57.6000,-0.008
57.6400,-0.046
57.6800,0.010
57.7200,-0.018
57.7600,0.022
57.8000,-0.039
57.8400,-0.047
57.8800,0.073
57.9200,-0.009
57.9600,-0.020
58.0000,-0.025
58.0400,-0.041
58.0800,-0.008
58.1200,0.055
58.1600,-0.043
58.2000,-0.004
58.2400,0.012
58.2800,0.043
58.3200,0.017
58.3600,0.015
58.4000,-0.022
58.4400,-0.029
58.4800,0.000
58.5200,0.043
58.5600,0.042
58.6000,-0.017
58.6400,-0.018
58.6800,-0.040
58.7200,0.004
58.7600,0.013
58.8000,0.021
58.8400,0.006
58.8800,0.088
58.9200,-0.016
58.9600,-0.039
59.0000,0.010
59.0400,0.018
59.0800,-0.025
59.1200,0.006
59.1600,-0.026
59.2000,0.010
59.2400,-0.038
59.2800,0.009
59.3200,-0.080
59.3600,0.030
59.4000,-0.041
59.4400,0.011
59.4800,0.068
59.5200,0.075
59.5600,0.034
59.6000,0.010
59.6400,-0.009
59.6800,-0.076
59.7200,0.009
59.7600,-0.085
59.8000,0.005
59.8400,-0.014
59.8800,0.020
59.9200,-0.052
59.9600,0.026
60.0000,0.002
60.0400,-0.013
60.0800,-0.008
60.1200,-0.025
60.1600,-0.058
60.2000,0.072
60.2400,0.032
60.2800,0.015
60.3200,-0.002
60.3600,-0.038
60.4000,-0.033
60.4400,-0.002
60.4800,0.017
60.5200,-0.025
60.5600,0.012
60.6000,0.033
60.6400,-0.069
60.6800,0.035
60.7200,0.047
60.7600,0.033
60.8000,-0.057
60.8400,0.009
60.8800,0.002
60.9200,-0.006
60.9600,-0.003
61.0000,-0.020
61.0400,-0.039
61.0800,-0.059
61.1200,0.078
61.1600,0.033
61.2000,0.009
61.2400,-0.042
61.2800,0.024
61.3200,-0.048
61.3600,0.029
61.4000,-0.011
61.4400,-0.055
61.4800,0.012
61.5200,0.035
61.5600,0.085
61.6000,0.011
61.6400,0.115
61.6800,0.103
61.7200,0.038
61.7600,-0.047
61.8000,0.043
61.8400,0.006
61.8800,-0.023
61.9200,0.002
61.9600,-0.037
62.0000,-0.014
62.0400,0.042
62.0800,0.107
62.1200,0.055
62.1600,0.051
62.2000,-0.047
62.2400,0.061
62.2800,0.011
62.3200,-0.036
62.3600,0.024
62.4000,0.018
62.4400,-0.019
62.4800,0.041
62.5200,-0.025
62.5600,-0.024
62.6000,-0.053
62.6400,0.021
62.6800,-0.001
62.7200,-0.028
62.7600,-0.032
62.8000,-0.026
62.8400,0.046
62.8800,0.008
62.9200,-0.039
62.9600,-0.014
63.0000,-0.033
63.0400,-0.005
63.0800,-0.011
63.1200,-0.069
63.1600,0.083
63.2000,-0.006
63.2400,0.008
63.2800,-0.034
63.3200,0.105
63.3600,-0.033
63.4000,0.040
63.4400,-0.018
63.4800,0.014
63.5200,0.019
63.5600,0.001
63.6000,0.010
63.6400,-0.015
63.6800,-0.046
63.7200,0.011
63.7600,0.023
63.8000,-0.039
63.8400,-0.007
63.8800,-0.039
63.9200,-0.006
63.9600,0.043
64.0000,0.030
64.0400,0.011
64.0800,-0.027
64.1200,-0.049
64.1600,0.027
64.2000,-0.028
64.2400,0.017
64.2800,0.013
64.3200,-0.058
64.3600,0.024
64.4000,-0.030
64.4400,-0.002
64.4800,0.001
64.5200,-0.040
64.5600,-0.031
64.6000,-0.004
64.6400,0.015
64.6800,-0.010
64.7200,0.007
64.7600,-0.048
64.8000,-0.009
64.8400,-0.030
64.8800,-0.079
64.9200,0.029
64.9600,0.025
65.0000,-0.006
65.0400,0.019
65.0800,0.028
65.1200,0.029
65.1600,0.102
65.2000,0.140
65.2400,0.197
65.2800,0.133
65.3200,0.191
65.3600,0.333
65.4000,0.331
65.4400,0.323
65.4800,0.542
65.5200,0.572
65.5600,0.620
65.6000,0.572
65.6400,0.591
65.6800,0.667
65.7200,0.670
65.7600,0.582
65.8000,0.516
65.8400,0.468
65.8800,0.474
65.9200,0.322
65.9600,0.342
66.0000,0.306
66.0400,0.212
66.0800,0.281
66.1200,0.140
66.1600,0.103
66.2000,0.111
66.2400,0.092
66.2800,0.042
66.3200,0.079
66.3600,0.063
66.4000,-0.058
66.4400,-0.051
66.4800,0.053
66.5200,0.005
66.5600,0.037
66.6000,-0.019
66.6400,0.028
66.6800,-0.006
66.7200,-0.038
66.7600,-0.013
66.8000,-0.048
66.8400,-0.050
66.8800,-0.050
66.9200,-0.032
66.9600,-0.021
67.0000,0.049
67.0400,-0.121
67.0800,-0.002
67.1200,-0.050
67.1600,-0.002
67.2000,-0.086
67.2400,0.124
67.2800,-0.044
67.3200,-0.054
67.3600,0.000
67.4000,-0.040
67.4400,-0.006
67.4800,-0.025
67.5200,-0.014
67.5600,-0.008
67.6000,0.031
67.6400,0.018
67.6800,0.112
67.7200,0.074
67.7600,0.125
67.8000,0.059
67.8400,0.135
67.8800,0.242
67.9200,0.219
67.9600,0.107
68.0000,0.254
68.0400,0.265
68.0800,0.255
68.1200,0.226
68.1600,0.334
68.2000,0.448
68.2400,0.467
68.2800,0.449
68.3200,0.624
68.3600,0.733
68.4000,0.725
68.4400,0.769
68.4800,0.800
68.5200,1.048
68.5600,1.206
68.6000,1.492
68.6400,1.606
68.6800,2.051
68.7200,2.809
68.7600,4.062
68.8000,5.354
68.8400,5.851
68.8800,6.151
68.9200,6.880
68.9600,8.903
69.0000,13.870
69.0400,26.805
69.0800,85.757
69.1200,365.013
69.1600,502.676
69.2000,223.053
69.2400,58.675
69.2800,66.986
69.3200,200.117
69.3600,251.030
69.4000,108.155
69.4400,27.059
69.4800,12.431
69.5200,8.121
69.5600,5.608
69.6000,4.421
69.6400,3.459
69.6800,2.685
69.7200,2.408
69.7600,2.000
69.8000,1.935
69.8400,1.799
69.8800,1.577
69.9200,1.252
69.9600,1.159
70.0000,0.997
70.0400,0.946
70.0800,0.888
70.1200,0.907
70.1600,0.808
70.2000,0.631
70.2400,0.572
70.2800,0.619
70.3200,0.523
70.3600,0.494
70.4000,0.481
70.4400,0.279
70.4800,0.223
70.5200,0.262
70.5600,0.236
70.6000,0.293
70.6400,0.038
70.6800,0.106
70.7200,0.142
70.7600,0.188
70.8000,0.092
70.8400,0.124
70.8800,0.047
70.9200,-0.030
70.9600,0.006
71.0000,-0.048
71.0400,-0.005
71.0800,0.067
71.1200,-0.058
71.1600,0.007
71.2000,-0.051
71.2400,-0.038
71.2800,-0.028
71.3200,0.003
71.3600,0.008
71.4000,-0.029
71.4400,-0.117
71.4800,0.028
71.5200,-0.005
71.5600,-0.017
71.6000,0.072
71.6400,-0.067
71.6800,-0.045
71.7200,0.004
71.7600,-0.083
71.8000,-0.011
71.8400,0.007
71.8800,-0.034
71.9200,-0.043
71.9600,0.021
72.0000,0.029
72.0400,-0.020
72.0800,0.002
72.1200,-0.040
72.1600,0.001
72.2000,0.028
72.2400,0.024
72.2800,0.038
72.3200,0.063
72.3600,-0.038
72.4000,-0.039
72.4400,-0.004
72.4800,-0.047
72.5200,0.026
72.5600,0.029
72.6000,0.047
72.6400,0.062
72.6800,-0.021
72.7200,-0.012
72.7600,0.081
72.8000,-0.014
72.8400,-0.027
72.8800,0.030
72.9200,-0.032
72.9600,-0.038
73.0000,-0.014
73.0400,-0.013
73.0800,-0.019
73.1200,-0.017
73.1600,0.070
73.2000,0.009
73.2400,-0.035
73.2800,0.024
73.3200,0.021
73.3600,-0.036
73.4000,-0.025
73.4400,0.022
73.4800,0.011
73.5200,-0.015
73.5600,-0.027
73.6000,-0.018
73.6400,-0.042
73.6800,0.048
73.7200,0.018
73.7600,0.008
73.8000,-0.067
73.8400,0.000
73.8800,-0.075
73.9200,-0.002
73.9600,-0.004
74.0000,0.029
74.0400,-0.043
74.0800,-0.019
74.1200,0.015
74.1600,-0.003
74.2000,0.016
74.2400,0.030
74.2800,0.033
74.3200,0.024
74.3600,-0.027
74.4000,0.017
74.4400,-0.017
74.4800,-0.057
74.5200,0.018
74.5600,-0.004
74.6000,-0.098
74.6400,0.004
74.6800,0.020
74.7200,0.079
74.7600,-0.032
74.8000,-0.033
74.8400,0.016
74.8800,0.029
74.9200,0.007
74.9600,0.040
75.0000,0.005
75.0400,-0.013
75.0800,-0.032
75.1200,-0.033
75.1600,0.001
75.2000,0.024
75.2400,0.051
75.2800,-0.012
75.3200,0.003
75.3600,-0.014
75.4000,-0.003
75.4400,-0.032
75.4800,-0.004
75.5200,0.058
75.5600,-0.007
75.6000,0.005
75.6400,0.002
75.6800,0.006
75.7200,-0.012
75.7600,-0.008
75.8000,-0.012
75.8400,-0.014
75.8800,0.042
75.9200,0.017
75.9600,-0.020
76.0000,-0.051
76.0400,0.020
76.0800,0.030
76.1200,0.001
76.1600,0.032
76.2000,0.011
76.2400,-0.051
76.2800,-0.011
76.3200,0.084
76.3600,-0.019
76.4000,-0.028
76.4400,0.053
76.4800,0.005
76.5200,-0.032
76.5600,-0.029
76.6000,-0.026
76.6400,-0.008
76.6800,-0.031
76.7200,0.015
76.7600,0.019
76.8000,-0.029
76.8400,0.001
76.8800,0.013
76.9200,0.038
76.9600,-0.003
77.0000,-0.011
77.0400,-0.034
77.0800,0.012
77.1200,0.005
77.1600,-0.016
77.2000,-0.034
77.2400,0.058
77.2800,-0.005
77.3200,0.013
77.3600,-0.051
77.4000,-0.020
77.4400,0.016
77.4800,-0.004
77.5200,0.004
77.5600,0.012
77.6000,0.002
77.6400,-0.029
77.6800,0.042
77.7200,0.025
77.7600,-0.020
77.8000,-0.040
77.8400,0.015
77.8800,0.017
77.9200,0.006
77.9600,-0.003
78.0000,-0.110
78.0400,0.013
78.0800,-0.066
78.1200,0.008
78.1600,0.032
78.2000,0.038
78.2400,-0.024
78.2800,0.018
78.3200,-0.004
78.3600,-0.007
78.4000,0.155
78.4400,0.068
78.4800,0.127
78.5200,0.137
78.5600,0.178
78.6000,0.155
78.6400,0.296
78.6800,0.383
78.7200,0.417
78.7600,0.361
78.8000,0.381
78.8400,0.467
78.8800,0.560
78.9200,0.442
78.9600,0.426
79.0000,0.473
79.0400,0.439
79.0800,0.485
79.1200,0.418
79.1600,0.295
79.2000,0.408
79.2400,0.387
79.2800,0.247
79.3200,0.333
79.3600,0.243
79.4000,0.168
79.4400,0.159
79.4800,0.130
79.5200,0.024
79.5600,0.039
79.6000,0.041
79.6400,0.009
79.6800,0.027
79.7200,0.056
79.7600,0.017
79.8000,-0.027
79.8400,-0.017
79.8800,-0.027
79.9200,-0.033
79.9600,-0.028
80.0000,-0.032
80.0400,-0.020
80.0800,0.016
80.1200,-0.032
80.1600,-0.027
80.2000,0.015
80.2400,-0.014
80.2800,-0.021
80.3200,-0.014
80.3600,-0.039
80.4000,0.016
80.4400,0.024
80.4800,0.006
80.5200,-0.038
80.5600,0.010
80.6000,0.031
80.6400,-0.014
80.6800,-0.031
80.7200,0.024
80.7600,0.010
80.8000,-0.005
80.8400,0.015
80.8800,-0.029
80.9200,-0.029
80.9600,-0.019
81.0000,-0.029
81.0400,-0.015
81.0800,-0.002
81.1200,0.014
81.1600,0.007
81.2000,-0.006
81.2400,0.015
81.2800,0.002
81.3200,-0.010
81.3600,0.018
81.4000,-0.020
81.4400,-0.027
81.4800,-0.029
81.5200,-0.008
81.5600,-0.018
81.6000,0.054
81.6400,0.055
81.6800,0.004
81.7200,0.006
81.7600,0.009
81.8000,-0.001
81.8400,0.015
81.8800,0.051
81.9200,0.038
81.9600,0.063
82.0000,-0.014
82.0400,-0.031
82.0800,0.007
82.1200,0.042
82.1600,0.043
82.2000,0.029
82.2400,0.017
82.2800,-0.007
82.3200,0.024
82.3600,-0.017
82.4000,0.014
82.4400,0.002
82.4800,-0.033
82.5200,-0.003
82.5600,-0.021
82.6000,0.009
82.6400,0.006
82.6800,0.035
82.7200,-0.034
82.7600,0.042
82.8000,0.044
82.8400,0.049
82.8800,0.136
82.9200,0.015
82.9600,0.104
83.0000,0.099
83.0400,0.142
83.0800,0.129
83.1200,0.122
83.1600,0.051
83.2000,0.036
83.2400,0.087
83.2800,0.143
83.3200,0.076
83.3600,0.115
83.4000,0.085
83.4400,0.087
83.4800,0.103
83.5200,0.060
83.5600,0.038
83.6000,0.017
83.6400,0.028
83.6800,0.000
83.7200,-0.034
83.7600,0.002
83.8000,-0.018
83.8400,-0.041
83.8800,0.021
83.9200,0.007
83.9600,-0.010
84.0000,0.005
84.0400,-0.015
84.0800,0.028
84.1200,-0.011
84.1600,-0.028
84.2000,0.000
84.2400,-0.027
84.2800,-0.028
84.3200,-0.010
84.3600,-0.011
84.4000,-0.004
84.4400,0.013
84.4800,0.013
84.5200,0.002
84.5600,-0.049
84.6000,0.018
84.6400,0.030
84.6800,0.012
84.7200,-0.023
84.7600,-0.015
84.8000,-0.002
84.8400,0.001
84.8800,0.018
84.9200,0.006
84.9600,-0.025
85.0000,-0.027
85.0400,0.019
85.0800,-0.022
85.1200,-0.017
85.1600,0.047
85.2000,-0.020
85.2400,0.017
85.2800,0.002
85.3200,-0.008
85.3600,-0.027
85.4000,0.000
85.4400,-0.027
85.4800,-0.015
85.5200,0.005
85.5600,0.009
85.6000,0.048
85.6400,-0.007
85.6800,0.012
85.7200,0.044
85.7600,-0.018
85.8000,0.004
85.8400,0.000
85.8800,-0.043
85.9200,0.038
85.9600,0.013
86.0000,-0.001
86.0400,-0.037
86.0800,0.000
86.1200,-0.012
86.1600,-0.019
86.2000,-0.015
86.2400,0.001
86.2800,-0.027
86.3200,-0.018
86.3600,0.008
86.4000,-0.003
86.4400,-0.043
86.4800,0.014
86.5200,0.054
86.5600,0.001
86.6000,0.009
86.6400,-0.041
86.6800,-0.007
86.7200,0.017
86.7600,-0.026
86.8000,-0.020
86.8400,0.027
86.8800,-0.002
86.9200,-0.026
86.9600,-0.012
87.0000,0.012
87.0400,-0.009
87.0800,0.023
87.1200,0.021
87.1600,0.017
87.2000,0.016
87.2400,-0.033
87.2800,-0.017
87.3200,-0.008
87.3600,0.002
87.4000,0.021
87.4400,0.011
87.4800,-0.007
87.5200,0.016
87.5600,-0.023
87.6000,-0.025
87.6400,-0.003
87.6800,-0.045
87.7200,0.011
87.7600,-0.027
87.8000,-0.021
87.8400,-0.003
87.8800,0.000
87.9200,0.029
87.9600,0.007
88.0000,-0.005
88.0400,0.010
88.0800,-0.026
88.1200,-0.018
88.1600,-0.001
88.2000,-0.022
88.2400,0.007
88.2800,0.028
88.3200,-0.050
88.3600,-0.026
88.4000,0.020
88.4400,-0.046
88.4800,-0.019
88.5200,-0.013
88.5600,-0.015
88.6000,0.023
88.6400,0.020
88.6800,0.041
88.7200,-0.003
88.7600,0.003
88.8000,0.024
88.8400,-0.016
88.8800,-0.013
88.9200,-0.005
88.9600,0.014
89.0000,0.004
89.0400,-0.011
89.0800,-0.006
89.1200,-0.026
89.1600,0.001
89.2000,0.021
89.2400,-0.014
89.2800,0.005
89.3200,0.009
89.3600,0.028
89.4000,0.007
89.4400,-0.024
89.4800,-0.014
89.5200,0.006
89.5600,-0.002
89.6000,0.013
89.6400,0.010
89.6800,0.005
89.7200,0.037
89.7600,-0.044
89.8000,0.047
89.8400,-0.011
89.8800,-0.032
89.9200,0.019
89.9600,0.044
90.0000,0.000
