5.0400,-0.219
5.0800,0.046
5.1200,0.128
5.1600,-0.035
5.2000,0.081
5.2400,0.015
5.2800,0.197
5.3200,0.339
5.3600,0.315
5.4000,0.072
5.4400,0.089
5.4800,0.208
5.5200,0.293
5.5600,0.278
5.6000,0.180
5.6400,0.129
5.6800,0.185
5.7200,0.059
5.7600,0.185
5.8000,-0.121
5.8400,-0.103
5.8800,0.186
5.9200,-0.077
5.9600,0.001
6.0000,-0.009
6.0400,-0.125
6.0800,-0.047
6.1200,0.004
6.1600,0.057
6.2000,0.096
6.2400,0.108
6.2800,-0.110
6.3200,-0.121
6.3600,-0.025
6.4000,-0.098
6.4400,0.033
6.4800,0.005
6.5200,-0.061
6.5600,-0.116
6.6000,-0.015
6.6400,0.081
6.6800,0.134
6.7200,-0.084
6.7600,0.255
6.8000,0.005
6.8400,-0.103
6.8800,-0.113
6.9200,-0.093
6.9600,-0.168
7.0000,0.097
7.0400,0.060
7.0800,-0.187
7.1200,-0.008
7.1600,0.069
7.2000,-0.035
7.2400,-0.006
7.2800,0.100
7.3200,0.040
7.3600,0.146
7.4000,0.119
7.4400,0.116
7.4800,0.023
7.5200,0.000
7.5600,0.029
7.6000,-0.155
7.6400,-0.051
7.6800,-0.058
7.7200,-0.020
7.7600,-0.049
7.8000,0.007
7.8400,0.084
7.8800,-0.080
7.9200,0.128
7.9600,0.131
8.0000,-0.012
8.0400,-0.155
8.0800,0.016
8.1200,0.022
8.1600,-0.068
8.2000,-0.147
8.2400,0.091
8.2800,-0.042
8.3200,-0.209
8.3600,0.078
8.4000,0.028
8.4400,-0.181
8.4800,-0.038
8.5200,-0.024
8.5600,0.020
8.6000,0.026
8.6400,-0.101
8.6800,-0.065
8.7200,-0.100
8.7600,-0.152
8.8000,0.106
8.8400,0.048
8.8800,0.004
8.9200,-0.033
8.9600,-0.070
9.0000,-0.040
9.0400,-0.065
9.0800,0.138
9.1200,0.000
9.1600,-0.082
9.2000,-0.081
9.2400,0.059
9.2800,-0.289
9.3200,0.057
9.3600,0.010
9.4000,0.058
9.4400,-0.105
9.4800,-0.066
9.5200,0.051
9.5600,-0.213
9.6000,-0.014
9.6400,-0.130
9.6800,0.091
9.7200,0.042
9.7600,-0.092
9.8000,-0.044
9.8400,-0.115
9.8800,0.046
9.9200,0.035
9.9600,0.053
10.0000,-0.082
10.0400,0.124
10.0800,0.078
10.1200,-0.027
10.1600,-0.096
10.2000,-0.028
10.2400,-0.119
10.2800,0.024
10.3200,0.036
10.3600,0.012
10.4000,0.054
10.4400,0.029
10.4800,0.088
10.5200,0.033
10.5600,-0.047
10.6000,-0.003
10.6400,0.151
10.6800,-0.055
10.7200,0.052
10.7600,0.016
10.8000,0.062
10.8400,-0.190
10.8800,0.049
10.9200,-0.013
10.9600,0.062
11.0000,-0.128
11.0400,-0.064
11.0800,0.115
11.1200,-0.004
11.1600,-0.090
11.2000,0.022
11.2400,-0.022
11.2800,0.035
11.3200,-0.124
11.3600,-0.006
11.4000,-0.039
11.4400,-0.005
11.4800,-0.041
11.5200,0.016
11.5600,-0.168
11.6000,0.037
11.6400,-0.144
11.6800,-0.044
11.7200,0.091
11.7600,-0.063
11.8000,0.130
11.8400,0.110
11.8800,-0.038
11.9200,-0.079
11.9600,-0.033
12.0000,-0.024
12.0400,0.044
12.0800,0.031
12.1200,-0.012
12.1600,-0.050
12.2000,-0.032
12.2400,-0.076
12.2800,-0.073
12.3200,-0.089
12.3600,-0.074
12.4000,0.031
12.4400,0.031
12.4800,-0.114
12.5200,-0.031
12.5600,0.053
12.6000,-0.083
12.6400,0.005
12.6800,-0.037
12.7200,0.081
12.7600,0.073
12.8000,-0.106
12.8400,0.048
12.8800,0.065
12.9200,-0.185
12.9600,0.025
13.0000,-0.091
13.0400,-0.036
13.0800,0.092
13.1200,-0.123
13.1600,0.057
13.2000,0.163
13.2400,-0.193
13.2800,-0.087
13.3200,0.059
13.3600,-0.049
13.4000,-0.135
13.4400,0.134
13.4800,-0.027
13.5200,-0.042
13.5600,-0.002
13.6000,0.071
13.6400,-0.025
13.6800,-0.043
13.7200,-0.051
13.7600,-0.002
13.8000,0.015
13.8400,-0.230
13.8800,0.024
13.9200,-0.069
13.9600,-0.041
14.0000,0.010
14.0400,0.153
14.0800,0.069
14.1200,-0.193
14.1600,-0.078
14.2000,0.051
14.2400,0.119
14.2800,0.134
14.3200,-0.117
14.3600,0.023
14.4000,0.039
14.4400,0.016
14.4800,0.021
14.5200,-0.067
14.5600,0.083
14.6000,0.008
14.6400,0.135
14.6800,-0.082
14.7200,0.011
14.7600,0.077
14.8000,0.011
14.8400,-0.088
14.8800,-0.058
14.9200,0.013
14.9600,-0.075
15.0000,-0.057
15.0400,0.073
15.0800,0.062
15.1200,0.010
15.1600,0.059
15.2000,0.026
15.2400,-0.034
15.2800,0.034
15.3200,-0.077
15.3600,-0.010
15.4000,-0.091
15.4400,0.008
15.4800,-0.057
15.5200,-0.061
15.5600,-0.101
15.6000,0.061
15.6400,0.044
15.6800,0.071
15.7200,0.089
15.7600,0.018
15.8000,0.084
15.8400,-0.041
15.8800,0.006
15.9200,-0.157
15.9600,-0.004
16.0000,0.140
16.0400,0.064
16.0800,-0.007
16.1200,0.072
16.1600,-0.060
16.2000,-0.062
16.2400,-0.014
16.2800,-0.014
16.3200,-0.025
16.3600,-0.071
16.4000,0.135
16.4400,0.010
16.4800,-0.025
16.5200,-0.007
16.5600,-0.019
16.6000,-0.098
16.6400,0.009
16.6800,-0.019
16.7200,0.031
16.7600,0.024
16.8000,0.015
16.8400,0.042
16.8800,0.113
16.9200,-0.167
16.9600,-0.053
17.0000,0.024
17.0400,-0.074
17.0800,-0.013
17.1200,0.047
17.1600,-0.086
17.2000,0.018
17.2400,0.033
17.2800,0.085
17.3200,0.056
17.3600,-0.011
17.4000,0.078
17.4400,0.031
17.4800,0.096
17.5200,0.116
17.5600,0.135
17.6000,0.119
17.6400,0.123
17.6800,0.187
17.7200,0.052
17.7600,-0.119
17.8000,-0.063
17.8400,-0.025
17.8800,0.065
17.9200,0.084
17.9600,-0.021
18.0000,0.008
18.0400,0.027
18.0800,0.090
18.1200,-0.107
18.1600,-0.015
18.2000,-0.021
18.2400,-0.057
18.2800,-0.018
18.3200,0.148
18.3600,-0.090
18.4000,0.139
18.4400,-0.158
18.4800,0.008
18.5200,-0.007
18.5600,-0.057
18.6000,0.047
18.6400,0.208
18.6800,0.010
18.7200,-0.167
18.7600,0.079
18.8000,-0.179
18.8400,-0.078
18.8800,0.007
18.9200,-0.067
18.9600,-0.022
19.0000,0.099
19.0400,0.035
19.0800,-0.052
19.1200,-0.030
19.1600,-0.026
19.2000,-0.025
19.2400,-0.058
19.2800,0.044
19.3200,0.002
19.3600,0.017
19.4000,0.062
19.4400,0.168
19.4800,-0.014
19.5200,-0.082
19.5600,-0.027
19.6000,0.099
19.6400,0.031
19.6800,-0.028
19.7200,0.023
19.7600,0.025
19.8000,-0.027
19.8400,0.171
19.8800,0.035
19.9200,0.082
19.9600,0.148
20.0000,-0.103
20.0400,0.143
20.0800,0.064
20.1200,0.011
20.1600,-0.017
20.2000,-0.008
20.2400,-0.027
20.2800,-0.008
20.3200,-0.055
20.3600,0.023
20.4000,-0.010
20.4400,0.087
20.4800,0.080
20.5200,-0.096
20.5600,-0.081
20.6000,0.060
20.6400,0.114
20.6800,-0.047
20.7200,0.047
20.7600,0.027
20.8000,-0.019
20.8400,-0.065
20.8800,-0.080
20.9200,-0.096
20.9600,0.079
21.0000,0.147
21.0400,0.078
21.0800,0.145
21.1200,0.058
21.1600,0.043
21.2000,0.060
21.2400,0.070
21.2800,0.154
21.3200,-0.027
21.3600,-0.068
21.4000,-0.014
21.4400,0.010
21.4800,-0.052
21.5200,-0.039
21.5600,-0.080
21.6000,-0.083
21.6400,0.085
21.6800,-0.070
21.7200,0.118
21.7600,-0.028
21.8000,0.023
21.8400,0.014
21.8800,0.056
21.9200,-0.132
21.9600,-0.060
22.0000,0.095
22.0400,-0.106
22.0800,-0.063
22.1200,-0.009
22.1600,-0.044
22.2000,0.067
22.2400,0.137
22.2800,0.039
22.3200,-0.006
22.3600,0.058
22.4000,-0.101
22.4400,0.020
22.4800,-0.097
22.5200,-0.018
22.5600,-0.069
22.6000,0.046
22.6400,-0.022
22.6800,0.121
22.7200,-0.138
22.7600,0.003
22.8000,0.087
22.8400,-0.145
22.8800,0.081
22.9200,-0.035
22.9600,-0.096
23.0000,0.095
23.0400,0.091
23.0800,-0.047
23.1200,-0.107
23.1600,0.041
23.2000,0.212
23.2400,-0.191
23.2800,0.064
23.3200,0.131
23.3600,0.088
23.4000,-0.036
23.4400,0.031
23.4800,-0.105
23.5200,-0.032
23.5600,-0.054
23.6000,0.057
23.6400,0.045
23.6800,0.007
23.7200,0.067
23.7600,0.056
23.8000,0.088
23.8400,0.041
23.8800,0.141
23.9200,0.041
23.9600,-0.076
24.0000,0.032
24.0400,0.037
24.0800,-0.007
24.1200,0.015
24.1600,-0.151
24.2000,0.005
24.2400,0.059
24.2800,0.020
24.3200,-0.034
24.3600,0.025
24.4000,-0.066
24.4400,0.103
24.4800,-0.003
24.5200,0.041
24.5600,0.004
24.6000,-0.045
24.6400,-0.104
24.6800,0.045
24.7200,-0.081
24.7600,0.076
24.8000,-0.044
24.8400,-0.072
24.8800,0.034
24.9200,0.034
24.9600,0.117
25.0000,0.034
25.0400,-0.094
25.0800,-0.039
25.1200,0.036
25.1600,0.070
25.2000,0.044
25.2400,0.034
25.2800,-0.067
25.3200,0.098
25.3600,-0.055
25.4000,-0.088
25.4400,0.054
25.4800,0.023
25.5200,0.153
25.5600,0.015
25.6000,0.060
25.6400,-0.018
25.6800,0.034
25.7200,0.056
25.7600,0.012
25.8000,-0.032
25.8400,0.072
25.8800,0.088
25.9200,0.105
25.9600,0.139
26.0000,0.183
26.0400,0.077
26.0800,0.105
26.1200,0.063
26.1600,0.076
26.2000,0.028
26.2400,0.129
26.2800,0.044
26.3200,0.105
26.3600,0.034
26.4000,-0.031
26.4400,0.192
26.4800,0.022
26.5200,0.047
26.5600,0.018
26.6000,-0.014
26.6400,0.073
26.6800,-0.082
26.7200,-0.075
26.7600,0.075
26.8000,0.050
26.8400,-0.044
26.8800,0.057
26.9200,0.103
26.9600,0.088
27.0000,-0.039
27.0400,0.015
27.0800,0.016
27.1200,0.062
27.1600,-0.012
27.2000,-0.099
27.2400,0.074
27.2800,0.064
27.3200,-0.017
27.3600,-0.100
27.4000,0.015
27.4400,-0.066
27.4800,0.070
27.5200,0.212
27.5600,0.039
27.6000,-0.031
27.6400,-0.074
27.6800,0.006
27.7200,-0.054
27.7600,0.106
27.8000,0.025
27.8400,-0.148
27.8800,0.083
27.9200,-0.061
27.9600,0.037
28.0000,0.153
28.0400,-0.024
28.0800,0.004
28.1200,-0.064
28.1600,0.029
28.2000,-0.010
28.2400,-0.073
28.2800,-0.011
28.3200,-0.081
28.3600,0.023
28.4000,0.120
28.4400,-0.099
28.4800,-0.072
28.5200,-0.137
28.5600,0.091
28.6000,-0.060
28.6400,-0.051
28.6800,0.027
28.7200,-0.019
28.7600,-0.004
28.8000,0.049
28.8400,0.007
28.8800,-0.024
28.9200,0.160
28.9600,-0.094
29.0000,0.010
29.0400,0.031
29.0800,0.044
29.1200,0.041
29.1600,0.119
29.2000,-0.003
29.2400,-0.128
29.2800,-0.003
29.3200,0.065
29.3600,0.046
29.4000,0.160
29.4400,0.012
29.4800,0.012
29.5200,-0.009
29.5600,-0.040
29.6000,0.056
29.6400,-0.205
29.6800,0.042
29.7200,-0.043
29.7600,-0.016
29.8000,0.012
29.8400,0.016
29.8800,-0.053
29.9200,-0.045
29.9600,-0.067
30.0000,-0.105
30.0400,0.091
30.0800,0.001
30.1200,0.032
30.1600,-0.068
30.2000,-0.047
30.2400,0.193
30.2800,0.131
30.3200,0.017
30.3600,-0.036
30.4000,0.046
30.4400,-0.039
30.4800,-0.012
30.5200,0.051
30.5600,0.016
30.6000,-0.031
30.6400,0.003
30.6800,-0.034
30.7200,-0.067
30.7600,-0.055
30.8000,-0.008
30.8400,0.085
30.8800,0.090
30.9200,-0.061
30.9600,0.022
31.0000,0.119
31.0400,0.069
31.0800,0.053
31.1200,0.026
31.1600,-0.014
31.2000,0.048
31.2400,0.088
31.2800,0.043
31.3200,0.010
31.3600,-0.018
31.4000,-0.011
31.4400,-0.087
31.4800,0.004
31.5200,-0.049
31.5600,-0.065
31.6000,0.010
31.6400,0.038
31.6800,0.048
31.7200,0.033
31.7600,0.011
31.8000,-0.113
31.8400,0.016
31.8800,0.043
31.9200,0.044
31.9600,0.026
32.0000,-0.057
32.0400,0.027
32.0800,0.011
32.1200,-0.051
32.1600,0.043
32.2000,0.003
32.2400,0.124
32.2800,0.002
32.3200,0.093
32.3600,-0.052
32.4000,0.066
32.4400,0.014
32.4800,-0.035
32.5200,-0.022
32.5600,-0.050
32.6000,-0.065
32.6400,0.013
32.6800,0.005
32.7200,-0.042
32.7600,0.070
32.8000,0.009
32.8400,0.004
32.8800,0.007
32.9200,0.059
32.9600,0.005
33.0000,0.081
33.0400,0.007
33.0800,-0.043
33.1200,0.003
33.1600,-0.014
33.2000,-0.055
33.2400,-0.044
33.2800,-0.030
33.3200,-0.061
33.3600,-0.033
33.4000,0.025
33.4400,-0.037
33.4800,-0.010
33.5200,0.074
33.5600,0.093
33.6000,0.093
33.6400,0.025
33.6800,-0.011
33.7200,0.015
33.7600,0.095
33.8000,0.044
33.8400,-0.127
33.8800,-0.055
33.9200,0.002
33.9600,0.019
34.0000,0.033
34.0400,-0.020
34.0800,-0.005
34.1200,0.019
34.1600,0.118
34.2000,-0.034
34.2400,-0.018
34.2800,0.035
34.3200,-0.017
34.3600,0.024
34.4000,-0.051
34.4400,-0.024
34.4800,0.025
34.5200,-0.089
34.5600,-0.023
34.6000,0.016
34.6400,-0.043
34.6800,0.088
34.7200,0.059
34.7600,0.080
34.8000,0.088
34.8400,-0.028
34.8800,-0.016
34.9200,0.052
34.9600,-0.065
35.0000,0.102
35.0400,0.062
35.0800,0.014
35.1200,0.001
35.1600,0.013
35.2000,-0.032
35.2400,-0.060
35.2800,0.013
35.3200,0.013
35.3600,0.074
35.4000,-0.024
35.4400,0.095
35.4800,0.106
35.5200,-0.012
35.5600,-0.060
35.6000,-0.059
35.6400,0.158
35.6800,0.132
35.7200,0.060
35.7600,0.027
35.8000,0.059
35.8400,-0.010
35.8800,0.046
35.9200,0.057
35.9600,0.082
36.0000,0.049
36.0400,0.039
36.0800,0.068
36.1200,0.009
36.1600,-0.021
36.2000,-0.016
36.2400,0.026
36.2800,-0.062
36.3200,-0.033
36.3600,0.052
36.4000,-0.041
36.4400,0.009
36.4800,-0.037
36.5200,0.068
36.5600,0.084
36.6000,0.002
36.6400,-0.029
36.6800,0.068
36.7200,-0.008
36.7600,-0.015
36.8000,-0.047
36.8400,0.014
36.8800,-0.053
36.9200,-0.020
36.9600,-0.002
37.0000,0.006
37.0400,0.008
37.0800,-0.036
37.1200,0.065
37.1600,-0.051
37.2000,-0.028
37.2400,0.025
37.2800,-0.027
37.3200,0.002
37.3600,-0.116
37.4000,-0.004
37.4400,0.051
37.4800,-0.040
37.5200,-0.012
37.5600,-0.043
37.6000,0.108
37.6400,0.021
37.6800,0.015
37.7200,-0.046
37.7600,0.085
37.8000,-0.008
37.8400,0.058
37.8800,-0.017
37.9200,-0.056
37.9600,-0.025
38.0000,0.008
38.0400,-0.043
38.0800,-0.013
38.1200,-0.027
38.1600,0.089
38.2000,-0.003
38.2400,0.009
38.2800,0.096
38.3200,-0.039
38.3600,-0.022
38.4000,-0.055
38.4400,0.003
38.4800,-0.046
38.5200,0.069
38.5600,0.085
38.6000,0.065
38.6400,0.119
38.6800,0.048
38.7200,-0.066
38.7600,0.081
38.8000,-0.035
38.8400,-0.035
38.8800,-0.067
38.9200,0.041
38.9600,-0.166
39.0000,-0.032
39.0400,-0.004
39.0800,-0.038
39.1200,0.128
39.1600,0.036
39.2000,-0.030
39.2400,0.018
39.2800,-0.022
39.3200,-0.058
39.3600,0.016
39.4000,-0.075
39.4400,0.019
39.4800,0.017
39.5200,-0.078
39.5600,0.021
39.6000,-0.003
39.6400,0.047
39.6800,-0.076
39.7200,0.052
39.7600,-0.091
39.8000,-0.035
39.8400,0.023
39.8800,0.021
39.9200,-0.044
39.9600,-0.054
40.0000,-0.011
40.0400,-0.039
40.0800,-0.043
40.1200,0.001
40.1600,-0.008
40.2000,0.134
40.2400,0.086
40.2800,0.100
40.3200,0.037
40.3600,0.020
40.4000,-0.066
40.4400,0.029
40.4800,0.103
40.5200,0.046
40.5600,0.071
40.6000,0.128
40.6400,0.097
40.6800,0.010
40.7200,-0.020
40.7600,-0.018
40.8000,0.013
40.8400,0.039
40.8800,0.100
40.9200,-0.005
40.9600,-0.018
41.0000,-0.119
41.0400,0.006
41.0800,0.007
41.1200,0.055
41.1600,0.087
41.2000,-0.016
41.2400,-0.020
41.2800,-0.026
41.3200,-0.066
41.3600,0.033
41.4000,-0.046
41.4400,0.042
41.4800,0.031
41.5200,0.089
41.5600,0.008
41.6000,-0.040
41.6400,0.090
41.6800,-0.056
41.7200,-0.043
41.7600,0.003
41.8000,-0.040
41.8400,-0.031
41.8800,-0.042
41.9200,-0.017
41.9600,-0.052
42.0000,-0.051
42.0400,0.024
42.0800,0.040
42.1200,0.011
42.1600,0.003
42.2000,0.024
42.2400,-0.081
42.2800,0.011
42.3200,-0.096
42.3600,0.014
42.4000,-0.084
42.4400,-0.011
42.4800,-0.017
42.5200,-0.044
42.5600,-0.016
42.6000,0.018
42.6400,-0.054
42.6800,-0.021
42.7200,-0.011
42.7600,-0.040
42.8000,-0.004
42.8400,-0.036
42.8800,-0.020
42.9200,0.007
42.9600,-0.060
43.0000,0.004
43.0400,-0.002
43.0800,-0.001
43.1200,0.001
43.1600,0.051
43.2000,-0.046
43.2400,-0.014
43.2800,-0.050
43.3200,-0.034
43.3600,-0.018
43.4000,-0.069
43.4400,0.015
43.4800,0.062
43.5200,0.075
43.5600,0.033
43.6000,-0.041
43.6400,0.054
43.6800,-0.015
43.7200,0.002
43.7600,-0.049
43.8000,-0.050
43.8400,0.056
43.8800,0.059
43.9200,-0.008
43.9600,0.039
44.0000,0.033
44.0400,0.009
44.0800,-0.072
44.1200,0.089
44.1600,-0.091
44.2000,-0.028
44.2400,0.011
44.2800,0.056
44.3200,-0.014
44.3600,-0.070
44.4000,0.016
44.4400,0.000
44.4800,0.050
44.5200,0.014
44.5600,-0.047
44.6000,-0.018
44.6400,-0.049
44.6800,-0.049
44.7200,-0.016
44.7600,-0.009
44.8000,0.034
44.8400,0.024
44.8800,0.010
44.9200,-0.023
44.9600,-0.046
45.0000,-0.048
45.0400,0.041
45.0800,-0.095
45.1200,0.053
45.1600,0.027
45.2000,0.003
45.2400,0.008
45.2800,0.010
45.3200,-0.048
45.3600,-0.027
45.4000,-0.027
45.4400,0.014
45.4800,-0.024
45.5200,0.047
45.5600,-0.004
45.6000,0.013
45.6400,0.022
45.6800,0.023
45.7200,0.006
45.7600,0.020
45.8000,0.102
45.8400,-0.013
45.8800,-0.075
45.9200,0.012
45.9600,0.005
46.0000,0.033
46.0400,-0.017
46.0800,0.074
46.1200,0.049
46.1600,-0.013
46.2000,0.004
46.2400,0.003
46.2800,0.026
46.3200,0.010
46.3600,-0.069
46.4000,-0.013
46.4400,0.000
46.4800,-0.038
46.5200,0.002
46.5600,-0.029
46.6000,0.095
46.6400,0.024
46.6800,-0.072
46.7200,0.062
46.7600,-0.061
46.8000,0.001
46.8400,-0.040
46.8800,0.001
46.9200,0.009
46.9600,-0.072
47.0000,-0.005
47.0400,-0.047
47.0800,-0.015
47.1200,0.018
47.1600,-0.012
47.2000,-0.025
47.2400,-0.051
47.2800,0.029
47.3200,0.003
47.3600,-0.026
47.4000,-0.043
47.4400,-0.014
47.4800,0.024
47.5200,0.004
47.5600,0.037
47.6000,-0.047
47.6400,-0.023
47.6800,0.008
47.7200,0.097
47.7600,0.002
47.8000,0.034
47.8400,0.088
47.8800,0.001
47.9200,0.034
47.9600,-0.051
48.0000,-0.039
48.0400,0.032
48.0800,-0.027
48.1200,-0.042
48.1600,-0.024
48.2000,0.004
48.2400,0.018
48.2800,0.068
48.3200,-0.009
48.3600,-0.086
48.4000,0.054
48.4400,0.014
48.4800,-0.097
48.5200,-0.016
48.5600,0.001
48.6000,0.011
48.6400,-0.033
48.6800,0.008
48.7200,0.090
48.7600,0.010
48.8000,-0.046
48.8400,-0.030
48.8800,-0.038
48.9200,-0.029
48.9600,-0.007
49.0000,-0.005
49.0400,-0.038
49.0800,0.104
49.1200,0.097
49.1600,0.027
49.2000,-0.091
49.2400,-0.006
49.2800,0.018
49.3200,0.037
49.3600,0.052
49.4000,-0.032
49.4400,0.075
49.4800,0.045
49.5200,0.013
49.5600,0.009
49.6000,0.019
49.6400,-0.060
49.6800,-0.022
49.7200,-0.077
49.7600,0.020
49.8000,-0.006
49.8400,0.149
49.8800,0.076
49.9200,-0.043
49.9600,-0.031
50.0000,-0.004
50.0400,-0.002
50.0800,0.048
50.1200,-0.001
50.1600,-0.028
50.2000,-0.021
50.2400,-0.014
50.2800,-0.007
50.3200,-0.019
50.3600,0.015
50.4000,0.062
50.4400,0.019
50.4800,0.019
50.5200,-0.044
50.5600,-0.034
50.6000,-0.006
50.6400,0.035
50.6800,-0.049
50.7200,0.009
50.7600,-0.014
50.8000,0.010
50.8400,-0.022
50.8800,-0.027
50.9200,-0.019
50.9600,0.000
51.0000,-0.041
51.0400,-0.044
51.0800,0.017
51.1200,-0.088
51.1600,0.027
51.2000,0.049
51.2400,-0.027
51.2800,0.045
51.3200,0.024
51.3600,-0.011
51.4000,0.035
51.4400,-0.036
51.4800,0.051
51.5200,0.016
51.5600,0.079
51.6000,0.028
51.6400,0.095
51.6800,-0.010
51.7200,-0.009
51.7600,0.042
51.8000,0.052
51.8400,-0.047
51.8800,-0.043
51.9200,0.006
51.9600,-0.037
52.0000,0.096
52.0400,0.052
52.0800,0.032
52.1200,0.109
52.1600,0.092
52.2000,-0.030
52.2400,-0.009
52.2800,-0.003
52.3200,0.072
52.3600,-0.009
52.4000,0.046
52.4400,0.006
52.4800,-0.083
52.5200,-0.007
52.5600,0.053
52.6000,0.054
52.6400,-0.045
52.6800,-0.037
52.7200,-0.088
52.7600,0.041
52.8000,-0.045
52.8400,-0.019
52.8800,0.097
52.9200,-0.047
52.9600,-0.025
53.0000,-0.044
53.0400,0.027
53.0800,-0.040
53.1200,0.030
53.1600,-0.049
53.2000,-0.034
53.2400,0.025
53.2800,0.025
53.3200,0.035
53.3600,0.014
53.4000,0.057
53.4400,0.033
53.4800,-0.071
53.5200,-0.032
53.5600,0.021
53.6000,-0.021
53.6400,0.029
53.6800,-0.006
53.7200,0.109
53.7600,-0.038
53.8000,-0.019
53.8400,-0.045
53.8800,0.027
53.9200,0.034
53.9600,-0.015
54.0000,-0.022
54.0400,0.044
54.0800,0.039
54.1200,-0.001
54.1600,0.010
54.2000,0.029
54.2400,-0.042
54.2800,-0.041
54.3200,0.028
54.3600,-0.003
54.4000,0.073
54.4400,0.032
54.4800,-0.005
54.5200,-0.008
54.5600,-0.049
54.6000,0.024
54.6400,-0.024
54.6800,-0.041
54.7200,-0.019
54.7600,-0.001
54.8000,0.012
54.8400,0.038
54.8800,0.041
54.9200,0.018
54.9600,0.024
55.0000,0.005
55.0400,-0.041
55.0800,-0.016
55.1200,0.006
55.1600,-0.017
55.2000,0.014
55.2400,0.093
55.2800,-0.007
55.3200,0.058
55.3600,-0.025
55.4000,-0.023
55.4400,0.023
55.4800,-0.023
55.5200,-0.017
55.5600,0.038
55.6000,-0.030
55.6400,-0.041
55.6800,-0.033
55.7200,0.035
55.7600,0.006
55.8000,0.028
55.8400,0.025
55.8800,-0.020
55.9200,-0.019
55.9600,-0.051
56.0000,0.017
56.0400,0.025
56.0800,-0.025
56.1200,-0.017
56.1600,-0.026
56.2000,-0.027
56.2400,0.011
56.2800,-0.041
56.3200,-0.018
56.3600,-0.095
56.4000,0.031
56.4400,-0.058
56.4800,0.018
56.5200,-0.015
56.5600,0.056
56.6000,0.018
56.6400,0.025
56.6800,-0.028
56.7200,-0.047
56.7600,0.029
56.8000,0.052
56.8400,0.036
56.8800,0.008
56.9200,0.046
56.9600,-0.025
57.0000,-0.004
57.0400,-0.008
57.0800,0.054
57.1200,-0.021
57.1600,-0.115
57.2000,0.013
57.2400,0.005
57.2800,0.049
57.3200,0.001
57.3600,0.024
57.4000,0.056
57.4400,-0.024
57.4800,-0.028
57.5200,-0.039
57.5600,-0.038
57.6000,-0.003
57.6400,-0.006
57.6800,-0.046
57.7200,0.055
57.7600,0.029
57.8000,-0.001
57.8400,-0.043
57.8800,0.003
57.9200,0.094
57.9600,0.043
58.0000,-0.021
58.0400,0.036
58.0800,-0.049
58.1200,0.019
58.1600,-0.049
58.2000,-0.019
58.2400,0.050
58.2800,0.005
58.3200,-0.039
58.3600,-0.023
58.4000,-0.029
58.4400,-0.019
58.4800,0.017
58.5200,0.027
58.5600,-0.003
58.6000,-0.024
58.6400,-0.015
58.6800,-0.063
58.7200,0.082
58.7600,-0.009
58.8000,-0.038
58.8400,-0.035
58.8800,0.072
58.9200,0.040
58.9600,0.098
59.0000,-0.068
59.0400,0.010
59.0800,-0.005
59.1200,0.048
59.1600,0.024
59.2000,-0.038
59.2400,-0.062
59.2800,0.049
59.3200,0.004
59.3600,-0.038
59.4000,-0.033
59.4400,0.030
59.4800,-0.028
59.5200,-0.021
59.5600,0.021
59.6000,-0.058
59.6400,0.001
59.6800,-0.012
59.7200,0.033
59.7600,-0.049
59.8000,0.018
59.8400,0.038
59.8800,-0.021
59.9200,0.026
59.9600,0.006
60.0000,-0.009
60.0400,-0.057
60.0800,0.010
60.1200,-0.015
60.1600,-0.006
60.2000,0.001
60.2400,-0.029
60.2800,-0.008
60.3200,-0.013
60.3600,-0.037
60.4000,-0.002
60.4400,0.010
60.4800,0.014
60.5200,0.000
60.5600,-0.041
60.6000,0.002
60.6400,-0.030
60.6800,0.021
60.7200,0.002
60.7600,-0.052
60.8000,0.042
60.8400,0.060
60.8800,-0.014
60.9200,-0.007
60.9600,-0.038
61.0000,0.002
61.0400,-0.031
61.0800,-0.021
61.1200,-0.021
61.1600,0.030
61.2000,0.054
61.2400,0.022
61.2800,-0.038
61.3200,-0.031
61.3600,-0.017
61.4000,0.003
61.4400,-0.037
61.4800,-0.033
61.5200,0.012
61.5600,0.032
61.6000,-0.045
61.6400,0.045
61.6800,0.075
61.7200,0.090
61.7600,0.010
61.8000,-0.004
61.8400,-0.004
61.8800,0.006
61.9200,-0.037
61.9600,-0.019
62.0000,-0.021
62.0400,0.001
62.0800,-0.025
62.1200,-0.040
62.1600,0.030
62.2000,0.035
62.2400,-0.047
62.2800,-0.009
62.3200,-0.044
62.3600,0.006
62.4000,-0.036
62.4400,-0.097
62.4800,0.049
62.5200,0.011
62.5600,-0.006
62.6000,-0.078
62.6400,0.005
62.6800,-0.025
62.7200,-0.011
62.7600,-0.062
62.8000,0.012
62.8400,0.011
62.8800,-0.037
62.9200,-0.073
62.9600,0.120
63.0000,-0.027
63.0400,0.018
63.0800,-0.012
63.1200,-0.028
63.1600,-0.017
63.2000,0.045
63.2400,-0.032
63.2800,-0.004
63.3200,-0.053
63.3600,0.018
63.4000,-0.037
63.4400,-0.073
63.4800,0.079
63.5200,-0.007
63.5600,-0.008
63.6000,0.093
63.6400,-0.041
63.6800,-0.037
63.7200,0.024
63.7600,-0.051
63.8000,-0.028
63.8400,0.000
63.8800,-0.026
63.9200,-0.018
63.9600,-0.010
64.0000,0.002
64.0400,-0.016
64.0800,0.007
64.1200,-0.009
64.1600,0.022
64.2000,-0.013
64.2400,-0.031
64.2800,0.000
64.3200,0.020
64.3600,-0.017
64.4000,-0.062
64.4400,0.014
64.4800,0.005
64.5200,0.059
64.5600,-0.028
64.6000,-0.016
64.6400,0.068
64.6800,0.058
64.7200,-0.021
64.7600,0.026
64.8000,0.019
64.8400,-0.038
64.8800,-0.027
64.9200,-0.017
64.9600,0.023
65.0000,-0.018
65.0400,-0.023
65.0800,-0.032
65.1200,0.003
65.1600,-0.068
65.2000,-0.002
65.2400,0.008
65.2800,-0.023
65.3200,0.022
65.3600,-0.024
65.4000,0.029
65.4400,0.038
65.4800,0.000
65.5200,-0.021
65.5600,-0.040
65.6000,-0.113
65.6400,0.038
65.6800,-0.033
65.7200,-0.016
65.7600,-0.035
65.8000,-0.039
65.8400,0.019
65.8800,-0.052
65.9200,-0.019
65.9600,0.003
66.0000,-0.028
66.0400,-0.033
66.0800,-0.022
66.1200,-0.119
66.1600,0.088
66.2000,-0.009
66.2400,-0.062
66.2800,0.004
66.3200,-0.036
66.3600,-0.030
66.4000,-0.052
66.4400,0.032
66.4800,-0.034
66.5200,0.036
66.5600,-0.021
66.6000,0.012
66.6400,-0.041
66.6800,-0.047
66.7200,0.020
66.7600,0.010
66.8000,-0.026
66.8400,0.013
66.8800,-0.028
66.9200,0.038
66.9600,0.017
67.0000,0.136
67.0400,0.104
67.0800,0.049
67.1200,0.046
67.1600,0.104
67.2000,0.093
67.2400,0.043
67.2800,-0.051
67.3200,-0.051
67.3600,0.043
67.4000,0.045
67.4400,-0.011
67.4800,0.006
67.5200,0.089
67.5600,0.157
67.6000,0.132
67.6400,0.232
67.6800,0.299
67.7200,0.233
67.7600,0.228
67.8000,0.247
67.8400,0.283
67.8800,0.285
67.9200,0.343
67.9600,0.326
68.0000,0.412
68.0400,0.377
68.0800,0.535
68.1200,0.474
68.1600,0.693
68.2000,0.527
68.2400,0.610
68.2800,0.621
68.3200,0.752
68.3600,0.942
68.4000,0.957
68.4400,1.109
68.4800,1.122
68.5200,1.249
68.5600,1.447
68.6000,1.647
68.6400,1.735
68.6800,2.350
68.7200,2.931
68.7600,4.345
68.8000,6.002
68.8400,6.350
68.8800,6.495
68.9200,7.066
68.9600,8.595
69.0000,13.582
69.0400,25.464
69.0800,90.699
69.1200,403.789
69.1600,546.707
69.2000,229.403
69.2400,57.213
69.2800,71.077
69.3200,221.704
69.3600,272.747
69.4000,111.213
69.4400,27.071
69.4800,12.234
69.5200,8.145
69.5600,5.927
69.6000,4.757
69.6400,3.941
69.6800,3.290
69.7200,2.701
69.7600,2.463
69.8000,2.068
69.8400,1.896
69.8800,1.724
69.9200,1.417
69.9600,1.329
70.0000,1.100
70.0400,1.207
70.0800,0.996
70.1200,0.959
70.1600,0.787
70.2000,0.747
70.2400,0.787
70.2800,0.633
70.3200,0.685
70.3600,0.434
70.4000,0.554
70.4400,0.505
70.4800,0.501
70.5200,0.338
70.5600,0.345
70.6000,0.298
70.6400,0.201
70.6800,0.233
70.7200,0.271
70.7600,0.148
70.8000,0.130
70.8400,0.067
70.8800,0.078
70.9200,0.177
70.9600,0.127
71.0000,0.120
71.0400,0.141
71.0800,0.062
71.1200,0.082
71.1600,0.028
71.2000,0.019
71.2400,-0.065
71.2800,0.042
71.3200,-0.015
71.3600,-0.019
71.4000,0.029
71.4400,-0.089
71.4800,-0.034
71.5200,0.143
71.5600,0.060
71.6000,0.007
71.6400,-0.045
71.6800,-0.034
71.7200,0.033
71.7600,0.044
71.8000,0.001
71.8400,-0.040
71.8800,-0.028
71.9200,-0.109
71.9600,0.029
72.0000,-0.021
72.0400,0.016
72.0800,-0.058
72.1200,0.041
72.1600,0.003
72.2000,0.038
72.2400,0.074
72.2800,0.049
72.3200,0.045
72.3600,0.014
72.4000,-0.054
72.4400,-0.027
72.4800,-0.037
72.5200,-0.019
72.5600,-0.019
72.6000,-0.004
72.6400,0.022
72.6800,-0.005
72.7200,0.032
72.7600,-0.054
72.8000,0.009
72.8400,-0.077
72.8800,-0.009
72.9200,-0.007
72.9600,0.034
73.0000,0.031
73.0400,-0.022
73.0800,0.074
73.1200,-0.011
73.1600,0.061
73.2000,-0.014
73.2400,0.026
73.2800,-0.111
73.3200,-0.024
73.3600,-0.007
73.4000,-0.010
73.4400,-0.035
73.4800,0.003
73.5200,-0.016
73.5600,-0.012
73.6000,-0.049
73.6400,0.015
73.6800,0.054
73.7200,-0.010
73.7600,0.005
73.8000,0.078
73.8400,-0.032
73.8800,0.035
73.9200,-0.017
73.9600,-0.020
74.0000,-0.046
74.0400,0.015
74.0800,-0.033
74.1200,0.007
74.1600,0.017
74.2000,0.008
74.2400,-0.018
74.2800,-0.032
74.3200,-0.006
74.3600,-0.027
74.4000,0.025
74.4400,-0.018
74.4800,-0.005
74.5200,0.009
74.5600,0.009
74.6000,0.037
74.6400,0.043
74.6800,0.029
74.7200,0.003
74.7600,0.043
74.8000,-0.031
74.8400,0.023
74.8800,-0.006
74.9200,-0.030
74.9600,-0.013
75.0000,0.020
75.0400,-0.023
75.0800,0.010
75.1200,0.052
75.1600,0.017
75.2000,0.032
75.2400,-0.042
75.2800,-0.002
75.3200,0.010
75.3600,-0.001
75.4000,-0.026
75.4400,-0.046
75.4800,0.028
75.5200,-0.043
75.5600,-0.026
75.6000,0.031
75.6400,0.027
75.6800,0.017
75.7200,-0.036
75.7600,0.017
75.8000,-0.012
75.8400,-0.022
75.8800,-0.030
75.9200,-0.030
75.9600,-0.019
76.0000,0.005
76.0400,0.032
76.0800,0.021
76.1200,0.006
76.1600,-0.019
76.2000,0.009
76.2400,-0.030
76.2800,-0.025
76.3200,-0.052
76.3600,0.028
76.4000,-0.065
76.4400,0.012
76.4800,-0.008
76.5200,0.009
76.5600,-0.002
76.6000,0.019
76.6400,0.008
76.6800,0.001
76.7200,0.007
76.7600,-0.057
76.8000,-0.007
76.8400,-0.002
76.8800,-0.027
76.9200,-0.003
76.9600,-0.014
77.0000,-0.005
77.0400,-0.008
77.0800,0.015
77.1200,-0.008
77.1600,0.043
77.2000,0.012
77.2400,-0.013
77.2800,-0.044
77.3200,0.013
77.3600,0.028
77.4000,0.044
77.4400,-0.011
77.4800,-0.029
77.5200,0.006
77.5600,0.030
77.6000,0.018
77.6400,-0.023
77.6800,-0.015
77.7200,-0.018
77.7600,0.002
77.8000,-0.006
77.8400,-0.014
77.8800,-0.012
77.9200,-0.028
77.9600,-0.008
78.0000,0.032
78.0400,0.006
78.0800,-0.011
78.1200,-0.002
78.1600,0.025
78.2000,-0.057
78.2400,-0.027
78.2800,-0.017
78.3200,-0.010
78.3600,-0.035
78.4000,0.023
78.4400,-0.010
78.4800,-0.035
78.5200,0.010
78.5600,0.002
78.6000,-0.045
78.6400,0.027
78.6800,-0.014
78.7200,0.027
78.7600,0.051
78.8000,0.009
78.8400,-0.007
78.8800,-0.017
78.9200,-0.022
78.9600,-0.020
79.0000,0.002
79.0400,-0.033
79.0800,-0.002
79.1200,0.027
79.1600,0.009
79.2000,-0.030
79.2400,-0.010
79.2800,0.060
79.3200,0.018
79.3600,-0.016
79.4000,-0.003
79.4400,-0.024
79.4800,0.010
79.5200,0.010
79.5600,0.021
79.6000,0.013
79.6400,-0.056
79.6800,-0.013
79.7200,0.000
79.7600,-0.022
79.8000,-0.027
79.8400,-0.011
79.8800,0.042
79.9200,0.043
79.9600,0.008
80.0000,0.036
80.0400,0.018
80.0800,-0.013
80.1200,-0.063
80.1600,0.013
80.2000,0.023
80.2400,-0.016
80.2800,0.000
80.3200,0.027
80.3600,-0.031
80.4000,0.002
80.4400,-0.026
80.4800,-0.004
80.5200,0.017
80.5600,0.011
80.6000,-0.009
80.6400,0.020
80.6800,-0.011
80.7200,0.063
80.7600,0.029
80.8000,-0.015
80.8400,-0.030
80.8800,0.012
80.9200,0.005
80.9600,-0.022
81.0000,0.013
81.0400,0.034
81.0800,-0.052
81.1200,-0.020
81.1600,0.034
81.2000,-0.022
81.2400,0.014
81.2800,-0.012
81.3200,-0.020
81.3600,-0.005
81.4000,0.009
81.4400,0.031
81.4800,0.006
81.5200,0.003
81.5600,-0.030
81.6000,-0.006
81.6400,-0.040
81.6800,0.020
81.7200,-0.008
81.7600,0.003
81.8000,-0.001
81.8400,-0.016
81.8800,-0.017
81.9200,0.011
81.9600,-0.041
82.0000,0.016
82.0400,-0.042
82.0800,0.001
82.1200,0.014
82.1600,-0.012
82.2000,-0.058
82.2400,0.037
82.2800,0.021
82.3200,0.047
82.3600,0.013
82.4000,0.068
82.4400,0.020
82.4800,-0.058
82.5200,-0.025
82.5600,0.021
82.6000,0.017
82.6400,0.008
82.6800,-0.015
82.7200,-0.032
82.7600,0.038
82.8000,-0.034
82.8400,-0.016
82.8800,-0.017
82.9200,-0.026
82.9600,-0.001
83.0000,-0.026
83.0400,-0.005
83.0800,-0.017
83.1200,-0.026
83.1600,-0.025
83.2000,-0.026
83.2400,-0.003
83.2800,-0.026
83.3200,-0.014
83.3600,-0.008
83.4000,-0.015
83.4400,-0.001
83.4800,-0.006
83.5200,0.001
83.5600,0.006
83.6000,-0.014
83.6400,-0.046
83.6800,0.011
83.7200,0.022
83.7600,-0.015
83.8000,0.019
83.8400,-0.006
83.8800,-0.016
83.9200,-0.015
83.9600,0.006
84.0000,-0.008
84.0400,-0.025
84.0800,0.006
84.1200,-0.027
84.1600,-0.005
84.2000,-0.039
84.2400,0.026
84.2800,-0.030
84.3200,-0.024
84.3600,-0.024
84.4000,-0.007
84.4400,-0.025
84.4800,-0.006
84.5200,-0.017
84.5600,0.006
84.6000,-0.013
84.6400,-0.025
84.6800,0.017
84.7200,-0.025
84.7600,-0.023
84.8000,-0.015
84.8400,-0.008
84.8800,-0.040
84.9200,0.005
84.9600,-0.016
85.0000,0.019
85.0400,0.011
85.0800,-0.032
85.1200,0.014
85.1600,-0.023
85.2000,0.017
85.2400,-0.032
85.2800,0.052
85.3200,-0.049
85.3600,0.010
85.4000,-0.010
85.4400,-0.036
85.4800,0.009
85.5200,-0.005
85.5600,-0.025
85.6000,0.004
85.6400,-0.016
85.6800,-0.006
85.7200,-0.006
85.7600,0.039
85.8000,0.016
85.8400,-0.039
85.8800,-0.017
85.9200,-0.011
85.9600,0.027
86.0000,0.038
86.0400,0.008
86.0800,0.009
86.1200,0.003
86.1600,0.015
86.2000,0.014
86.2400,0.016
86.2800,-0.024
86.3200,-0.014
86.3600,-0.025
86.4000,-0.020
86.4400,0.005
86.4800,-0.053
86.5200,0.016
86.5600,0.019
86.6000,0.024
86.6400,-0.018
86.6800,-0.024
86.7200,-0.023
86.7600,0.035
86.8000,0.007
86.8400,-0.007
86.8800,0.021
86.9200,-0.002
86.9600,-0.029
87.0000,-0.002
87.0400,0.014
87.0800,-0.023
87.1200,0.042
87.1600,-0.013
87.2000,0.035
87.2400,-0.012
87.2800,-0.010
87.3200,-0.024
87.3600,-0.018
87.4000,-0.014
87.4400,0.025
87.4800,0.012
87.5200,0.022
87.5600,0.009
87.6000,-0.035
87.6400,-0.008
87.6800,0.011
87.7200,-0.029
87.7600,-0.009
87.8000,0.016
87.8400,0.012
87.8800,0.016
87.9200,-0.042
87.9600,-0.017
88.0000,-0.022
88.0400,0.031
88.0800,-0.038
88.1200,0.041
88.1600,0.007
88.2000,-0.024
88.2400,-0.015
88.2800,0.024
88.3200,0.000
88.3600,-0.011
88.4000,0.025
88.4400,-0.020
88.4800,-0.003
88.5200,0.008
88.5600,-0.033
88.6000,-0.012
88.6400,-0.030
88.6800,0.040
88.7200,0.022
88.7600,-0.013
88.8000,0.033
88.8400,-0.014
88.8800,0.011
88.9200,0.002
88.9600,-0.041
89.0000,0.001
89.0400,0.035
89.0800,-0.055
89.1200,-0.018
89.1600,0.016
89.2000,-0.036
89.2400,0.020
89.2800,-0.029
89.3200,0.024
89.3600,0.012
89.4000,0.048
89.4400,-0.010
89.4800,0.010
89.5200,-0.018
89.5600,-0.027
89.6000,0.011
89.6400,0.030
89.6800,0.009
89.7200,-0.018
89.7600,-0.010
89.8000,-0.005
89.8400,-0.010
89.8800,-0.018
89.9200,-0.025
89.9600,0.008
90.0000,0.000
