2.003999999999999915e+01,3.158174665384030216e-02
2.007999999999999829e+01,4.303512130645925637e-02
2.012000000000000099e+01,3.377184999615261835e-02
2.016000000000000014e+01,3.789083136645676753e-02
2.019999999999999929e+01,3.999256347902453018e-02
2.023999999999999844e+01,2.321092511901063846e-02
2.028000000000000114e+01,4.731065226869601154e-02
2.032000000000000028e+01,1.366159904835860354e-02
2.035999999999999943e+01,3.171022943171791092e-02
2.039999999999999858e+01,2.427570445786499109e-02
2.044000000000000128e+01,4.122307999270542755e-02
2.048000000000000043e+01,4.570354717908088615e-02
2.051999999999999957e+01,3.936705316795874321e-02
2.055999999999999872e+01,2.789674812068180382e-02
2.060000000000000142e+01,3.237528460184248280e-02
2.064000000000000057e+01,2.933675465234530239e-02
2.067999999999999972e+01,4.334703161847067165e-02
2.071999999999999886e+01,3.994056296737278494e-02
2.076000000000000156e+01,2.150060548826878554e-02
2.080000000000000071e+01,3.532563131318989386e-02
2.083999999999999986e+01,3.393384183035218910e-02
2.087999999999999901e+01,2.905819171666100889e-02
2.092000000000000171e+01,3.756480311677132949e-02
2.096000000000000085e+01,3.323785692815023340e-02
2.100000000000000000e+01,4.100988131620287441e-02
2.103999999999999915e+01,4.951457735295905493e-02
2.107999999999999829e+01,1.878657021869773944e-02
2.112000000000000099e+01,3.223983172926298685e-02
2.116000000000000014e+01,3.120959128955848663e-02
2.119999999999999929e+01,2.541220207130185510e-02
2.123999999999999844e+01,3.501367959127325152e-02
2.128000000000000114e+01,4.223126558681473963e-02
2.132000000000000028e+01,3.001551143351842768e-02
2.135999999999999943e+01,3.044871426972719022e-02
2.139999999999999858e+01,2.813137215709572356e-02
2.144000000000000128e+01,2.233017592227861531e-02
2.148000000000000043e+01,3.174452180555647346e-02
2.151999999999999957e+01,2.905862624702085575e-02
2.155999999999999872e+01,3.993832705032715480e-02
2.160000000000000142e+01,3.211800059737977137e-02
2.164000000000000057e+01,3.383006842570896594e-02
2.167999999999999972e+01,2.765842709178176553e-02
2.171999999999999886e+01,3.450240175062860293e-02
2.176000000000000156e+01,2.484627992759096474e-02
2.180000000000000071e+01,3.517221659051224941e-02
2.183999999999999986e+01,3.908106522729665883e-02
2.187999999999999901e+01,4.555586937141171966e-02
2.192000000000000171e+01,3.974710931319956619e-02
2.196000000000000085e+01,3.265443009131520358e-02
2.200000000000000000e+01,2.794438036191372599e-02
2.203999999999999915e+01,2.671692504727479420e-02
2.207999999999999829e+01,3.007202906967849573e-02
2.212000000000000099e+01,2.554342904377924703e-02
2.216000000000000014e+01,1.386443507273224171e-02
2.219999999999999929e+01,2.693401688531764371e-02
2.223999999999999844e+01,2.588676411918972367e-02
2.228000000000000114e+01,1.640582693569088771e-02
2.232000000000000028e+01,3.552334253135181613e-02
2.235999999999999943e+01,3.795744120913887437e-02
2.239999999999999858e+01,5.267385414483265887e-02
2.244000000000000128e+01,3.420738423183704302e-02
2.248000000000000043e+01,1.922351384755742118e-02
2.251999999999999957e+01,3.265477115739949532e-02
2.255999999999999872e+01,3.343581688426716658e-02
2.260000000000000142e+01,3.751613612500313832e-02
2.264000000000000057e+01,4.452907452538721472e-02
2.267999999999999972e+01,4.585824430088655118e-02
2.271999999999999886e+01,3.398722212434351214e-02
2.276000000000000156e+01,2.284889158741316290e-02
2.280000000000000071e+01,3.719245344593832825e-02
2.283999999999999986e+01,3.595256842282313486e-02
2.287999999999999901e+01,3.727865052966018722e-02
2.292000000000000171e+01,1.953806590297908069e-02
2.296000000000000085e+01,3.387916227562310506e-02
2.300000000000000000e+01,2.732031874893359191e-02
2.303999999999999915e+01,2.607735535525330245e-02
2.307999999999999829e+01,2.831699846386233343e-02
2.312000000000000099e+01,3.513921299704035606e-02
2.316000000000000014e+01,2.491136509131688589e-02
2.319999999999999929e+01,3.356562748584745320e-02
2.323999999999999844e+01,3.323623439203648305e-02
2.328000000000000114e+01,1.897334621660103082e-02
2.332000000000000028e+01,3.385890467163455569e-02
2.335999999999999943e+01,2.326134217241569366e-02
2.339999999999999858e+01,3.484578567010040290e-02
2.344000000000000128e+01,3.121344407884256780e-02
2.348000000000000043e+01,3.693019074492277093e-02
2.351999999999999957e+01,4.576289420812060249e-02
2.355999999999999872e+01,4.799520222652831070e-02
2.360000000000000142e+01,3.501072701561304401e-02
2.364000000000000057e+01,2.495888258696764284e-02
2.367999999999999972e+01,3.305584439918455436e-02
2.371999999999999886e+01,2.263613100466808914e-02
2.376000000000000156e+01,3.293180851469898474e-02
2.380000000000000071e+01,2.856068734861860400e-02
2.383999999999999986e+01,3.445529567183257952e-02
2.387999999999999901e+01,3.484947672687029735e-02
2.392000000000000171e+01,3.817629181851183578e-02
2.396000000000000085e+01,3.123616792316184429e-02
2.400000000000000000e+01,2.814531604203795306e-02
2.403999999999999915e+01,1.717078242804484511e-02
2.407999999999999829e+01,3.296144795340041900e-02
2.412000000000000099e+01,4.306836159044653140e-02
2.416000000000000014e+01,3.062540212433765771e-02
2.419999999999999929e+01,2.313168145435420472e-02
2.423999999999999844e+01,2.443707564621374825e-02
2.428000000000000114e+01,2.794179842057074523e-02
2.432000000000000028e+01,2.264620566858006542e-02
2.435999999999999943e+01,1.588339423764662667e-02
2.439999999999999858e+01,2.616943295848824305e-02
2.444000000000000128e+01,2.893844941463419307e-02
2.448000000000000043e+01,3.739001755948969524e-02
2.451999999999999957e+01,3.795790955033435249e-02
2.455999999999999872e+01,3.797522223457300977e-02
2.460000000000000142e+01,2.845891300854800493e-02
2.464000000000000057e+01,1.729206094835188112e-02
2.467999999999999972e+01,3.472368909670252302e-02
2.471999999999999886e+01,3.675521962350394162e-02
2.476000000000000156e+01,3.805284575866136471e-02
2.480000000000000071e+01,3.330007308976690172e-02
2.483999999999999986e+01,2.964667105466322825e-02
2.487999999999999901e+01,1.920956150706734644e-02
2.492000000000000171e+01,2.600463556457238701e-02
2.496000000000000085e+01,3.921557652789527809e-02
2.500000000000000000e+01,2.346019481637773296e-02
2.503999999999999915e+01,2.512032551423806076e-02
2.507999999999999829e+01,4.034609348556855019e-02
2.512000000000000099e+01,2.770550463414820849e-02
2.516000000000000014e+01,2.624729766169528467e-02
2.519999999999999929e+01,2.863837665061430907e-02
2.523999999999999844e+01,1.819594779562241568e-02
2.528000000000000114e+01,1.270277028918740184e-02
2.532000000000000028e+01,2.682503736121442245e-02
2.535999999999999943e+01,2.994707207967008122e-02
2.539999999999999858e+01,1.345248666002168622e-02
2.544000000000000128e+01,3.197284961680012944e-02
2.548000000000000043e+01,3.179323041309671527e-02
2.551999999999999957e+01,1.768014216244144163e-02
2.555999999999999872e+01,1.621605971630228279e-02
2.560000000000000142e+01,2.135117902402132103e-02
2.564000000000000057e+01,1.988592706200320928e-02
2.567999999999999972e+01,3.491955790002840287e-02
2.571999999999999886e+01,4.115288948337594149e-02
2.576000000000000156e+01,2.538634878845079379e-02
2.580000000000000071e+01,1.658566699103322661e-02
2.583999999999999986e+01,2.813374545409085339e-02
2.587999999999999901e+01,7.048963278965083776e-03
2.592000000000000171e+01,3.051216035637480464e-02
2.596000000000000085e+01,3.362543416609852648e-02
2.600000000000000000e+01,3.435487131016645018e-02
2.603999999999999915e+01,2.261746472754576007e-02
2.607999999999999829e+01,3.672864348170477161e-02
2.612000000000000099e+01,8.490611680296642275e-03
2.616000000000000014e+01,3.268364053204087655e-02
2.619999999999999929e+01,2.131057391184053990e-02
2.623999999999999844e+01,4.620434862413519590e-03
2.628000000000000114e+01,3.412822593572824303e-02
2.632000000000000028e+01,1.963686209193789278e-02
2.635999999999999943e+01,2.861083051494858059e-02
2.639999999999999858e+01,1.283502295472678523e-02
2.644000000000000128e+01,2.180784045805319801e-02
2.648000000000000043e+01,2.546358832158228044e-02
2.651999999999999957e+01,2.288562996240629810e-02
2.655999999999999872e+01,2.140706222793009941e-02
2.660000000000000142e+01,4.027726358712174770e-02
2.664000000000000057e+01,1.918151675882216398e-02
2.667999999999999972e+01,2.118445109743754759e-02
2.671999999999999886e+01,1.182051407012201481e-02
2.676000000000000156e+01,2.793851546384383891e-02
2.680000000000000071e+01,1.417357805563165297e-02
2.683999999999999986e+01,1.140771464282853802e-02
2.687999999999999901e+01,2.990726062583988487e-02
2.692000000000000171e+01,2.860687672756943162e-02
2.696000000000000085e+01,2.858921551261015340e-02
2.700000000000000000e+01,3.040425967455427647e-02
2.703999999999999915e+01,1.425264944555639304e-02
2.707999999999999829e+01,3.696588225489735174e-02
2.712000000000000099e+01,3.327940076323079172e-02
2.716000000000000014e+01,1.272623073271191528e-02
2.719999999999999929e+01,2.663804730574650600e-02
2.723999999999999844e+01,2.313319404105071420e-02
2.728000000000000114e+01,2.256101386496766822e-02
2.732000000000000028e+01,1.978833977465177876e-02
2.735999999999999943e+01,1.004865958638304253e-02
2.739999999999999858e+01,2.799085417237948820e-02
2.744000000000000128e+01,1.055029510804462133e-02
2.748000000000000043e+01,2.830803553984735654e-02
2.751999999999999957e+01,3.139902053169136426e-02
2.755999999999999872e+01,2.825631138835691530e-02
2.760000000000000142e+01,3.281279170149899865e-02
2.764000000000000057e+01,2.838566766583466155e-02
2.767999999999999972e+01,2.395798281483151743e-02
2.771999999999999886e+01,2.557954212895701893e-02
2.776000000000000156e+01,3.270036384442848859e-02
2.780000000000000071e+01,2.148788518302530842e-02
2.783999999999999986e+01,3.832394122896579797e-02
2.787999999999999901e+01,1.482740868034099213e-02
2.792000000000000171e+01,1.387958948199452015e-02
2.796000000000000085e+01,3.218059072670612086e-02
2.800000000000000000e+01,2.408188789831719814e-02
2.803999999999999915e+01,2.899887451767108049e-02
2.807999999999999829e+01,3.703187093329728119e-02
2.812000000000000099e+01,1.389865202191257511e-02
2.816000000000000014e+01,1.142432458539007628e-02
2.819999999999999929e+01,1.757407235706028373e-02
2.823999999999999844e+01,2.178630239926219667e-02
2.828000000000000114e+01,2.127182744748056659e-02
2.832000000000000028e+01,1.693297110096486299e-02
2.835999999999999943e+01,1.931636677656633355e-02
2.839999999999999858e+01,2.258725868205525844e-02
2.844000000000000128e+01,1.638206866796930103e-02
2.848000000000000043e+01,1.764866505983159889e-02
2.851999999999999957e+01,1.267431559694003756e-02
2.855999999999999872e+01,1.972525378910879729e-02
2.860000000000000142e+01,2.264797981796771997e-02
2.864000000000000057e+01,1.786429084718497984e-02
2.867999999999999972e+01,1.304141164352164498e-02
2.871999999999999886e+01,1.629130593950616282e-02
2.876000000000000156e+01,1.281993047965742163e-02
2.880000000000000071e+01,1.942970324849154287e-02
2.883999999999999986e+01,1.917022583150178316e-02
2.887999999999999901e+01,1.652536581213108480e-02
2.892000000000000171e+01,2.308111248990363240e-02
2.896000000000000085e+01,2.003790441321404853e-02
2.900000000000000000e+01,1.265456697867837696e-02
2.903999999999999915e+01,1.139936256802608940e-02
2.907999999999999829e+01,2.008788333404487592e-02
2.912000000000000099e+01,2.033604164733665912e-02
2.916000000000000014e+01,1.335577077912364352e-02
2.919999999999999929e+01,1.523462637087641749e-02
2.923999999999999844e+01,1.084530315837420843e-02
2.928000000000000114e+01,2.451932567089872700e-02
2.932000000000000028e+01,1.324430546673835765e-02
2.935999999999999943e+01,1.777874462415737072e-02
2.939999999999999858e+01,1.539044847359343285e-02
2.944000000000000128e+01,1.727135342951200553e-02
2.948000000000000043e+01,1.890037726489169137e-02
2.951999999999999957e+01,1.215773929193316588e-02
2.955999999999999872e+01,6.902301509089520115e-03
2.960000000000000142e+01,1.978883677422896281e-02
2.964000000000000057e+01,1.305165710125255618e-02
2.967999999999999972e+01,1.627810604811819745e-02
2.971999999999999886e+01,2.023374571145747022e-02
2.976000000000000156e+01,1.221668036277474834e-02
2.980000000000000071e+01,3.544237642161339463e-02
2.983999999999999986e+01,3.410166388860041975e-02
2.987999999999999901e+01,2.139411671714103527e-02
2.992000000000000171e+01,2.518550162564048289e-02
2.996000000000000085e+01,2.475982179844093967e-02
3.000000000000000000e+01,1.516723764225958240e-02
3.003999999999999915e+01,2.024031286512669586e-02
3.007999999999999829e+01,1.522984764100919833e-02
3.012000000000000099e+01,2.470171531618746766e-02
3.016000000000000014e+01,3.288975913319098360e-02
3.019999999999999929e+01,1.962796450504931609e-02
3.023999999999999844e+01,2.488170718129301823e-02
3.028000000000000114e+01,1.436876203863888396e-02
3.032000000000000028e+01,1.100505573730461636e-02
3.035999999999999943e+01,1.350729687525763743e-02
3.039999999999999858e+01,1.344242507752765881e-02
3.044000000000000128e+01,2.364335947839472235e-02
3.048000000000000043e+01,1.239445868845060784e-02
3.051999999999999957e+01,1.819447918072598577e-02
3.055999999999999872e+01,2.417729974037530205e-02
3.060000000000000142e+01,2.117655035417830012e-02
3.064000000000000057e+01,1.689198268866495128e-02
3.067999999999999972e+01,1.114026979917766280e-02
3.071999999999999886e+01,2.573737388855926872e-02
3.076000000000000156e+01,2.456779573790129553e-02
3.080000000000000071e+01,1.478130478504634075e-02
3.083999999999999986e+01,1.966048250933723554e-02
3.087999999999999901e+01,2.068926100986599390e-02
3.092000000000000171e+01,2.795064827747508265e-02
3.096000000000000085e+01,5.145817683693701926e-03
3.100000000000000000e+01,1.772265490724057174e-02
3.103999999999999915e+01,2.681574958576972076e-02
3.107999999999999829e+01,2.124213020087331594e-02
3.112000000000000099e+01,2.611765232751918700e-02
3.116000000000000014e+01,2.732610589429944337e-02
3.119999999999999929e+01,1.295120974455624303e-02
3.123999999999999844e+01,2.222502998957015183e-02
3.128000000000000114e+01,2.049868668693300214e-02
3.132000000000000028e+01,8.505489939799501867e-03
3.135999999999999943e+01,1.209460496138761026e-02
3.139999999999999858e+01,2.228298914803951078e-02
3.144000000000000128e+01,3.485411254472252363e-02
3.148000000000000043e+01,2.597541237321594754e-02
3.151999999999999957e+01,1.526292192161261482e-02
3.155999999999999872e+01,2.783249676488031010e-02
3.160000000000000142e+01,2.060219612073565382e-02
3.164000000000000057e+01,2.162111411714648379e-02
3.167999999999999972e+01,1.750635032095497132e-02
3.171999999999999886e+01,1.999085940906613831e-02
3.176000000000000156e+01,2.082490841607217633e-02
3.180000000000000071e+01,2.715826677981569154e-02
3.183999999999999986e+01,1.314177021688846432e-02
3.187999999999999901e+01,6.091203217008406799e-03
3.192000000000000171e+01,8.573149978955503861e-03
3.196000000000000085e+01,7.475720386773701542e-03
3.200000000000000000e+01,2.092372882355096955e-02
3.203999999999999915e+01,1.862751732534609697e-02
3.207999999999999829e+01,2.376139411434199933e-02
3.211999999999999744e+01,1.856860931254312314e-02
3.215999999999999659e+01,1.820364206311914090e-02
3.220000000000000284e+01,1.998881041848932227e-02
3.224000000000000199e+01,2.499264739483679498e-02
3.228000000000000114e+01,2.095884367603421256e-02
3.232000000000000028e+01,1.736877158899088544e-02
3.235999999999999943e+01,1.940527329207612783e-02
3.239999999999999858e+01,2.163257151376896809e-02
3.243999999999999773e+01,1.543039910821599608e-02
3.247999999999999687e+01,2.084156534266088864e-02
3.252000000000000313e+01,2.263327083599364284e-02
3.256000000000000227e+01,1.322443997187699137e-02
3.260000000000000142e+01,2.335478633599369011e-02
3.264000000000000057e+01,2.010618075207967065e-02
3.267999999999999972e+01,1.585456309026834695e-02
3.271999999999999886e+01,2.102112632822848368e-02
3.275999999999999801e+01,2.032671973765475329e-02
3.279999999999999716e+01,1.748923107881953168e-02
3.284000000000000341e+01,2.209404735110064369e-02
3.288000000000000256e+01,1.735098077653960541e-02
3.292000000000000171e+01,2.224506010398423494e-02
3.296000000000000085e+01,2.316721264902084701e-02
3.300000000000000000e+01,2.192222228974244347e-02
3.303999999999999915e+01,1.924951440724721394e-02
3.307999999999999829e+01,1.991165249967916454e-02
3.311999999999999744e+01,1.807162660950560606e-02
3.315999999999999659e+01,2.076812725849815425e-02
3.320000000000000284e+01,1.878222507986944054e-02
3.324000000000000199e+01,1.921132740916780060e-02
3.328000000000000114e+01,2.025073797062267034e-02
3.332000000000000028e+01,2.027693182752677778e-02
3.335999999999999943e+01,2.285775850975840101e-02
3.339999999999999858e+01,1.704633070339115278e-02
3.343999999999999773e+01,1.002701208106136430e-02
3.347999999999999687e+01,2.106956715024915425e-02
3.352000000000000313e+01,1.749381069847736475e-02
3.356000000000000227e+01,1.746725230985787108e-02
3.360000000000000142e+01,1.923140664997740820e-02
3.364000000000000057e+01,1.874125401729099041e-02
3.367999999999999972e+01,2.355270011256305890e-02
3.371999999999999886e+01,2.084139251951732871e-02
3.375999999999999801e+01,1.824555965188495721e-02
3.379999999999999716e+01,1.745370407197075271e-02
3.384000000000000341e+01,1.709297086769198323e-02
3.388000000000000256e+01,2.098780272033877806e-02
3.392000000000000171e+01,2.001550756670928202e-02
3.396000000000000085e+01,2.503856621980563371e-02
3.400000000000000000e+01,3.592761461853199306e-02
3.403999999999999915e+01,3.269996558548039084e-02
3.407999999999999829e+01,2.708857379755591835e-02
3.411999999999999744e+01,1.762682044316336155e-02
3.415999999999999659e+01,2.338075658170801416e-02
3.420000000000000284e+01,2.785091581746937731e-02
3.424000000000000199e+01,1.655443325991455897e-02
3.428000000000000114e+01,2.395686237169909402e-02
3.432000000000000028e+01,8.626209056601998396e-03
3.435999999999999943e+01,2.574402405784177381e-02
3.439999999999999858e+01,1.866213828550966972e-02
3.443999999999999773e+01,1.359637177194852886e-02
3.447999999999999687e+01,2.044640509843841797e-02
3.452000000000000313e+01,1.629631253457130072e-02
3.456000000000000227e+01,2.131210959712737454e-02
3.460000000000000142e+01,1.587776392782367166e-02
3.464000000000000057e+01,3.079228079806570553e-02
3.467999999999999972e+01,2.462366611163239669e-02
3.471999999999999886e+01,2.413772212955416982e-02
3.475999999999999801e+01,2.970110413586100548e-02
3.479999999999999716e+01,3.398071621295751382e-02
3.484000000000000341e+01,1.736052600256069584e-02
3.488000000000000256e+01,2.365578485501380543e-02
3.492000000000000171e+01,2.390076252434616619e-02
3.496000000000000085e+01,1.479556610333751174e-02
3.500000000000000000e+01,2.787251050164336538e-02
3.503999999999999915e+01,3.636579438804309755e-02
3.507999999999999829e+01,2.982575588237876274e-02
3.511999999999999744e+01,1.998534966155554940e-02
3.515999999999999659e+01,2.187742377460358961e-02
3.520000000000000284e+01,3.311872236211527848e-02
3.524000000000000199e+01,3.115997451280735214e-02
3.528000000000000114e+01,2.828411713227260010e-02
3.532000000000000028e+01,3.347419375397846925e-02
3.535999999999999943e+01,2.491424310489193800e-02
3.539999999999999858e+01,2.497020961654329921e-02
3.543999999999999773e+01,3.547536784946243860e-02
3.547999999999999687e+01,3.168051797761628485e-02
3.552000000000000313e+01,3.485163997516006057e-02
3.556000000000000227e+01,3.802229274362355083e-02
3.560000000000000142e+01,3.935920265228647769e-02
3.564000000000000057e+01,3.061263673574116800e-02
3.567999999999999972e+01,3.598181352114294268e-02
3.571999999999999886e+01,3.750064733627127278e-02
3.575999999999999801e+01,2.746938744440583988e-02
3.579999999999999716e+01,4.750335628113990655e-02
3.584000000000000341e+01,4.498758776693984052e-02
3.588000000000000256e+01,4.833783084889837350e-02
3.592000000000000171e+01,3.683808871135765134e-02
3.596000000000000085e+01,3.872078289184806982e-02
3.600000000000000000e+01,5.068602048314933134e-02
3.603999999999999915e+01,3.680162967591569384e-02
3.607999999999999829e+01,3.868293290574027765e-02
3.611999999999999744e+01,4.973014389327784501e-02
3.615999999999999659e+01,6.737667936955826775e-02
3.620000000000000284e+01,5.422374824873556903e-02
3.624000000000000199e+01,5.298663742377801578e-02
3.628000000000000114e+01,5.156573832846521321e-02
3.632000000000000028e+01,5.179432552332707829e-02
3.635999999999999943e+01,5.880556694101858606e-02
3.639999999999999858e+01,5.866657991969432412e-02
3.643999999999999773e+01,5.357729383900914494e-02
3.647999999999999687e+01,6.040383084361834048e-02
3.652000000000000313e+01,6.576329050036396062e-02
3.656000000000000227e+01,7.130561996021338167e-02
3.660000000000000142e+01,8.583053534707170418e-02
3.664000000000000057e+01,7.615577599503059458e-02
3.667999999999999972e+01,7.803018723368307374e-02
3.671999999999999886e+01,6.908782556130871333e-02
3.675999999999999801e+01,8.067767847800039194e-02
3.679999999999999716e+01,9.501698772110013513e-02
3.684000000000000341e+01,8.570660677851228704e-02
3.688000000000000256e+01,9.069530989457998127e-02
3.692000000000000171e+01,1.152995924115207266e-01
3.696000000000000085e+01,1.177208054139884108e-01
3.700000000000000000e+01,1.106085406267008492e-01
3.703999999999999915e+01,1.053290979074379685e-01
3.707999999999999829e+01,1.185652719912925618e-01
3.711999999999999744e+01,1.270344823287315184e-01
3.715999999999999659e+01,1.294534375177221752e-01
3.720000000000000284e+01,1.351718359108570466e-01
3.724000000000000199e+01,1.553726499563537755e-01
3.728000000000000114e+01,1.651233524186166424e-01
3.732000000000000028e+01,1.701070934589882511e-01
3.735999999999999943e+01,1.976396575671863498e-01
3.739999999999999858e+01,2.128888373912403154e-01
3.743999999999999773e+01,2.294208617036801456e-01
3.747999999999999687e+01,2.358694315765354765e-01
3.752000000000000313e+01,2.452507935536490657e-01
3.756000000000000227e+01,2.680146104449883104e-01
3.760000000000000142e+01,2.993943700668330599e-01
3.764000000000000057e+01,3.179407659652752072e-01
3.767999999999999972e+01,3.496862907630953199e-01
3.771999999999999886e+01,3.784981328836976022e-01
3.775999999999999801e+01,4.239923256151752473e-01
3.779999999999999716e+01,4.471201311856194405e-01
3.784000000000000341e+01,4.852803416106860057e-01
3.788000000000000256e+01,5.344397543449046495e-01
3.792000000000000171e+01,5.876319282898051499e-01
3.796000000000000085e+01,6.382570771660422970e-01
3.800000000000000000e+01,6.795320872847081528e-01
3.803999999999999915e+01,7.352895223538332692e-01
3.807999999999999829e+01,7.915964997115721991e-01
3.811999999999999744e+01,8.757688038476425518e-01
3.815999999999999659e+01,9.355581235016359187e-01
3.820000000000000284e+01,9.698644946810819345e-01
3.824000000000000199e+01,9.849210497760111371e-01
3.828000000000000114e+01,9.752279669644523530e-01
3.832000000000000028e+01,1.000000000000000000e+00
3.835999999999999943e+01,9.741732313105568863e-01
3.839999999999999858e+01,9.292799758057788129e-01
3.843999999999999773e+01,8.996024595387582812e-01
3.847999999999999687e+01,8.367422468498990629e-01
3.852000000000000313e+01,7.966141981206708023e-01
3.856000000000000227e+01,7.458527252756012027e-01
3.860000000000000142e+01,6.932575444385965513e-01
3.864000000000000057e+01,6.395619657128110980e-01
3.867999999999999972e+01,5.979655630516499398e-01
3.871999999999999886e+01,5.446357736768927538e-01
3.875999999999999801e+01,5.039551435252571654e-01
3.879999999999999716e+01,4.704238507747731668e-01
3.884000000000000341e+01,4.361588172791577289e-01
3.888000000000000256e+01,3.923603278443157372e-01
3.892000000000000171e+01,3.700107151512149750e-01
3.896000000000000085e+01,3.493106194320099722e-01
3.900000000000000000e+01,3.269601477794806810e-01
3.903999999999999915e+01,3.069925036689068465e-01
3.907999999999999829e+01,2.947241824425060330e-01
3.911999999999999744e+01,2.694391872846201852e-01
3.915999999999999659e+01,2.679863279822174982e-01
3.920000000000000284e+01,2.159346767178261794e-01
3.924000000000000199e+01,2.148476188539782117e-01
3.928000000000000114e+01,2.034938000617022014e-01
3.932000000000000028e+01,2.020392358577784153e-01
3.935999999999999943e+01,1.780349752145486963e-01
3.939999999999999858e+01,1.785961628544812663e-01
3.943999999999999773e+01,1.710905203403552122e-01
3.947999999999999687e+01,1.694509312638258491e-01
3.952000000000000313e+01,1.601111677821727419e-01
3.956000000000000227e+01,1.546208571627384620e-01
3.960000000000000142e+01,1.568298754712404708e-01
3.964000000000000057e+01,1.456555710728955899e-01
3.967999999999999972e+01,1.405306498462342291e-01
3.971999999999999886e+01,1.343053432832235494e-01
3.975999999999999801e+01,1.262463422105184752e-01
3.979999999999999716e+01,1.145203729973987006e-01
3.984000000000000341e+01,1.143436111024569712e-01
3.988000000000000256e+01,1.143497575977229508e-01
3.992000000000000171e+01,1.092223180707888042e-01
3.996000000000000085e+01,1.123441938846223287e-01
4.000000000000000000e+01,1.103324846060654563e-01
4.003999999999999915e+01,9.622074913664799278e-02
4.007999999999999829e+01,9.402487859396274628e-02
4.011999999999999744e+01,9.604512224128949893e-02
4.015999999999999659e+01,8.981521669328276780e-02
4.020000000000000284e+01,9.018468258941034210e-02
4.024000000000000199e+01,9.330364479376435094e-02
4.028000000000000114e+01,9.073904293137462218e-02
4.032000000000000028e+01,7.387448921770831123e-02
4.035999999999999943e+01,8.120874012579604173e-02
4.039999999999999858e+01,7.130980155941683829e-02
4.043999999999999773e+01,7.461002397085120252e-02
4.047999999999999687e+01,7.809316174606618921e-02
4.052000000000000313e+01,7.735935752046664560e-02
4.056000000000000227e+01,7.717512440758252101e-02
4.060000000000000142e+01,8.084035624444373125e-02
4.064000000000000057e+01,5.920599537551703151e-02
4.067999999999999972e+01,7.845323711777116293e-02
4.071999999999999886e+01,8.028396569523475745e-02
4.075999999999999801e+01,6.836472976406285373e-02
4.079999999999999716e+01,7.422784423391086406e-02
4.084000000000000341e+01,7.569069301262071336e-02
4.088000000000000256e+01,7.568651511809737498e-02
4.092000000000000171e+01,5.441595078249525375e-02
4.096000000000000085e+01,6.302734773865784068e-02
4.100000000000000000e+01,6.797179050155170710e-02
4.103999999999999915e+01,4.853328225551888087e-02
4.107999999999999829e+01,5.732679000990276164e-02
4.111999999999999744e+01,5.970343382229505863e-02
4.115999999999999659e+01,6.299631054010071396e-02
4.120000000000000284e+01,6.335554502741207183e-02
4.124000000000000199e+01,6.719759708382154473e-02
4.128000000000000114e+01,5.875630995185879279e-02
4.132000000000000028e+01,5.288120427099147342e-02
4.135999999999999943e+01,6.680505700499968225e-02
4.139999999999999858e+01,6.221244002022512098e-02
4.143999999999999773e+01,5.706943991869795757e-02
4.147999999999999687e+01,4.862614602188554402e-02
4.152000000000000313e+01,6.254839613344327642e-02
4.156000000000000227e+01,6.272069103446270555e-02
4.160000000000000142e+01,6.032600317316153676e-02
4.164000000000000057e+01,6.068082789175716779e-02
4.167999999999999972e+01,5.920198041609187056e-02
4.171999999999999886e+01,5.588946121107053050e-02
4.175999999999999801e+01,5.642642043803565433e-02
4.179999999999999716e+01,5.916291187582952554e-02
4.184000000000000341e+01,5.749914924510689945e-02
4.188000000000000256e+01,6.151814053671032095e-02
4.192000000000000171e+01,6.627004615735714033e-02
4.196000000000000085e+01,5.635536416870182835e-02
4.200000000000000000e+01,4.185710256158694381e-02
4.203999999999999915e+01,5.449090365523056451e-02
4.207999999999999829e+01,5.740795859247427996e-02
4.211999999999999744e+01,5.262486934341046446e-02
4.215999999999999659e+01,4.967466167019421452e-02
4.220000000000000284e+01,6.230689175491810339e-02
4.224000000000000199e+01,6.045586489423651622e-02
4.228000000000000114e+01,6.722083515792970365e-02
4.232000000000000028e+01,6.701897319808972076e-02
4.235999999999999943e+01,5.710036833618389873e-02
4.239999999999999858e+01,5.946431018461752899e-02
4.243999999999999773e+01,7.704403776129552239e-02
4.247999999999999687e+01,5.484132866237168696e-02
4.252000000000000313e+01,6.563716494906476906e-02
4.256000000000000227e+01,7.111611848771645650e-02
4.260000000000000142e+01,6.156183703641890381e-02
4.264000000000000057e+01,5.640702647370230555e-02
4.267999999999999972e+01,6.756796888603432139e-02
4.271999999999999886e+01,7.084544667606931800e-02
4.275999999999999801e+01,7.888905156852490941e-02
4.279999999999999716e+01,7.098278674774302632e-02
4.284000000000000341e+01,6.729266773050393557e-02
4.288000000000000256e+01,8.358485220408794214e-02
4.292000000000000171e+01,7.604408974796135479e-02
4.296000000000000085e+01,8.243582719690491223e-02
4.300000000000000000e+01,7.691090026751042086e-02
4.303999999999999915e+01,7.358551996099549353e-02
4.307999999999999829e+01,8.969246324114042712e-02
4.311999999999999744e+01,9.278277908028684240e-02
4.315999999999999659e+01,8.340645017202723277e-02
4.320000000000000284e+01,9.327911883557943318e-02
4.324000000000000199e+01,9.691827560666048391e-02
4.328000000000000114e+01,9.799046914142520159e-02
4.332000000000000028e+01,9.777899177171603395e-02
4.335999999999999943e+01,1.030669581162504539e-01
4.339999999999999858e+01,1.138543686399333676e-01
4.343999999999999773e+01,1.119918102609816918e-01
4.347999999999999687e+01,1.229617933734883650e-01
4.352000000000000313e+01,1.223817729705452551e-01
4.356000000000000227e+01,1.166682088517449062e-01
4.360000000000000142e+01,1.215872587043674152e-01
4.364000000000000057e+01,1.199061464944422839e-01
4.367999999999999972e+01,1.332575070152499375e-01
4.371999999999999886e+01,1.282757521913194532e-01
4.375999999999999801e+01,1.236602782629311476e-01
4.379999999999999716e+01,1.271108368966149815e-01
4.384000000000000341e+01,1.443105782537135173e-01
4.388000000000000256e+01,1.351108001049432239e-01
4.392000000000000171e+01,1.385602411520223121e-01
4.396000000000000085e+01,1.352261964462302402e-01
4.400000000000000000e+01,1.527911052964098793e-01
4.403999999999999915e+01,1.787887043172159129e-01
4.407999999999999829e+01,1.646372304394897179e-01
4.411999999999999744e+01,1.624016684438872038e-01
4.415999999999999659e+01,1.830816633690634243e-01
4.420000000000000284e+01,1.901950611769850086e-01
4.424000000000000199e+01,1.932748876298071294e-01
4.428000000000000114e+01,2.002042218036221288e-01
4.432000000000000028e+01,1.988834551322097299e-01
4.435999999999999943e+01,2.133284787331629073e-01
4.439999999999999858e+01,2.206233668760732847e-01
4.443999999999999773e+01,2.158182799676583441e-01
4.447999999999999687e+01,2.003798377493228866e-01
4.452000000000000313e+01,2.062070099498474196e-01
4.456000000000000227e+01,2.158836931256990777e-01
4.460000000000000142e+01,2.085105630516571051e-01
4.464000000000000057e+01,1.945372825376892323e-01
4.467999999999999972e+01,1.822135854790129794e-01
4.471999999999999886e+01,1.840057361907834199e-01
4.475999999999999801e+01,1.903807098406551934e-01
4.479999999999999716e+01,1.868556415380954183e-01
4.484000000000000341e+01,1.792970088540090934e-01
4.488000000000000256e+01,1.675214848437386050e-01
4.492000000000000171e+01,1.665619175563139986e-01
4.496000000000000085e+01,1.562522924047648476e-01
4.500000000000000000e+01,1.648250309266215963e-01
4.503999999999999915e+01,1.429650604144755699e-01
4.507999999999999829e+01,1.442039849254826700e-01
4.511999999999999744e+01,1.205100236191718327e-01
4.515999999999999659e+01,1.243148160953240489e-01
4.520000000000000284e+01,1.233527387358434313e-01
4.524000000000000199e+01,1.148738808621973528e-01
4.528000000000000114e+01,1.109778519704159028e-01
4.532000000000000028e+01,1.032315916855287563e-01
4.535999999999999943e+01,9.786823239756595183e-02
4.539999999999999858e+01,9.250451824711976301e-02
4.543999999999999773e+01,9.264027198597019064e-02
4.547999999999999687e+01,9.992544076508465267e-02
4.552000000000000313e+01,8.466098470024238654e-02
4.556000000000000227e+01,8.131245725409892711e-02
4.560000000000000142e+01,8.016350618474649137e-02
4.564000000000000057e+01,6.306471841040203752e-02
4.567999999999999972e+01,7.053145190928379604e-02
4.571999999999999886e+01,6.681486228160837815e-02
4.575999999999999801e+01,6.438121384253089885e-02
4.579999999999999716e+01,6.396381669520626034e-02
4.584000000000000341e+01,6.336274238978928386e-02
4.588000000000000256e+01,5.964475283818477386e-02
4.592000000000000171e+01,5.464312260092264034e-02
4.596000000000000085e+01,5.605760334453280258e-02
4.600000000000000000e+01,4.940533017848249692e-02
4.603999999999999915e+01,3.908616139717654286e-02
4.607999999999999829e+01,4.306618360264533041e-02
4.611999999999999744e+01,6.006210539285600225e-02
4.615999999999999659e+01,4.424207484208764196e-02
4.620000000000000284e+01,3.978799811980848061e-02
4.624000000000000199e+01,3.991676153711064962e-02
4.628000000000000114e+01,3.362872098514890079e-02
4.632000000000000028e+01,3.357346818864083426e-02
4.635999999999999943e+01,4.085096806986631551e-02
4.639999999999999858e+01,3.107867562191720182e-02
4.643999999999999773e+01,3.817216207876159006e-02
4.647999999999999687e+01,2.968247641274119122e-02
4.652000000000000313e+01,4.062515431519903020e-02
4.656000000000000227e+01,3.378473210985175751e-02
4.660000000000000142e+01,2.291076597879202620e-02
4.664000000000000057e+01,2.926923589617507274e-02
4.667999999999999972e+01,2.994421613159286080e-02
4.671999999999999886e+01,3.281878576113789192e-02
4.675999999999999801e+01,2.780993772377730530e-02
4.679999999999999716e+01,3.050050229722885836e-02
4.684000000000000341e+01,3.887387844120977765e-02
4.688000000000000256e+01,1.864784103243681199e-02
4.692000000000000171e+01,1.510426069775318812e-02
4.696000000000000085e+01,2.494324452993873162e-02
4.700000000000000000e+01,2.488221197946033705e-02
4.703999999999999915e+01,2.683744513278562768e-02
4.707999999999999829e+01,1.522611464200662561e-02
4.711999999999999744e+01,2.176386282634133404e-02
4.715999999999999659e+01,3.141784256656932062e-02
4.720000000000000284e+01,2.273874740878252879e-02
4.724000000000000199e+01,2.065910551838635867e-02
4.728000000000000114e+01,2.114571434991052712e-02
4.732000000000000028e+01,2.236530027263491233e-02
4.735999999999999943e+01,2.120129778890179895e-02
4.739999999999999858e+01,1.948698145924107616e-02
4.743999999999999773e+01,3.170521710399542420e-02
4.747999999999999687e+01,2.009055881819392375e-02
4.752000000000000313e+01,3.249146096255493138e-02
4.756000000000000227e+01,2.252608938266987063e-02
4.760000000000000142e+01,2.044346712125673718e-02
4.764000000000000057e+01,1.872717085115769425e-02
4.767999999999999972e+01,9.494122426089953923e-03
4.771999999999999886e+01,2.757653012783414445e-02
4.775999999999999801e+01,2.695921462110663705e-02
4.779999999999999716e+01,3.074142997568781246e-02
4.784000000000000341e+01,1.875716160460711920e-02
4.788000000000000256e+01,2.180541477927001870e-02
4.792000000000000171e+01,1.642028154058090481e-02
4.796000000000000085e+01,9.751531326382276155e-03
4.800000000000000000e+01,1.829863146220441980e-02
4.803999999999999915e+01,2.409549627582676518e-02
4.807999999999999829e+01,2.035901207834151308e-02
4.811999999999999744e+01,1.863880613709130440e-02
4.815999999999999659e+01,1.820156927873099392e-02
4.820000000000000284e+01,4.747764022290148697e-03
4.824000000000000199e+01,2.245929653723705705e-02
4.828000000000000114e+01,2.312105857353802946e-02
4.832000000000000028e+01,1.406614697859816937e-02
4.835999999999999943e+01,2.279367365169785234e-02
4.839999999999999858e+01,2.547107581461646036e-02
4.843999999999999773e+01,2.411495543744643366e-02
4.847999999999999687e+01,2.972495755884279472e-02
4.852000000000000313e+01,1.773520976233498858e-02
4.856000000000000227e+01,2.169462846276602394e-02
4.860000000000000142e+01,1.942059756797779799e-02
4.864000000000000057e+01,2.447934585050050987e-02
4.867999999999999972e+01,1.487158462773848118e-02
4.871999999999999886e+01,2.469621254322237197e-02
4.875999999999999801e+01,1.398785477723118315e-02
4.879999999999999716e+01,1.556211810635796042e-02
4.884000000000000341e+01,8.703005714944657065e-03
4.888000000000000256e+01,1.632644426320906811e-02
4.892000000000000171e+01,1.991636585024323530e-02
4.896000000000000085e+01,1.470625829232690383e-02
4.900000000000000000e+01,1.004581994205260530e-02
4.903999999999999915e+01,1.693469583807544546e-02
4.907999999999999829e+01,2.620651596717509663e-02
4.911999999999999744e+01,2.429505248663118774e-02
4.915999999999999659e+01,1.468352664303611971e-02
4.920000000000000284e+01,1.808793618185768406e-02
4.924000000000000199e+01,1.635886802131288759e-02
4.928000000000000114e+01,1.261288858886916615e-02
4.932000000000000028e+01,1.601636882755650554e-02
4.935999999999999943e+01,1.520300980940463530e-02
4.939999999999999858e+01,1.072279422800587884e-02
4.943999999999999773e+01,1.870853458976542982e-02
4.947999999999999687e+01,2.156080004158780414e-02
4.952000000000000313e+01,2.147951996312794098e-02
4.956000000000000227e+01,1.901467704797820193e-02
4.960000000000000142e+01,2.003274886704351984e-02
4.964000000000000057e+01,5.101030471603440648e-03
4.967999999999999972e+01,1.308493315381355389e-02
4.971999999999999886e+01,2.051854895457829592e-02
4.975999999999999801e+01,9.619119611239656739e-03
4.979999999999999716e+01,1.448554376732819407e-02
4.984000000000000341e+01,1.256855051156081926e-02
4.988000000000000256e+01,2.000095235034266700e-02
4.992000000000000171e+01,1.460013319151577497e-02
4.996000000000000085e+01,1.634878114229783991e-02
5.000000000000000000e+01,9.664066854780880428e-03
5.003999999999999915e+01,1.287873175012018041e-02
5.007999999999999829e+01,2.635943111234559377e-02
5.011999999999999744e+01,2.462365547717399600e-02
5.015999999999999659e+01,1.830439506413547926e-02
5.020000000000000284e+01,9.601579252884880414e-03
5.024000000000000199e+01,2.619764735226520411e-02
5.028000000000000114e+01,1.291104954886764314e-02
5.032000000000000028e+01,1.649027574603554452e-02
5.035999999999999943e+01,1.438605503248580227e-02
5.039999999999999858e+01,1.539810353212344926e-02
5.043999999999999773e+01,1.787647502379084707e-02
5.047999999999999687e+01,1.980456846720531766e-02
5.052000000000000313e+01,1.898245541252165103e-02
5.056000000000000227e+01,3.447618691914512007e-02
5.060000000000000142e+01,1.733734509879207228e-02
5.064000000000000057e+01,1.358111021655586566e-02
5.067999999999999972e+01,1.440776707834111672e-02
5.071999999999999886e+01,2.641710289330288092e-02
5.075999999999999801e+01,2.302664373978300164e-02
5.079999999999999716e+01,2.165249399112407699e-02
5.084000000000000341e+01,2.229465411223114507e-02
5.088000000000000256e+01,1.450346222294621179e-02
5.092000000000000171e+01,2.064486275479964286e-02
5.096000000000000085e+01,1.358639955744581247e-02
5.100000000000000000e+01,1.661065411022748586e-02
5.103999999999999915e+01,2.476778681986194913e-02
5.107999999999999829e+01,1.862509273762870399e-02
5.111999999999999744e+01,1.669864069424542921e-02
5.115999999999999659e+01,1.935508597374206718e-02
5.120000000000000284e+01,2.842770313664844811e-02
5.124000000000000199e+01,2.393380500555661664e-02
5.128000000000000114e+01,1.503976252349657761e-02
5.132000000000000028e+01,1.989498970206105000e-02
5.135999999999999943e+01,2.145003791684210043e-02
5.139999999999999858e+01,2.465474769093210783e-02
5.143999999999999773e+01,1.465959931467320301e-02
5.147999999999999687e+01,2.208027064990841434e-02
5.152000000000000313e+01,1.428448325941687226e-02
5.156000000000000227e+01,1.675474753729145477e-02
5.160000000000000142e+01,1.739145491731185211e-02
5.164000000000000057e+01,2.957750676244564128e-02
5.167999999999999972e+01,2.398051800759708890e-02
5.171999999999999886e+01,1.911655748348400213e-02
5.175999999999999801e+01,2.213539462794879981e-02
5.179999999999999716e+01,2.845384466683386140e-02
5.184000000000000341e+01,1.992249451835608615e-02
5.188000000000000256e+01,2.165719975748338008e-02
5.192000000000000171e+01,2.009173254149532531e-02
5.196000000000000085e+01,2.420913640385950749e-02
5.200000000000000000e+01,1.952654645404301031e-02
5.203999999999999915e+01,1.631029809245083603e-02
5.207999999999999829e+01,2.409341708123808462e-02
5.211999999999999744e+01,2.325987106212174665e-02
5.215999999999999659e+01,2.810919844588194091e-02
5.220000000000000284e+01,2.269191506548569326e-02
5.224000000000000199e+01,2.057424969346320978e-02
5.228000000000000114e+01,1.607305309828169562e-02
5.232000000000000028e+01,2.678775706284637972e-02
5.235999999999999943e+01,2.081939278818644920e-02
5.239999999999999858e+01,2.035057729626981587e-02
5.243999999999999773e+01,2.519798364243873781e-02
5.247999999999999687e+01,1.867881802141027267e-02
5.252000000000000313e+01,1.069276101446454789e-02
5.256000000000000227e+01,1.755595253756913471e-02
5.260000000000000142e+01,1.506917499337851601e-02
5.264000000000000057e+01,1.368209119186027979e-02
5.267999999999999972e+01,1.706124978916925480e-02
5.271999999999999886e+01,1.842353709639775114e-02
5.275999999999999801e+01,1.703564394020062184e-02
5.279999999999999716e+01,2.298057831142047425e-02
5.284000000000000341e+01,1.645898044221163689e-02
5.288000000000000256e+01,1.910348512585450034e-02
5.292000000000000171e+01,2.963080096031647098e-02
5.296000000000000085e+01,1.907519769962667811e-02
5.300000000000000000e+01,2.061893693950324347e-02
5.303999999999999915e+01,3.096212577272600824e-02
5.307999999999999829e+01,2.333896286807421103e-02
5.311999999999999744e+01,1.186565922676554620e-02
5.315999999999999659e+01,2.019145114726788454e-02
5.320000000000000284e+01,2.870030627129812120e-02
5.324000000000000199e+01,2.529261603263590827e-02
5.328000000000000114e+01,2.225131733687389993e-02
5.332000000000000028e+01,1.664317209591690758e-02
5.335999999999999943e+01,1.543462233804484413e-02
5.339999999999999858e+01,1.514244774647507084e-02
5.343999999999999773e+01,2.181645330167506641e-02
5.347999999999999687e+01,2.134042893223691770e-02
5.352000000000000313e+01,1.903086998037809702e-02
5.356000000000000227e+01,2.515411184650368642e-02
5.360000000000000142e+01,2.852718301220578262e-02
5.364000000000000057e+01,2.328360683638916809e-02
5.367999999999999972e+01,2.482288618720900758e-02
5.371999999999999886e+01,2.012877545063247037e-02
5.375999999999999801e+01,2.240084858006456681e-02
5.379999999999999716e+01,2.192275333359752776e-02
5.384000000000000341e+01,2.291102059607384722e-02
5.388000000000000256e+01,1.454933366821059212e-02
5.392000000000000171e+01,2.378682222060070003e-02
5.396000000000000085e+01,2.734090570371113318e-02
5.400000000000000000e+01,2.117838157207157027e-02
5.403999999999999915e+01,2.528193793289981381e-02
5.407999999999999829e+01,1.710230387491281159e-02
5.411999999999999744e+01,2.450524611651600654e-02
5.415999999999999659e+01,1.852503441173859733e-02
5.420000000000000284e+01,2.409419692598599796e-02
5.424000000000000199e+01,1.793015310972517415e-02
5.428000000000000114e+01,2.606539558573634299e-02
5.432000000000000028e+01,2.103678968320962100e-02
5.435999999999999943e+01,2.912589198490623740e-02
5.439999999999999858e+01,2.670882817486287808e-02
5.443999999999999773e+01,2.579877978492930643e-02
5.447999999999999687e+01,2.977967335157018225e-02
5.452000000000000313e+01,2.786871120184166925e-02
5.456000000000000227e+01,2.903639420723650930e-02
5.460000000000000142e+01,2.598596073785474150e-02
5.464000000000000057e+01,3.006295635628083301e-02
5.467999999999999972e+01,2.678221579565453689e-02
5.471999999999999886e+01,2.705831726318625244e-02
5.475999999999999801e+01,2.905604205222481543e-02
5.479999999999999716e+01,2.671206265199587912e-02
5.484000000000000341e+01,2.360102668061747275e-02
5.488000000000000256e+01,2.791229076884257573e-02
5.492000000000000171e+01,2.578615757285647805e-02
5.496000000000000085e+01,2.719100511059686226e-02
5.500000000000000000e+01,3.238811906582523409e-02
5.503999999999999915e+01,2.493444386947906918e-02
5.507999999999999829e+01,2.712256268545913673e-02
5.511999999999999744e+01,2.462543553797829493e-02
5.515999999999999659e+01,2.538975794530735908e-02
5.520000000000000284e+01,2.201134863018466489e-02
5.524000000000000199e+01,2.968146474999675682e-02
5.528000000000000114e+01,2.843151428978387199e-02
5.532000000000000028e+01,2.918053256177787977e-02
5.535999999999999943e+01,3.290187637779418833e-02
5.539999999999999858e+01,2.708339714537191453e-02
5.543999999999999773e+01,2.436598301493006838e-02
5.547999999999999687e+01,2.623619947598659213e-02
5.552000000000000313e+01,2.793044065003777443e-02
5.556000000000000227e+01,2.766719127066192066e-02
5.560000000000000142e+01,2.897443014602519087e-02
5.564000000000000057e+01,2.431701044283516092e-02
5.567999999999999972e+01,2.954508820706166702e-02
5.571999999999999886e+01,2.928624113129294285e-02
5.575999999999999801e+01,2.620239161518340965e-02
5.579999999999999716e+01,2.667154699669531046e-02
5.584000000000000341e+01,2.632616849841465032e-02
5.588000000000000256e+01,3.111318716017116501e-02
5.592000000000000171e+01,3.106001021435076531e-02
5.596000000000000085e+01,2.415225546399631107e-02
5.600000000000000000e+01,3.492732242362544398e-02
5.603999999999999915e+01,3.594265170270790483e-02
5.607999999999999829e+01,3.327144718137326623e-02
5.611999999999999744e+01,3.737629468467576488e-02
5.615999999999999659e+01,3.651188582776902780e-02
5.620000000000000284e+01,3.554498203711017879e-02
5.624000000000000199e+01,3.530277904961114793e-02
5.628000000000000114e+01,3.422047015212147797e-02
5.632000000000000028e+01,3.482673723607336569e-02
5.635999999999999943e+01,3.522458032662922900e-02
5.639999999999999858e+01,3.659286060943615915e-02
5.643999999999999773e+01,3.882821352952535443e-02
5.647999999999999687e+01,3.551194011295251418e-02
5.652000000000000313e+01,3.389090805015676500e-02
5.656000000000000227e+01,3.406758759969340938e-02
5.660000000000000142e+01,3.684275094445053217e-02
5.664000000000000057e+01,3.812999775004512204e-02
5.667999999999999972e+01,3.889554849786582003e-02
5.671999999999999886e+01,3.898632742641375271e-02
5.675999999999999801e+01,3.499976235180474876e-02
5.679999999999999716e+01,3.596107597280411711e-02
5.684000000000000341e+01,3.480255143075388496e-02
5.688000000000000256e+01,3.509015951349447882e-02
5.692000000000000171e+01,3.517263403497544044e-02
5.696000000000000085e+01,3.622038714507223173e-02
5.700000000000000000e+01,3.684928480149467223e-02
5.703999999999999915e+01,3.460941724190453456e-02
5.707999999999999829e+01,3.596463635498215600e-02
5.711999999999999744e+01,3.531476501020436309e-02
5.715999999999999659e+01,3.403082170891193886e-02
5.720000000000000284e+01,3.306774688741832835e-02
5.724000000000000199e+01,3.534229351792343016e-02
5.728000000000000114e+01,3.605022955274089086e-02
5.732000000000000028e+01,3.726624888079765885e-02
5.735999999999999943e+01,3.743145294624993652e-02
5.739999999999999858e+01,3.673454449073683403e-02
5.743999999999999773e+01,3.768949146421866209e-02
5.747999999999999687e+01,3.616261159320699470e-02
5.752000000000000313e+01,3.327413578327888255e-02
5.756000000000000227e+01,3.543035208893878518e-02
5.760000000000000142e+01,3.754726230950691107e-02
5.764000000000000057e+01,2.989686837084504917e-02
5.767999999999999972e+01,2.756275717280622442e-02
5.771999999999999886e+01,3.146156622810772352e-02
5.775999999999999801e+01,2.527715655059163680e-02
5.779999999999999716e+01,3.155879998135085324e-02
5.784000000000000341e+01,3.197375602903973490e-02
5.788000000000000256e+01,2.853862666375074977e-02
5.792000000000000171e+01,3.995280812576423174e-02
5.796000000000000085e+01,3.175074788223416350e-02
5.800000000000000000e+01,3.418146897587864830e-02
5.803999999999999915e+01,2.836224868666463797e-02
5.807999999999999829e+01,3.445910253137247914e-02
5.811999999999999744e+01,3.120605146565652924e-02
5.815999999999999659e+01,3.565254504373445432e-02
5.820000000000000284e+01,3.386570060376095648e-02
5.824000000000000199e+01,3.336194240270344558e-02
5.828000000000000114e+01,3.597454500109188713e-02
5.832000000000000028e+01,3.987023476820611423e-02
5.835999999999999943e+01,3.954918988207582753e-02
5.839999999999999858e+01,3.427810116935589568e-02
5.843999999999999773e+01,3.798985222170150888e-02
5.847999999999999687e+01,3.418497664339218561e-02
5.852000000000000313e+01,2.653002309058283270e-02
5.856000000000000227e+01,3.885755527130379389e-02
5.860000000000000142e+01,3.981858661527190590e-02
5.864000000000000057e+01,3.326299318820444967e-02
5.867999999999999972e+01,3.550691490606922018e-02
5.871999999999999886e+01,3.756730916520839569e-02
5.875999999999999801e+01,3.412768155321419666e-02
5.879999999999999716e+01,3.600434969917926109e-02
5.884000000000000341e+01,2.871444871257059286e-02
5.888000000000000256e+01,4.012374531179371817e-02
5.892000000000000171e+01,3.503337732575265151e-02
5.896000000000000085e+01,3.324270545210279704e-02
5.900000000000000000e+01,4.190149912868663257e-02
5.903999999999999915e+01,4.304367268328358059e-02
5.907999999999999829e+01,3.978579254336114812e-02
5.911999999999999744e+01,4.074424742326190202e-02
5.915999999999999659e+01,3.528604803326537004e-02
5.920000000000000284e+01,3.881069724152681061e-02
5.924000000000000199e+01,3.518538347145081652e-02
5.928000000000000114e+01,3.632638880950486704e-02
5.932000000000000028e+01,4.516695227359397019e-02
5.935999999999999943e+01,3.640789180899745014e-02
5.939999999999999858e+01,4.286481419230840639e-02
5.943999999999999773e+01,4.070515664530608563e-02
5.947999999999999687e+01,3.652870637714560748e-02
5.952000000000000313e+01,4.261840029341958797e-02
5.956000000000000227e+01,3.954153344540740217e-02
5.960000000000000142e+01,3.683113159526415353e-02
5.964000000000000057e+01,3.283724852183225740e-02
5.967999999999999972e+01,3.727623739682911497e-02
5.971999999999999886e+01,4.611489567478463392e-02
5.975999999999999801e+01,4.908688888510343712e-02
5.979999999999999716e+01,4.380896116837786070e-02
5.984000000000000341e+01,4.659725244057554699e-02
5.988000000000000256e+01,3.086928878003840707e-02
5.992000000000000171e+01,3.934035707973460028e-02
5.996000000000000085e+01,4.212809004588086853e-02
