2.003999999999999915e+01,4.867171407926766669e-02
2.007999999999999829e+01,5.117615334213054118e-02
2.012000000000000099e+01,3.074351593273888517e-02
2.016000000000000014e+01,4.447503349949477602e-02
2.019999999999999929e+01,5.223260385061847394e-02
2.023999999999999844e+01,5.425514547980903046e-02
2.028000000000000114e+01,2.880118692180849357e-02
2.032000000000000028e+01,3.273304254284663956e-02
2.035999999999999943e+01,3.523038415548742502e-02
2.039999999999999858e+01,4.393856600047001820e-02
2.044000000000000128e+01,4.882306343850198460e-02
2.048000000000000043e+01,3.315966792973962241e-02
2.051999999999999957e+01,3.087463475280537856e-02
2.055999999999999872e+01,3.647286762949650263e-02
2.060000000000000142e+01,4.875978136053631118e-02
2.064000000000000057e+01,4.671065632715428600e-02
2.067999999999999972e+01,5.780098118958352377e-02
2.071999999999999886e+01,3.711430811279543829e-02
2.076000000000000156e+01,3.745135766625661000e-02
2.080000000000000071e+01,2.775288438036802377e-02
2.083999999999999986e+01,4.672348917700383519e-02
2.087999999999999901e+01,4.825213781032278854e-02
2.092000000000000171e+01,4.452361288215277851e-02
2.096000000000000085e+01,3.123740452510391855e-02
2.100000000000000000e+01,3.610791868157163520e-02
2.103999999999999915e+01,3.165966911439585529e-02
2.107999999999999829e+01,5.946426413140167011e-02
2.112000000000000099e+01,4.904110670616455836e-02
2.116000000000000014e+01,4.076721873569706667e-02
2.119999999999999929e+01,3.798744338181154340e-02
2.123999999999999844e+01,3.425101523765471112e-02
2.128000000000000114e+01,4.341513788019264047e-02
2.132000000000000028e+01,2.080228075655951928e-02
2.135999999999999943e+01,4.477731362761744327e-02
2.139999999999999858e+01,4.223154936315381275e-02
2.144000000000000128e+01,2.773894338662234726e-02
2.148000000000000043e+01,9.661601785249869165e-03
2.151999999999999957e+01,5.704662031555784996e-02
2.155999999999999872e+01,3.920624684615210687e-02
2.160000000000000142e+01,3.617777211303303819e-02
2.164000000000000057e+01,4.581094178827364860e-02
2.167999999999999972e+01,3.991351778822629925e-02
2.171999999999999886e+01,3.425404194715748335e-02
2.176000000000000156e+01,3.958379317391966246e-02
2.180000000000000071e+01,4.061206662164412728e-02
2.183999999999999986e+01,3.041026231915270814e-02
2.187999999999999901e+01,2.546367394719955754e-02
2.192000000000000171e+01,4.440785072600234029e-02
2.196000000000000085e+01,1.891245116859972125e-02
2.200000000000000000e+01,4.884490043048634461e-02
2.203999999999999915e+01,4.174421152628035592e-02
2.207999999999999829e+01,3.703173722434387194e-02
2.212000000000000099e+01,3.279614047891255685e-02
2.216000000000000014e+01,3.596602368423758300e-02
2.219999999999999929e+01,4.128520784427885948e-02
2.223999999999999844e+01,4.301967939867044899e-02
2.228000000000000114e+01,3.663001119786013504e-02
2.232000000000000028e+01,2.689455009663590385e-02
2.235999999999999943e+01,4.200553660171818526e-02
2.239999999999999858e+01,4.254162036781806988e-02
2.244000000000000128e+01,3.208656183891067659e-02
2.248000000000000043e+01,2.832024110656324728e-02
2.251999999999999957e+01,4.056043338665260567e-02
2.255999999999999872e+01,3.607547223444196316e-02
2.260000000000000142e+01,8.414592243078144670e-03
2.264000000000000057e+01,3.092540024800932708e-02
2.267999999999999972e+01,3.933914855903800079e-02
2.271999999999999886e+01,4.440711608501683033e-02
2.276000000000000156e+01,2.701592146447551884e-02
2.280000000000000071e+01,3.972736798471841746e-02
2.283999999999999986e+01,3.189099303881472169e-02
2.287999999999999901e+01,4.221139754863888205e-02
2.292000000000000171e+01,3.795691506945391563e-02
2.296000000000000085e+01,4.636411697933023879e-02
2.300000000000000000e+01,4.760287007031012430e-02
2.303999999999999915e+01,1.754253005550954203e-02
2.307999999999999829e+01,3.120312474551496101e-02
2.312000000000000099e+01,3.243909404365631632e-02
2.316000000000000014e+01,4.108057358096436212e-02
2.319999999999999929e+01,5.282705349004889611e-02
2.323999999999999844e+01,3.661928830131111479e-02
2.328000000000000114e+01,4.358557760907941919e-02
2.332000000000000028e+01,2.880947357832532724e-02
2.335999999999999943e+01,3.457933636336159994e-02
2.339999999999999858e+01,1.765113910429806296e-02
2.344000000000000128e+01,4.253254919656735550e-02
2.348000000000000043e+01,5.188342013268685410e-02
2.351999999999999957e+01,4.689833953500573138e-02
2.355999999999999872e+01,4.047884185183994732e-02
2.360000000000000142e+01,3.166925916607558206e-02
2.364000000000000057e+01,6.084661337472496018e-02
2.367999999999999972e+01,4.008934585349485658e-02
2.371999999999999886e+01,2.410951542915300977e-02
2.376000000000000156e+01,2.246381459973858380e-02
2.380000000000000071e+01,3.395765816597510339e-02
2.383999999999999986e+01,4.330034128099408131e-02
2.387999999999999901e+01,3.782924920171489708e-02
2.392000000000000171e+01,3.140158550510394053e-02
2.396000000000000085e+01,3.309620812487547997e-02
2.400000000000000000e+01,1.519871354170665954e-02
2.403999999999999915e+01,4.866753576942001863e-02
2.407999999999999829e+01,1.237161396312414646e-02
2.412000000000000099e+01,2.648634226213313764e-02
2.416000000000000014e+01,3.844991980221555000e-02
2.419999999999999929e+01,2.986571706838948154e-02
2.423999999999999844e+01,2.797030543872515429e-02
2.428000000000000114e+01,2.989667873880821891e-02
2.432000000000000028e+01,2.369897407204603346e-02
2.435999999999999943e+01,2.896840978730658503e-02
2.439999999999999858e+01,2.898077734474552997e-02
2.444000000000000128e+01,3.687652847484149121e-02
2.448000000000000043e+01,2.948068801936024400e-02
2.451999999999999957e+01,2.805689530230806583e-02
2.455999999999999872e+01,4.025050456442379188e-02
2.460000000000000142e+01,3.237418023232012387e-02
2.464000000000000057e+01,2.091321598675162721e-02
2.467999999999999972e+01,2.760908571604905881e-02
2.471999999999999886e+01,4.744452770633508787e-02
2.476000000000000156e+01,3.430850771176806313e-02
2.480000000000000071e+01,2.260511557529583382e-02
2.483999999999999986e+01,4.148226093228947475e-02
2.487999999999999901e+01,1.878692578118637893e-02
2.492000000000000171e+01,4.220175388718991338e-02
2.496000000000000085e+01,3.622888529846109151e-02
2.500000000000000000e+01,2.691030498225756643e-02
2.503999999999999915e+01,2.762538195122009668e-02
2.507999999999999829e+01,3.574602731309678427e-02
2.512000000000000099e+01,3.860962632480742507e-02
2.516000000000000014e+01,2.928757901517343304e-02
2.519999999999999929e+01,4.911257640985756262e-02
2.523999999999999844e+01,4.528390036246612155e-02
2.528000000000000114e+01,4.862188148350837791e-02
2.532000000000000028e+01,4.001313841151434708e-02
2.535999999999999943e+01,3.331487472344998868e-02
2.539999999999999858e+01,4.453454953574457337e-02
2.544000000000000128e+01,3.640106804257196155e-02
2.548000000000000043e+01,5.693680517014724357e-02
2.551999999999999957e+01,2.371529978391686416e-02
2.555999999999999872e+01,3.708181160370056795e-02
2.560000000000000142e+01,4.112969781499106053e-02
2.564000000000000057e+01,4.804374101961653848e-02
2.567999999999999972e+01,4.014406354908245378e-02
2.571999999999999886e+01,4.657857503875975635e-02
2.576000000000000156e+01,2.290866221794518945e-02
2.580000000000000071e+01,3.507549617504703010e-02
2.583999999999999986e+01,3.816262907503691071e-02
2.587999999999999901e+01,2.189661899646006687e-02
2.592000000000000171e+01,2.330964588605297441e-02
2.596000000000000085e+01,3.881795172291320484e-02
2.600000000000000000e+01,3.831796016609228389e-02
2.603999999999999915e+01,2.204858970928904455e-02
2.607999999999999829e+01,4.711107200089645342e-02
2.612000000000000099e+01,5.019232847936722780e-02
2.616000000000000014e+01,3.033669122758774275e-02
2.619999999999999929e+01,4.201730179016215094e-02
2.623999999999999844e+01,4.390147156450111693e-02
2.628000000000000114e+01,3.622811904430317531e-02
2.632000000000000028e+01,4.073871811789958608e-02
2.635999999999999943e+01,1.729516659351348906e-02
2.639999999999999858e+01,1.296417026870943547e-02
2.644000000000000128e+01,2.726789579069861455e-02
2.648000000000000043e+01,4.157079636233626529e-02
2.651999999999999957e+01,1.812394261347123961e-02
2.655999999999999872e+01,5.942284980338648909e-02
2.660000000000000142e+01,3.239059297906166091e-02
2.664000000000000057e+01,4.621237130033225421e-02
2.667999999999999972e+01,4.354803825971521880e-02
2.671999999999999886e+01,3.443212091957535692e-02
2.676000000000000156e+01,1.169710202657193304e-02
2.680000000000000071e+01,2.838261943233387832e-02
2.683999999999999986e+01,5.701318689970079345e-02
2.687999999999999901e+01,1.157858406168071029e-02
2.692000000000000171e+01,4.450803814953548099e-02
2.696000000000000085e+01,3.323698462539859122e-02
2.700000000000000000e+01,2.387646015818417622e-02
2.703999999999999915e+01,2.001022519186713977e-02
2.707999999999999829e+01,2.474420560609749686e-02
2.712000000000000099e+01,3.258330512267239298e-02
2.716000000000000014e+01,4.735020146772959959e-02
2.719999999999999929e+01,3.702998004301968210e-02
2.723999999999999844e+01,4.008832448825444539e-02
2.728000000000000114e+01,4.219019908521561002e-02
2.732000000000000028e+01,2.207196693296969645e-02
2.735999999999999943e+01,2.512791285394359864e-02
2.739999999999999858e+01,3.630624928343096497e-02
2.744000000000000128e+01,3.744926398861223721e-02
2.748000000000000043e+01,4.121957413564061867e-02
2.751999999999999957e+01,2.993730205602166197e-02
2.755999999999999872e+01,1.220347111914441875e-02
2.760000000000000142e+01,2.266108845011930925e-02
2.764000000000000057e+01,3.670167519773732262e-02
2.767999999999999972e+01,3.162809076808964504e-02
2.771999999999999886e+01,1.436893755542746967e-02
2.776000000000000156e+01,1.192186965565887255e-02
2.780000000000000071e+01,3.479924869547344063e-02
2.783999999999999986e+01,3.880137868633077441e-02
2.787999999999999901e+01,5.235941741711375857e-02
2.792000000000000171e+01,5.301514157607677830e-02
2.796000000000000085e+01,3.097294380609027023e-02
2.800000000000000000e+01,3.592762000850720921e-02
2.803999999999999915e+01,2.487406060559964674e-02
2.807999999999999829e+01,3.818928749438002535e-02
2.812000000000000099e+01,1.443939840337896650e-02
2.816000000000000014e+01,6.404305634638458866e-03
2.819999999999999929e+01,2.726710280088872479e-03
2.823999999999999844e+01,1.239102360928733340e-02
2.828000000000000114e+01,2.129043205670214794e-02
2.832000000000000028e+01,6.611394009289135905e-03
2.835999999999999943e+01,1.128917071305076888e-02
2.839999999999999858e+01,1.220178140727905779e-02
2.844000000000000128e+01,7.601738761755405527e-03
2.848000000000000043e+01,1.741480812762999375e-02
2.851999999999999957e+01,1.848038939193461655e-02
2.855999999999999872e+01,1.144148601429284540e-02
2.860000000000000142e+01,4.475567078200525656e-04
2.864000000000000057e+01,8.418844177998529091e-03
2.867999999999999972e+01,1.084678076921687627e-02
2.871999999999999886e+01,1.169509615328714891e-02
2.876000000000000156e+01,1.104889046766370335e-02
2.880000000000000071e+01,1.188921489277815907e-02
2.883999999999999986e+01,7.057855918630299465e-03
2.887999999999999901e+01,1.097412700974293061e-02
2.892000000000000171e+01,1.569320863009582984e-02
2.896000000000000085e+01,7.402359022667868299e-03
2.900000000000000000e+01,1.469172828272220441e-02
2.903999999999999915e+01,1.440457118620852572e-02
2.907999999999999829e+01,1.694457731737967002e-02
2.912000000000000099e+01,9.479262695625149948e-03
2.916000000000000014e+01,3.457049346476184781e-04
2.919999999999999929e+01,1.387061961494615893e-02
2.923999999999999844e+01,2.096522573543939741e-02
2.928000000000000114e+01,2.028032629203355142e-02
2.932000000000000028e+01,1.670400609763006070e-02
2.935999999999999943e+01,2.118115332479743318e-02
2.939999999999999858e+01,9.317762800513686855e-03
2.944000000000000128e+01,1.665761513274590516e-02
2.948000000000000043e+01,7.707804737620272545e-03
2.951999999999999957e+01,8.439285845692728882e-03
2.955999999999999872e+01,1.385309774115183259e-02
2.960000000000000142e+01,9.359469187189745076e-03
2.964000000000000057e+01,5.986477439116232556e-03
2.967999999999999972e+01,1.588616428438000341e-02
2.971999999999999886e+01,5.280161732948471243e-03
2.976000000000000156e+01,2.143087749145639043e-02
2.980000000000000071e+01,1.822856900196562907e-02
2.983999999999999986e+01,3.055516067174926867e-02
2.987999999999999901e+01,2.352873051660712631e-02
2.992000000000000171e+01,4.349923248761589090e-02
2.996000000000000085e+01,1.425205478644929642e-02
3.000000000000000000e+01,4.449456200861728883e-02
3.003999999999999915e+01,1.715728710599234708e-02
3.007999999999999829e+01,3.162982066974404788e-02
3.012000000000000099e+01,2.961634706373931017e-02
3.016000000000000014e+01,2.354056617196866388e-02
3.019999999999999929e+01,2.295917049247169633e-02
3.023999999999999844e+01,2.691649210813459175e-02
3.028000000000000114e+01,3.158985571589241481e-02
3.032000000000000028e+01,3.005066134456673560e-02
3.035999999999999943e+01,2.588266943813271465e-02
3.039999999999999858e+01,2.434206141570350451e-02
3.044000000000000128e+01,2.112832740988896535e-02
3.048000000000000043e+01,2.364790437926564404e-02
3.051999999999999957e+01,2.234410224886665061e-02
3.055999999999999872e+01,2.103959874482975653e-02
3.060000000000000142e+01,1.232795933165136554e-02
3.064000000000000057e+01,2.177333441226381866e-02
3.067999999999999972e+01,7.087366255427044424e-03
3.071999999999999886e+01,1.462000881221784017e-02
3.076000000000000156e+01,1.737361040980107615e-02
3.080000000000000071e+01,2.824970549649261087e-02
3.083999999999999986e+01,3.004625096812294296e-02
3.087999999999999901e+01,2.347999988271634239e-02
3.092000000000000171e+01,2.885892243562839660e-02
3.096000000000000085e+01,3.041447921566535137e-02
3.100000000000000000e+01,3.937578369600471667e-02
3.103999999999999915e+01,2.826734963948641238e-02
3.107999999999999829e+01,6.645869544149969436e-03
3.112000000000000099e+01,3.185149234055084655e-02
3.116000000000000014e+01,2.289126058711101960e-02
3.119999999999999929e+01,1.966436161651766157e-02
3.123999999999999844e+01,1.452544361110461903e-02
3.128000000000000114e+01,1.631444722242381476e-02
3.132000000000000028e+01,8.068246628468408663e-03
3.135999999999999943e+01,1.917366874677218017e-02
3.139999999999999858e+01,3.290650503749094347e-02
3.144000000000000128e+01,1.319024710561149567e-02
3.148000000000000043e+01,3.982326840497198844e-02
3.151999999999999957e+01,3.205152877615684986e-02
3.155999999999999872e+01,3.049096739834106923e-02
3.160000000000000142e+01,1.053310542031525750e-02
3.164000000000000057e+01,2.115598689694466600e-02
3.167999999999999972e+01,1.266481834994912480e-02
3.171999999999999886e+01,2.734795993364171063e-02
3.176000000000000156e+01,3.080132422814740173e-02
3.180000000000000071e+01,1.752981495526313022e-02
3.183999999999999986e+01,2.026510098279878103e-02
3.187999999999999901e+01,2.514998115686119251e-02
3.192000000000000171e+01,3.529038135710026169e-02
3.196000000000000085e+01,3.228967206853368410e-02
3.200000000000000000e+01,1.423651624539736156e-02
3.203999999999999915e+01,4.544808751160509669e-03
3.207999999999999829e+01,1.324907664818776067e-02
3.211999999999999744e+01,2.195269042149701130e-02
3.215999999999999659e+01,2.961121605536062851e-02
3.220000000000000284e+01,3.525446475538190905e-02
3.224000000000000199e+01,2.246321820102691394e-02
3.228000000000000114e+01,2.665687094345384547e-02
3.232000000000000028e+01,2.620849175218042254e-02
3.235999999999999943e+01,2.753028138120730203e-02
3.239999999999999858e+01,3.196147907499635732e-02
3.243999999999999773e+01,2.322652081037263755e-02
3.247999999999999687e+01,3.358476081918399664e-02
3.252000000000000313e+01,2.629339264862903119e-02
3.256000000000000227e+01,3.399079654237029124e-02
3.260000000000000142e+01,3.558303503346177399e-02
3.264000000000000057e+01,3.717110475974860773e-02
3.267999999999999972e+01,2.390467404387854045e-02
3.271999999999999886e+01,2.686259687938225005e-02
3.275999999999999801e+01,3.208352374103493054e-02
3.279999999999999716e+01,3.299395145349388186e-02
3.284000000000000341e+01,2.663438156662490883e-02
3.288000000000000256e+01,3.235364569747928298e-02
3.292000000000000171e+01,2.887507785159355855e-02
3.296000000000000085e+01,2.605008795280694747e-02
3.300000000000000000e+01,2.580470525738866316e-02
3.303999999999999915e+01,3.434712914028822950e-02
3.307999999999999829e+01,2.813208650774855213e-02
3.311999999999999744e+01,2.689777249408670592e-02
3.315999999999999659e+01,3.740151971880562032e-02
3.320000000000000284e+01,2.948119932205061147e-02
3.324000000000000199e+01,2.287774333663266865e-02
3.328000000000000114e+01,2.909933145064056911e-02
3.332000000000000028e+01,2.758062035186536684e-02
3.335999999999999943e+01,2.703230707544891989e-02
3.339999999999999858e+01,3.004928871757136730e-02
3.343999999999999773e+01,1.808920605479243104e-02
3.347999999999999687e+01,2.970235685579812254e-02
3.352000000000000313e+01,2.397921718812111302e-02
3.356000000000000227e+01,3.107480216050291164e-02
3.360000000000000142e+01,3.126036874676732524e-02
3.364000000000000057e+01,1.613927692396488478e-02
3.367999999999999972e+01,3.088483267297726167e-02
3.371999999999999886e+01,3.159228855904701316e-02
3.375999999999999801e+01,2.202693847232964700e-02
3.379999999999999716e+01,1.684697070142697484e-02
3.384000000000000341e+01,2.385118229316337754e-02
3.388000000000000256e+01,3.706664240501073015e-02
3.392000000000000171e+01,1.970009079546816005e-02
3.396000000000000085e+01,3.387002203834283548e-02
3.400000000000000000e+01,2.343087603696489968e-02
3.403999999999999915e+01,9.168457551015156762e-03
3.407999999999999829e+01,2.453118729479126028e-02
3.411999999999999744e+01,2.651395569056521836e-02
3.415999999999999659e+01,1.320542569257284263e-02
3.420000000000000284e+01,1.781510073294902130e-02
3.424000000000000199e+01,2.935278704375153883e-02
3.428000000000000114e+01,2.751051685269765429e-02
3.432000000000000028e+01,2.017256168268876174e-02
3.435999999999999943e+01,2.167395967501603918e-02
3.439999999999999858e+01,1.839642695794897059e-02
3.443999999999999773e+01,3.399277567711921078e-02
3.447999999999999687e+01,2.474114440831120740e-02
3.452000000000000313e+01,1.931160822257092097e-02
3.456000000000000227e+01,2.511060407847458265e-02
3.460000000000000142e+01,2.684742712915370172e-02
3.464000000000000057e+01,3.551227356562323273e-02
3.467999999999999972e+01,4.417654341670474577e-02
3.471999999999999886e+01,2.703717142037612500e-02
3.475999999999999801e+01,2.948844239906391052e-02
3.479999999999999716e+01,3.886774160968769348e-02
3.484000000000000341e+01,3.295576302266416124e-02
3.488000000000000256e+01,2.441512380414622915e-02
3.492000000000000171e+01,3.427054599597741807e-02
3.496000000000000085e+01,2.620660392098207031e-02
3.500000000000000000e+01,2.315935787830417786e-02
3.503999999999999915e+01,3.134065841570720518e-02
3.507999999999999829e+01,2.972578591442053692e-02
3.511999999999999744e+01,3.910054513412514199e-02
3.515999999999999659e+01,4.130722384200119501e-02
3.520000000000000284e+01,3.873499607121110716e-02
3.524000000000000199e+01,3.520653954789227519e-02
3.528000000000000114e+01,2.331541973654143243e-02
3.532000000000000028e+01,3.627114006929334916e-02
3.535999999999999943e+01,3.656368845815955587e-02
3.539999999999999858e+01,3.351084011901697690e-02
3.543999999999999773e+01,3.714712211423051164e-02
3.547999999999999687e+01,5.702922694183953228e-02
3.552000000000000313e+01,5.994765359278204225e-02
3.556000000000000227e+01,3.706246383857891846e-02
3.560000000000000142e+01,4.786406214924897318e-02
3.564000000000000057e+01,5.675377469410414905e-02
3.567999999999999972e+01,3.960095718626042982e-02
3.571999999999999886e+01,4.633932280923328678e-02
3.575999999999999801e+01,6.836785061670624941e-02
3.579999999999999716e+01,6.698194210987790109e-02
3.584000000000000341e+01,7.300192789925735726e-02
3.588000000000000256e+01,5.202372056496958747e-02
3.592000000000000171e+01,4.514109385051467971e-02
3.596000000000000085e+01,6.406099579339546990e-02
3.600000000000000000e+01,7.414042169157422646e-02
3.603999999999999915e+01,7.490153819226234855e-02
3.607999999999999829e+01,6.514976009618324293e-02
3.611999999999999744e+01,5.778662185165261284e-02
3.615999999999999659e+01,8.673837873729317582e-02
3.620000000000000284e+01,8.893086947372044748e-02
3.624000000000000199e+01,8.777798892440341616e-02
3.628000000000000114e+01,8.996942220143093472e-02
3.632000000000000028e+01,6.635726209250461527e-02
3.635999999999999943e+01,9.124478456172301077e-02
3.639999999999999858e+01,8.292228032102046120e-02
3.643999999999999773e+01,9.514613906851368541e-02
3.647999999999999687e+01,9.709603261676641450e-02
3.652000000000000313e+01,7.849851904432404714e-02
3.656000000000000227e+01,9.000406338118992211e-02
3.660000000000000142e+01,9.338590169288768505e-02
3.664000000000000057e+01,1.216146201293897278e-01
3.667999999999999972e+01,1.168722376188881806e-01
3.671999999999999886e+01,1.235973698551593031e-01
3.675999999999999801e+01,1.274549811199847671e-01
3.679999999999999716e+01,1.155435393881214801e-01
3.684000000000000341e+01,1.177277061414284814e-01
3.688000000000000256e+01,1.234951221762886769e-01
3.692000000000000171e+01,1.330847059864009585e-01
3.696000000000000085e+01,1.531861426838539986e-01
3.700000000000000000e+01,1.534569386455366669e-01
3.703999999999999915e+01,1.489488838592278042e-01
3.707999999999999829e+01,1.659428805743476121e-01
3.711999999999999744e+01,1.932098177407912121e-01
3.715999999999999659e+01,1.829662401375791447e-01
3.720000000000000284e+01,2.047370780855584105e-01
3.724000000000000199e+01,2.076329516956360033e-01
3.728000000000000114e+01,2.215185224496708516e-01
3.732000000000000028e+01,2.530834754597514058e-01
3.735999999999999943e+01,2.442709123719075670e-01
3.739999999999999858e+01,2.677116881750994937e-01
3.743999999999999773e+01,2.665434909261700791e-01
3.747999999999999687e+01,2.961951312983738260e-01
3.752000000000000313e+01,2.969372899626024909e-01
3.756000000000000227e+01,3.406840700613288919e-01
3.760000000000000142e+01,3.705731596513954784e-01
3.764000000000000057e+01,4.076292807746456637e-01
3.767999999999999972e+01,4.152980904717409882e-01
3.771999999999999886e+01,4.628656017813662649e-01
3.775999999999999801e+01,4.891689916814374040e-01
3.779999999999999716e+01,5.004201107197178144e-01
3.784000000000000341e+01,5.582596189056894254e-01
3.788000000000000256e+01,5.618644243782802139e-01
3.792000000000000171e+01,5.970058326453925313e-01
3.796000000000000085e+01,6.531714845034091166e-01
3.800000000000000000e+01,7.327505539854927141e-01
3.803999999999999915e+01,7.119838901429628164e-01
3.807999999999999829e+01,7.767491397098432726e-01
3.811999999999999744e+01,8.281345490823625033e-01
3.815999999999999659e+01,8.589726010071789819e-01
3.820000000000000284e+01,9.031895507629161823e-01
3.824000000000000199e+01,9.347434158053887776e-01
3.828000000000000114e+01,9.450331751882806719e-01
3.832000000000000028e+01,1.000000000000000000e+00
3.835999999999999943e+01,9.591605295404864728e-01
3.839999999999999858e+01,9.713602318085635678e-01
3.843999999999999773e+01,9.651628406491565837e-01
3.847999999999999687e+01,9.764059495981883829e-01
3.852000000000000313e+01,9.455991566087132982e-01
3.856000000000000227e+01,9.458511512340171956e-01
3.860000000000000142e+01,8.997527352649608012e-01
3.864000000000000057e+01,9.160112732970540073e-01
3.867999999999999972e+01,8.687173588421537307e-01
3.871999999999999886e+01,8.355191098146348416e-01
3.875999999999999801e+01,8.235840458909110540e-01
3.879999999999999716e+01,7.502467886542668607e-01
3.884000000000000341e+01,7.347270631153648424e-01
3.888000000000000256e+01,6.979432500899284131e-01
3.892000000000000171e+01,6.654594999808892686e-01
3.896000000000000085e+01,6.203126869662412002e-01
3.900000000000000000e+01,6.007295774035334990e-01
3.903999999999999915e+01,5.911805491637341925e-01
3.907999999999999829e+01,5.656236197026591750e-01
3.911999999999999744e+01,5.496229394232404752e-01
3.915999999999999659e+01,5.219148714245452902e-01
3.920000000000000284e+01,4.851275070218979968e-01
3.924000000000000199e+01,4.705590113901330085e-01
3.928000000000000114e+01,4.380712823374736664e-01
3.932000000000000028e+01,4.175289813457784827e-01
3.935999999999999943e+01,3.941192381325042682e-01
3.939999999999999858e+01,3.709479785773005522e-01
3.943999999999999773e+01,3.652172482074098059e-01
3.947999999999999687e+01,3.578136656613618016e-01
3.952000000000000313e+01,3.754959677529021156e-01
3.956000000000000227e+01,3.513673166880448284e-01
3.960000000000000142e+01,3.296274108784034707e-01
3.964000000000000057e+01,3.129043416393028076e-01
3.967999999999999972e+01,3.040651175682302920e-01
3.971999999999999886e+01,3.004816497729339009e-01
3.975999999999999801e+01,2.763508729913914386e-01
3.979999999999999716e+01,2.584315240373483147e-01
3.984000000000000341e+01,2.677483249526478315e-01
3.988000000000000256e+01,2.706139401639028330e-01
3.992000000000000171e+01,2.689397091399501893e-01
3.996000000000000085e+01,2.460014233409457407e-01
4.000000000000000000e+01,2.426539392282271168e-01
4.003999999999999915e+01,2.390671235938365835e-01
4.007999999999999829e+01,2.471868417574395183e-01
4.011999999999999744e+01,2.402543593283633372e-01
4.015999999999999659e+01,2.154026701321936632e-01
4.020000000000000284e+01,2.380951106930135619e-01
4.024000000000000199e+01,2.247106334654566939e-01
4.028000000000000114e+01,2.041582308027314885e-01
4.032000000000000028e+01,2.063025641866968740e-01
4.035999999999999943e+01,2.000843881477538388e-01
4.039999999999999858e+01,1.974495680055678992e-01
4.043999999999999773e+01,1.945754284570740400e-01
4.047999999999999687e+01,1.768880165018914263e-01
4.052000000000000313e+01,1.869146095764954996e-01
4.056000000000000227e+01,1.790220079993701807e-01
4.060000000000000142e+01,1.751906029410090770e-01
4.064000000000000057e+01,1.718366363805098052e-01
4.067999999999999972e+01,1.749330415834734198e-01
4.071999999999999886e+01,1.756398803214208049e-01
4.075999999999999801e+01,1.608167032869465551e-01
4.079999999999999716e+01,1.803972236635661419e-01
4.084000000000000341e+01,1.708294456075697687e-01
4.088000000000000256e+01,1.650839552689299661e-01
4.092000000000000171e+01,1.540818971370050694e-01
4.096000000000000085e+01,1.660155117185157236e-01
4.100000000000000000e+01,1.483229981492310556e-01
4.103999999999999915e+01,1.528494078699670355e-01
4.107999999999999829e+01,1.571365175689777294e-01
4.111999999999999744e+01,1.611843284577995639e-01
4.115999999999999659e+01,1.728771120593339539e-01
4.120000000000000284e+01,1.382195638163743745e-01
4.124000000000000199e+01,1.463278311870994663e-01
4.128000000000000114e+01,1.513297972078302689e-01
4.132000000000000028e+01,1.646934926339070904e-01
4.135999999999999943e+01,1.362462894227246257e-01
4.139999999999999858e+01,1.426806363600071903e-01
4.143999999999999773e+01,1.381244164820761289e-01
4.147999999999999687e+01,1.421688481377991753e-01
4.152000000000000313e+01,1.634149546965657784e-01
4.156000000000000227e+01,1.313821391319512089e-01
4.160000000000000142e+01,1.201347601258916237e-01
4.164000000000000057e+01,1.401851793050769013e-01
4.167999999999999972e+01,1.318040773403986732e-01
4.171999999999999886e+01,1.506591821872741987e-01
4.175999999999999801e+01,1.566123916539266525e-01
4.179999999999999716e+01,1.248163096069841438e-01
4.184000000000000341e+01,1.283796255997323721e-01
4.188000000000000256e+01,1.450830336025878964e-01
4.192000000000000171e+01,1.558131522540807112e-01
4.196000000000000085e+01,1.342890817278636073e-01
4.200000000000000000e+01,1.299667006431267646e-01
4.203999999999999915e+01,1.445184311865447269e-01
4.207999999999999829e+01,1.239489688009110108e-01
4.211999999999999744e+01,1.303768080600326562e-01
4.215999999999999659e+01,1.456442367310899211e-01
4.220000000000000284e+01,1.331969118547446929e-01
4.224000000000000199e+01,1.451188021539756012e-01
4.228000000000000114e+01,1.517841658521592585e-01
4.232000000000000028e+01,1.591659362148965806e-01
4.235999999999999943e+01,1.627246860926348793e-01
4.239999999999999858e+01,1.557707327963584465e-01
4.243999999999999773e+01,1.466661824132938774e-01
4.247999999999999687e+01,1.581081779604226190e-01
4.252000000000000313e+01,1.365792494448634098e-01
4.256000000000000227e+01,1.312963582036438537e-01
4.260000000000000142e+01,1.458432646807392430e-01
4.264000000000000057e+01,1.546558208962897640e-01
4.267999999999999972e+01,1.491330059039791822e-01
4.271999999999999886e+01,1.670237514970312753e-01
4.275999999999999801e+01,1.402366334706474094e-01
4.279999999999999716e+01,1.511981153824538682e-01
4.284000000000000341e+01,1.583365913476982856e-01
4.288000000000000256e+01,1.585461379098034029e-01
4.292000000000000171e+01,1.723736425462876198e-01
4.296000000000000085e+01,1.675652733767390712e-01
4.300000000000000000e+01,1.778083683976178775e-01
4.303999999999999915e+01,1.577086452095702584e-01
4.307999999999999829e+01,1.894536500880600050e-01
4.311999999999999744e+01,1.767597195331040427e-01
4.315999999999999659e+01,1.736221605249817224e-01
4.320000000000000284e+01,1.970041013087725501e-01
4.324000000000000199e+01,1.883708089661810248e-01
4.328000000000000114e+01,1.986116658093728948e-01
4.332000000000000028e+01,2.093300423233661056e-01
4.335999999999999943e+01,1.796710844698957976e-01
4.339999999999999858e+01,1.987509397071406114e-01
4.343999999999999773e+01,2.070792059881546299e-01
4.347999999999999687e+01,2.072839746282627571e-01
4.352000000000000313e+01,1.835967062162709718e-01
4.356000000000000227e+01,2.284783901606339818e-01
4.360000000000000142e+01,2.043126731472426072e-01
4.364000000000000057e+01,2.047551309953641319e-01
4.367999999999999972e+01,2.145150588581300199e-01
4.371999999999999886e+01,2.075504741913555551e-01
4.375999999999999801e+01,2.211324742239394459e-01
4.379999999999999716e+01,2.129727012246415696e-01
4.384000000000000341e+01,2.229703425261491123e-01
4.388000000000000256e+01,2.441967981572837065e-01
4.392000000000000171e+01,2.400977251587070871e-01
4.396000000000000085e+01,2.555895737885205965e-01
4.400000000000000000e+01,2.548347529338736983e-01
4.403999999999999915e+01,2.426116094495544273e-01
4.407999999999999829e+01,2.263265802941390459e-01
4.411999999999999744e+01,2.394280861819252093e-01
4.415999999999999659e+01,2.386721002530224622e-01
4.420000000000000284e+01,2.360044878270960989e-01
4.424000000000000199e+01,2.474327080205753204e-01
4.428000000000000114e+01,2.495428683930639158e-01
4.432000000000000028e+01,2.595370144718038286e-01
4.435999999999999943e+01,2.518509982769356337e-01
4.439999999999999858e+01,2.506154665184160413e-01
4.443999999999999773e+01,2.663427808229351657e-01
4.447999999999999687e+01,2.749022969036087338e-01
4.452000000000000313e+01,2.693654147892584616e-01
4.456000000000000227e+01,2.688455182644271524e-01
4.460000000000000142e+01,2.525568049925066560e-01
4.464000000000000057e+01,2.568147030737454872e-01
4.467999999999999972e+01,2.273849906687746003e-01
4.471999999999999886e+01,2.490833041568460970e-01
4.475999999999999801e+01,2.595522341050630621e-01
4.479999999999999716e+01,2.344222189443788129e-01
4.484000000000000341e+01,2.382009260702263320e-01
4.488000000000000256e+01,2.197600583113499817e-01
4.492000000000000171e+01,2.027524278133814584e-01
4.496000000000000085e+01,2.096362603111395773e-01
4.500000000000000000e+01,2.045739646917740240e-01
4.503999999999999915e+01,2.195804579766067188e-01
4.507999999999999829e+01,2.128452169987227194e-01
4.511999999999999744e+01,1.951195206669744941e-01
4.515999999999999659e+01,1.898172638448311356e-01
4.520000000000000284e+01,1.699407948594578166e-01
4.524000000000000199e+01,1.586650912921609702e-01
4.528000000000000114e+01,1.710419431307194926e-01
4.532000000000000028e+01,1.700391728514700773e-01
4.535999999999999943e+01,1.692750667492160521e-01
4.539999999999999858e+01,1.553702582343894634e-01
4.543999999999999773e+01,1.428987027304440549e-01
4.547999999999999687e+01,1.500181148932722419e-01
4.552000000000000313e+01,1.509254294608518843e-01
4.556000000000000227e+01,1.191008293246730437e-01
4.560000000000000142e+01,1.073450350542021481e-01
4.564000000000000057e+01,1.278428292512672482e-01
4.567999999999999972e+01,1.170422160721585753e-01
4.571999999999999886e+01,1.155591346960510440e-01
4.575999999999999801e+01,1.133590604836526433e-01
4.579999999999999716e+01,1.073360699783864058e-01
4.584000000000000341e+01,1.008350063420647008e-01
4.588000000000000256e+01,1.072352385873285990e-01
4.592000000000000171e+01,1.009726187343182313e-01
4.596000000000000085e+01,9.542651579567461295e-02
4.600000000000000000e+01,9.561419390834832721e-02
4.603999999999999915e+01,1.024913234125260086e-01
4.607999999999999829e+01,8.189273417049539039e-02
4.611999999999999744e+01,8.016838013333299484e-02
4.615999999999999659e+01,7.486003798929299902e-02
4.620000000000000284e+01,7.002930274667563959e-02
4.624000000000000199e+01,6.925993484945593137e-02
4.628000000000000114e+01,6.012823683671616321e-02
4.632000000000000028e+01,7.464912572977847049e-02
4.635999999999999943e+01,6.264997348603751348e-02
4.639999999999999858e+01,6.068512548790436223e-02
4.643999999999999773e+01,6.827674838259019385e-02
4.647999999999999687e+01,7.467356568431546271e-02
4.652000000000000313e+01,7.987557860461654002e-02
4.656000000000000227e+01,4.732844418415508431e-02
4.660000000000000142e+01,5.921970869839503909e-02
4.664000000000000057e+01,5.629788738255288305e-02
4.667999999999999972e+01,5.146451468494448594e-02
4.671999999999999886e+01,4.233041899548038722e-02
4.675999999999999801e+01,3.916904465868783353e-02
4.679999999999999716e+01,5.201491873693172424e-02
4.684000000000000341e+01,4.383586370654853070e-02
4.688000000000000256e+01,3.207284237694303652e-02
4.692000000000000171e+01,5.256344828403849284e-02
4.696000000000000085e+01,3.076549060464659271e-02
4.700000000000000000e+01,3.596498237745178461e-02
4.703999999999999915e+01,4.570370029070797840e-02
4.707999999999999829e+01,4.540769134403418311e-02
4.711999999999999744e+01,3.937746782789334349e-02
4.715999999999999659e+01,4.266481973006427952e-02
4.720000000000000284e+01,4.093471133232862158e-02
4.724000000000000199e+01,3.179797102459706870e-02
4.728000000000000114e+01,3.675715541303819361e-02
4.732000000000000028e+01,3.072595108211744266e-02
4.735999999999999943e+01,4.524144048883178143e-02
4.739999999999999858e+01,2.774182276895013899e-02
4.743999999999999773e+01,1.048093222595716280e-02
4.747999999999999687e+01,2.308451305954905067e-02
4.752000000000000313e+01,2.517554579578639221e-02
4.756000000000000227e+01,3.419499324407379581e-02
4.760000000000000142e+01,2.625112839968979719e-02
4.764000000000000057e+01,4.004855218450859011e-02
4.767999999999999972e+01,4.452801912893122188e-02
4.771999999999999886e+01,2.463774166825180231e-02
4.775999999999999801e+01,3.508977862923723379e-02
4.779999999999999716e+01,3.072876489469649267e-02
4.784000000000000341e+01,3.019024968484718477e-02
4.788000000000000256e+01,2.176728738525925480e-02
4.792000000000000171e+01,3.174078024535293557e-02
4.796000000000000085e+01,1.734453596956284788e-02
4.800000000000000000e+01,1.369939624732461475e-02
4.803999999999999915e+01,2.845071531937726911e-02
4.807999999999999829e+01,2.193822555826887427e-02
4.811999999999999744e+01,2.713251311397187060e-02
4.815999999999999659e+01,1.393000164553765199e-02
4.820000000000000284e+01,2.366338217862886187e-02
4.824000000000000199e+01,2.383990555067109704e-02
4.828000000000000114e+01,2.473301610619175334e-02
4.832000000000000028e+01,2.777621874970265248e-02
4.835999999999999943e+01,2.532416166353764625e-02
4.839999999999999858e+01,1.618225964842025591e-02
4.843999999999999773e+01,2.734816680025840829e-02
4.847999999999999687e+01,3.015181047107891657e-02
4.852000000000000313e+01,2.196510176862987579e-02
4.856000000000000227e+01,1.282256775527597717e-02
4.860000000000000142e+01,2.183759221555999289e-02
4.864000000000000057e+01,2.583519999124814226e-02
4.867999999999999972e+01,1.693112198251171818e-02
4.871999999999999886e+01,2.236192956742112659e-02
4.875999999999999801e+01,1.393538466232854302e-02
4.879999999999999716e+01,2.772799808531970986e-02
4.884000000000000341e+01,2.527408861975580581e-02
4.888000000000000256e+01,2.616487461450475727e-02
4.892000000000000171e+01,2.825010174163974583e-02
4.896000000000000085e+01,1.886715525808055002e-02
4.900000000000000000e+01,1.641266710188206759e-02
4.903999999999999915e+01,1.180778176240272585e-02
4.907999999999999829e+01,1.819295097012082682e-02
4.911999999999999744e+01,2.792282290737024483e-02
4.915999999999999659e+01,2.188401621268102823e-02
4.920000000000000284e+01,2.062341836357137193e-02
4.924000000000000199e+01,3.250313544726804449e-02
4.928000000000000114e+01,2.072990722227011778e-02
4.932000000000000028e+01,2.615859014991516601e-02
4.935999999999999943e+01,1.820777332492938549e-02
4.939999999999999858e+01,2.530861453619612927e-02
4.943999999999999773e+01,1.950779298223007802e-02
4.947999999999999687e+01,2.302461711568746031e-02
4.952000000000000313e+01,1.459545003563513486e-02
4.956000000000000227e+01,1.572284834824166574e-02
4.960000000000000142e+01,1.493878372123962940e-02
4.964000000000000057e+01,3.422364732512277880e-02
4.967999999999999972e+01,1.360920254862003215e-02
4.971999999999999886e+01,1.784203406932685990e-02
4.975999999999999801e+01,2.852551237226104430e-02
4.979999999999999716e+01,2.535166968513974384e-02
4.984000000000000341e+01,2.528363425304247861e-02
4.988000000000000256e+01,1.231394938261283489e-02
4.992000000000000171e+01,1.702402840219746291e-02
4.996000000000000085e+01,1.695564800005024131e-02
5.000000000000000000e+01,1.473689949149591984e-02
5.003999999999999915e+01,1.634071614213546478e-02
5.007999999999999829e+01,2.009467818836718420e-02
5.011999999999999744e+01,1.500859186224884519e-02
5.015999999999999659e+01,2.067367551264839842e-02
5.020000000000000284e+01,2.156030701053451154e-02
5.024000000000000199e+01,1.623498387446817987e-02
5.028000000000000114e+01,8.042549266261890539e-03
5.032000000000000028e+01,3.258167943967646418e-02
5.035999999999999943e+01,2.606146126883947256e-02
5.039999999999999858e+01,1.571846613182142222e-02
5.043999999999999773e+01,2.114391237749029331e-02
5.047999999999999687e+01,1.581798289733614415e-02
5.052000000000000313e+01,2.793291819807974113e-02
5.056000000000000227e+01,2.380138270633380335e-02
5.060000000000000142e+01,3.113778236449391348e-02
5.064000000000000057e+01,3.154548765757794054e-02
5.067999999999999972e+01,3.195310097983701525e-02
5.071999999999999886e+01,2.160934584549152604e-02
5.075999999999999801e+01,1.938868875692166191e-02
5.079999999999999716e+01,1.788469517862380231e-02
5.084000000000000341e+01,2.498163663349957375e-02
5.088000000000000256e+01,3.183957489306984967e-02
5.092000000000000171e+01,2.627372977857951250e-02
5.096000000000000085e+01,2.620289866375849139e-02
5.100000000000000000e+01,1.872554952336379780e-02
5.103999999999999915e+01,2.199939701328796487e-02
5.107999999999999829e+01,2.431749551910098589e-02
5.111999999999999744e+01,1.516748583718572317e-02
5.115999999999999659e+01,7.211985133695406058e-03
5.120000000000000284e+01,1.598061796073397406e-02
5.124000000000000199e+01,1.280331167032837045e-02
5.128000000000000114e+01,2.276638210108585664e-02
5.132000000000000028e+01,2.508402691639834495e-02
5.135999999999999943e+01,1.426114983806309015e-02
5.139999999999999858e+01,1.968457778361356811e-02
5.143999999999999773e+01,1.077289984777611738e-02
5.147999999999999687e+01,1.356810099780836679e-02
5.152000000000000313e+01,2.854801700957174462e-02
5.156000000000000227e+01,1.390212471615133276e-02
5.160000000000000142e+01,1.813063360808720575e-02
5.164000000000000057e+01,9.935380933617765295e-03
5.167999999999999972e+01,2.180911827839024722e-02
5.171999999999999886e+01,2.938228407335808159e-02
5.175999999999999801e+01,2.070901542192854494e-02
5.179999999999999716e+01,3.162690586002504106e-02
5.184000000000000341e+01,1.745842483478165022e-02
5.188000000000000256e+01,2.885403737620146833e-02
5.192000000000000171e+01,2.734806226764575215e-02
5.196000000000000085e+01,2.297502657147921720e-02
5.200000000000000000e+01,1.645168334572602933e-02
5.203999999999999915e+01,2.951950647871725425e-02
5.207999999999999829e+01,1.654529628893670196e-02
5.211999999999999744e+01,2.674601411341213236e-02
5.215999999999999659e+01,2.380623427496785655e-02
5.220000000000000284e+01,1.919398752894406826e-02
5.224000000000000199e+01,8.130929443625676406e-03
5.228000000000000114e+01,1.880930052573337452e-02
5.232000000000000028e+01,2.208119356296886493e-02
5.235999999999999943e+01,2.822005289985952264e-02
5.239999999999999858e+01,2.766918846143864158e-02
5.243999999999999773e+01,2.902962361709534797e-02
5.247999999999999687e+01,2.107224731672490553e-02
5.252000000000000313e+01,1.359266934052949863e-02
5.256000000000000227e+01,1.925350685466214323e-02
5.260000000000000142e+01,1.320736372575105795e-02
5.264000000000000057e+01,2.436323230700482984e-02
5.267999999999999972e+01,2.166186712882434140e-02
5.271999999999999886e+01,2.039397546115124735e-02
5.275999999999999801e+01,9.091528971718117191e-03
5.279999999999999716e+01,9.257084266693521926e-03
5.284000000000000341e+01,1.157286855327319466e-02
5.288000000000000256e+01,2.607340889382193591e-02
5.292000000000000171e+01,2.408863264036662996e-02
5.296000000000000085e+01,2.473192357744996919e-02
5.300000000000000000e+01,1.964117804091811831e-02
5.303999999999999915e+01,3.103570448342748631e-02
5.307999999999999829e+01,3.239568579646799618e-02
5.311999999999999744e+01,2.348220590941348454e-02
5.315999999999999659e+01,2.627565599275781885e-02
5.320000000000000284e+01,1.521188806664126175e-02
5.324000000000000199e+01,1.896097720210979803e-02
5.328000000000000114e+01,2.916081973500958546e-02
5.332000000000000028e+01,1.833592942818038779e-02
5.335999999999999943e+01,2.017364427808225960e-02
5.339999999999999858e+01,1.747192118054593374e-02
5.343999999999999773e+01,2.647713653416322588e-02
5.347999999999999687e+01,1.875813497312355665e-02
5.352000000000000313e+01,1.486180397494519904e-02
5.356000000000000227e+01,2.888426439875677390e-02
5.360000000000000142e+01,1.447556471655417343e-02
5.364000000000000057e+01,2.634776375510456195e-02
5.367999999999999972e+01,1.647848901126587606e-02
5.371999999999999886e+01,2.548367966421310679e-02
5.375999999999999801e+01,2.756027045192397523e-02
5.379999999999999716e+01,2.270826258593486996e-02
5.384000000000000341e+01,2.144001769293580467e-02
5.388000000000000256e+01,2.375553698446311590e-02
5.392000000000000171e+01,2.559322787528933024e-02
5.396000000000000085e+01,2.886442983425160577e-02
5.400000000000000000e+01,2.664054289017139809e-02
5.403999999999999915e+01,2.393883117999935639e-02
5.407999999999999829e+01,2.673222796933640011e-02
5.411999999999999744e+01,2.403053949024028246e-02
5.415999999999999659e+01,2.682396193372601351e-02
5.420000000000000284e+01,2.961739902159071097e-02
5.424000000000000199e+01,2.142065698589218359e-02
5.428000000000000114e+01,1.776336037873432749e-02
5.432000000000000028e+01,2.987462267329493715e-02
5.435999999999999943e+01,3.099390665326165473e-02
5.439999999999999858e+01,2.785351335644402002e-02
5.443999999999999773e+01,3.418785253312710964e-02
5.447999999999999687e+01,3.294461199589034106e-02
5.452000000000000313e+01,2.724196269489028918e-02
5.456000000000000227e+01,3.067873154271687913e-02
5.460000000000000142e+01,3.466901661230623044e-02
5.464000000000000057e+01,3.388818603708132482e-02
5.467999999999999972e+01,3.370097815107905848e-02
5.471999999999999886e+01,2.981277634991316358e-02
5.475999999999999801e+01,3.399907253557308412e-02
5.479999999999999716e+01,3.517247487600423661e-02
5.484000000000000341e+01,3.673302755500938710e-02
5.488000000000000256e+01,3.242524328219506535e-02
5.492000000000000171e+01,3.165017993377221978e-02
5.496000000000000085e+01,3.198950157065450633e-02
5.500000000000000000e+01,2.998784268120477034e-02
5.503999999999999915e+01,3.035681655427917638e-02
5.507999999999999829e+01,3.031745880526704254e-02
5.511999999999999744e+01,2.867832426282192551e-02
5.515999999999999659e+01,3.023783191286630659e-02
5.520000000000000284e+01,2.975290350276680457e-02
5.524000000000000199e+01,3.168083071158209890e-02
5.528000000000000114e+01,2.987658925763192821e-02
5.532000000000000028e+01,3.147595527150492262e-02
5.535999999999999943e+01,3.169885114344494353e-02
5.539999999999999858e+01,3.115412248011275448e-02
5.543999999999999773e+01,3.773366330272893976e-02
5.547999999999999687e+01,3.336308936720461943e-02
5.552000000000000313e+01,2.525673103676900552e-02
5.556000000000000227e+01,2.624816240250705743e-02
5.560000000000000142e+01,3.323831509019660457e-02
5.564000000000000057e+01,3.372126588009811965e-02
5.567999999999999972e+01,2.932083961101722425e-02
5.571999999999999886e+01,3.097915611313498130e-02
5.575999999999999801e+01,3.011458798118612015e-02
5.579999999999999716e+01,2.972024765696600762e-02
5.584000000000000341e+01,3.268950418564965654e-02
5.588000000000000256e+01,2.713330158981220805e-02
5.592000000000000171e+01,2.799505439415962346e-02
5.596000000000000085e+01,3.764035802398964237e-02
5.600000000000000000e+01,3.134545533864964428e-02
5.603999999999999915e+01,3.471400331753968921e-02
5.607999999999999829e+01,3.607042988125651328e-02
5.611999999999999744e+01,2.560813957196762802e-02
5.615999999999999659e+01,3.775075006505660552e-02
5.620000000000000284e+01,3.456037436036509675e-02
5.624000000000000199e+01,4.302114689668740111e-02
5.628000000000000114e+01,4.571588587657805791e-02
5.632000000000000028e+01,2.773874569537920082e-02
5.635999999999999943e+01,3.470056459493447293e-02
5.639999999999999858e+01,3.258960313383863633e-02
5.643999999999999773e+01,3.402419207306122545e-02
5.647999999999999687e+01,2.969096560468680035e-02
5.652000000000000313e+01,2.956891921366638226e-02
5.656000000000000227e+01,2.583987310877690693e-02
5.660000000000000142e+01,3.154030845984291676e-02
5.664000000000000057e+01,3.670078518738409401e-02
5.667999999999999972e+01,3.635492419144142895e-02
5.671999999999999886e+01,4.669017823086910046e-02
5.675999999999999801e+01,4.103092223939436289e-02
5.679999999999999716e+01,2.992918237497681211e-02
5.684000000000000341e+01,3.386622089391599227e-02
5.688000000000000256e+01,4.098515202403147512e-02
5.692000000000000171e+01,3.783549634677989965e-02
5.696000000000000085e+01,3.557817866612843910e-02
5.700000000000000000e+01,2.965471492252119007e-02
5.703999999999999915e+01,3.399067865118503284e-02
5.707999999999999829e+01,2.437522415821641308e-02
5.711999999999999744e+01,4.086925304931891129e-02
5.715999999999999659e+01,3.768693960775750668e-02
5.720000000000000284e+01,3.737951292439342654e-02
5.724000000000000199e+01,3.351713549733495445e-02
5.728000000000000114e+01,2.900214438896974237e-02
5.732000000000000028e+01,3.410374257125969866e-02
5.735999999999999943e+01,3.767398447324901006e-02
5.739999999999999858e+01,4.159957551557370847e-02
5.743999999999999773e+01,3.260262956923382777e-02
5.747999999999999687e+01,2.785584114814643880e-02
5.752000000000000313e+01,3.724487562066865209e-02
5.756000000000000227e+01,3.986013823823435220e-02
5.760000000000000142e+01,5.412727780768407382e-02
5.764000000000000057e+01,4.736981538333687874e-02
5.767999999999999972e+01,4.754107418975092592e-02
5.771999999999999886e+01,5.105729620602381807e-02
5.775999999999999801e+01,4.406128027826249072e-02
5.779999999999999716e+01,5.665660517048837219e-02
5.784000000000000341e+01,5.276676248768828736e-02
5.788000000000000256e+01,5.532781252900624558e-02
5.792000000000000171e+01,4.546529121513506050e-02
5.796000000000000085e+01,4.133691320196692526e-02
5.800000000000000000e+01,4.318159698320103018e-02
5.803999999999999915e+01,4.430965986982145222e-02
5.807999999999999829e+01,4.591568948417756868e-02
5.811999999999999744e+01,4.489376236969224582e-02
5.815999999999999659e+01,4.769464635629144800e-02
5.820000000000000284e+01,4.428381680468333748e-02
5.824000000000000199e+01,4.254554523776939851e-02
5.828000000000000114e+01,4.606359209952471528e-02
5.832000000000000028e+01,4.671477100795807386e-02
5.835999999999999943e+01,4.903851153569480092e-02
5.839999999999999858e+01,5.924666423049842340e-02
5.843999999999999773e+01,5.344750208764736249e-02
5.847999999999999687e+01,4.573714596627028589e-02
5.852000000000000313e+01,4.925604759684534817e-02
5.856000000000000227e+01,6.113720080495810283e-02
5.860000000000000142e+01,5.366620207128584147e-02
5.864000000000000057e+01,6.435306590688968931e-02
5.867999999999999972e+01,4.852026175890388621e-02
5.871999999999999886e+01,3.722703752000010302e-02
5.875999999999999801e+01,5.054244610337138566e-02
5.879999999999999716e+01,5.884074573239438805e-02
5.884000000000000341e+01,5.184849448561450191e-02
5.888000000000000256e+01,5.465200820163909623e-02
5.892000000000000171e+01,4.144822161844585046e-02
5.896000000000000085e+01,5.691466771197361413e-02
5.900000000000000000e+01,5.971865787963261119e-02
5.903999999999999915e+01,5.726662907999904850e-02
5.907999999999999829e+01,6.341578489003907304e-02
5.911999999999999744e+01,4.877930081529183171e-02
5.915999999999999659e+01,5.468986788141985689e-02
5.920000000000000284e+01,5.247741344045008666e-02
5.924000000000000199e+01,4.405327696121965481e-02
5.928000000000000114e+01,5.737078166828657455e-02
5.932000000000000028e+01,5.635341916663789280e-02
5.935999999999999943e+01,5.939782139432861485e-02
5.939999999999999858e+01,6.100889207315583068e-02
5.943999999999999773e+01,5.162994112815268155e-02
5.947999999999999687e+01,5.730295352657686914e-02
5.952000000000000313e+01,5.843671334263323552e-02
5.956000000000000227e+01,5.168637983758198051e-02
5.960000000000000142e+01,5.640425407812858088e-02
5.964000000000000057e+01,6.231689414281849776e-02
5.967999999999999972e+01,5.246117420964490491e-02
5.971999999999999886e+01,5.407366565667835745e-02
5.975999999999999801e+01,6.333169318085396515e-02
5.979999999999999716e+01,5.419327423798701165e-02
5.984000000000000341e+01,5.843440856723691040e-02
5.988000000000000256e+01,5.526929383199575413e-02
5.992000000000000171e+01,5.640487806976628160e-02
5.996000000000000085e+01,6.781409454614928389e-02
