2.003999999999999915e+01,1.373584349214028721e-01
2.007999999999999829e+01,9.328078512297705016e-02
2.012000000000000099e+01,1.241626732326286120e-01
2.016000000000000014e+01,2.100772534735126928e-01
2.019999999999999929e+01,2.352590300992947470e-01
2.023999999999999844e+01,1.437230514040021834e-01
2.028000000000000114e+01,1.821826759812124608e-01
2.032000000000000028e+01,1.001289596126989090e-01
2.035999999999999943e+01,1.025237698162408811e-01
2.039999999999999858e+01,3.944129996531257898e-02
2.044000000000000128e+01,1.604416012268424507e-01
2.048000000000000043e+01,1.751620333557021847e-01
2.051999999999999957e+01,2.022147891447209356e-01
2.055999999999999872e+01,1.277321678964724316e-01
2.060000000000000142e+01,2.544124821470872266e-01
2.064000000000000057e+01,1.429161803127843300e-01
2.067999999999999972e+01,1.841890447035468281e-01
2.071999999999999886e+01,1.030507954654444752e-01
2.076000000000000156e+01,2.116887203791102678e-01
2.080000000000000071e+01,2.320758470172646359e-01
2.083999999999999986e+01,1.604165875186846779e-01
2.087999999999999901e+01,1.267099049695967761e-01
2.092000000000000171e+01,1.821962679268795127e-01
2.096000000000000085e+01,2.908175726980074538e-01
2.100000000000000000e+01,1.631600765623022753e-01
2.103999999999999915e+01,1.398779930338953925e-01
2.107999999999999829e+01,2.551316352295628365e-01
2.112000000000000099e+01,2.403830059665274244e-01
2.116000000000000014e+01,1.924196549752663354e-01
2.119999999999999929e+01,1.283217399324558528e-01
2.123999999999999844e+01,1.648036585820232824e-01
2.128000000000000114e+01,2.430337666446437672e-01
2.132000000000000028e+01,1.836704342358417841e-01
2.135999999999999943e+01,1.537196278953948947e-01
2.139999999999999858e+01,8.580962562392775717e-02
2.144000000000000128e+01,1.962890652326208241e-01
2.148000000000000043e+01,1.587372005472449110e-01
2.151999999999999957e+01,1.335177154364278196e-01
2.155999999999999872e+01,7.033904334089510768e-02
2.160000000000000142e+01,1.181780978358756562e-01
2.164000000000000057e+01,2.533124430466941468e-01
2.167999999999999972e+01,1.967662090216224791e-01
2.171999999999999886e+01,1.440122880339416989e-01
2.176000000000000156e+01,1.908893322896760836e-01
2.180000000000000071e+01,1.533112242821013937e-01
2.183999999999999986e+01,9.105851028814281045e-02
2.187999999999999901e+01,1.996040825810806163e-01
2.192000000000000171e+01,1.430382197421853074e-01
2.196000000000000085e+01,1.424540472048860251e-01
2.200000000000000000e+01,1.105529949563580916e-01
2.203999999999999915e+01,1.004733266023781629e-01
2.207999999999999829e+01,1.900246413844226268e-01
2.212000000000000099e+01,1.021288643996639406e-01
2.216000000000000014e+01,2.144472126157843106e-01
2.219999999999999929e+01,1.094647775113532645e-01
2.223999999999999844e+01,1.866674191164021668e-01
2.228000000000000114e+01,1.841594229193037058e-01
2.232000000000000028e+01,7.916725056983296704e-02
2.235999999999999943e+01,8.803953987917033375e-02
2.239999999999999858e+01,1.785137772525905164e-01
2.244000000000000128e+01,1.579637674633163347e-01
2.248000000000000043e+01,1.412061132063765212e-01
2.251999999999999957e+01,1.813790780875477460e-01
2.255999999999999872e+01,1.551259861649037231e-01
2.260000000000000142e+01,1.506943094488719659e-01
2.264000000000000057e+01,1.756752303716288266e-01
2.267999999999999972e+01,1.209455358579980128e-01
2.271999999999999886e+01,2.246785067815098846e-01
2.276000000000000156e+01,1.310375737099852000e-01
2.280000000000000071e+01,1.939615154998546587e-01
2.283999999999999986e+01,1.126498191370404744e-01
2.287999999999999901e+01,1.499471011307719481e-01
2.292000000000000171e+01,9.709590833862299930e-02
2.296000000000000085e+01,1.628536983761713908e-01
2.300000000000000000e+01,1.204339651364406544e-01
2.303999999999999915e+01,2.250901449330608428e-01
2.307999999999999829e+01,1.314235411028016887e-01
2.312000000000000099e+01,2.057086003199465329e-01
2.316000000000000014e+01,1.556848872904654235e-01
2.319999999999999929e+01,1.777741918120873676e-01
2.323999999999999844e+01,2.330717176189393836e-01
2.328000000000000114e+01,1.441336298754428147e-01
2.332000000000000028e+01,1.747534426152793918e-01
2.335999999999999943e+01,1.693119640652217539e-01
2.339999999999999858e+01,1.031378608261455943e-01
2.344000000000000128e+01,7.966096529967946205e-02
2.348000000000000043e+01,1.520195410915991530e-01
2.351999999999999957e+01,2.129881701756294321e-01
2.355999999999999872e+01,2.018374132235452034e-01
2.360000000000000142e+01,1.622165585966239831e-01
2.364000000000000057e+01,9.792119862924088258e-02
2.367999999999999972e+01,1.370525013587245988e-01
2.371999999999999886e+01,2.169832324079498387e-01
2.376000000000000156e+01,1.185180658655389518e-01
2.380000000000000071e+01,1.652310598055234947e-01
2.383999999999999986e+01,1.360290932676259945e-01
2.387999999999999901e+01,1.618600268625245142e-01
2.392000000000000171e+01,2.702418910358452275e-01
2.396000000000000085e+01,1.765054306891600255e-01
2.400000000000000000e+01,1.833489583585999061e-01
2.403999999999999915e+01,1.085841515863374962e-01
2.407999999999999829e+01,8.980115365420147933e-02
2.412000000000000099e+01,1.307955568965673276e-01
2.416000000000000014e+01,1.850713848519610905e-01
2.419999999999999929e+01,5.430905714690532210e-02
2.423999999999999844e+01,2.385775714031335426e-01
2.428000000000000114e+01,2.055454186407640327e-01
2.432000000000000028e+01,1.715612366709758918e-01
2.435999999999999943e+01,2.144346247352464097e-01
2.439999999999999858e+01,1.975243415493496968e-01
2.444000000000000128e+01,1.151370042031621965e-01
2.448000000000000043e+01,1.665410950677608526e-01
2.451999999999999957e+01,1.629060090141719042e-01
2.455999999999999872e+01,1.659100873682203547e-01
2.460000000000000142e+01,1.689110496953322160e-01
2.464000000000000057e+01,1.690622056587336441e-01
2.467999999999999972e+01,1.644657624461010326e-01
2.471999999999999886e+01,1.427860544761601624e-01
2.476000000000000156e+01,1.808837834659379473e-01
2.480000000000000071e+01,1.658401462424588246e-01
2.483999999999999986e+01,2.086761554029501753e-01
2.487999999999999901e+01,1.822395449076870122e-01
2.492000000000000171e+01,1.728799917181961243e-01
2.496000000000000085e+01,9.424782334610154466e-02
2.500000000000000000e+01,1.076556211844830330e-01
2.503999999999999915e+01,1.153669424515648134e-01
2.507999999999999829e+01,1.287685596773224805e-01
2.512000000000000099e+01,1.601961429161824213e-01
2.516000000000000014e+01,9.198640137291946850e-02
2.519999999999999929e+01,2.031152094724130996e-01
2.523999999999999844e+01,8.270994136438383770e-02
2.528000000000000114e+01,1.653656654835139461e-01
2.532000000000000028e+01,1.170704554599741459e-01
2.535999999999999943e+01,1.437350763359941941e-01
2.539999999999999858e+01,6.696679575154715347e-02
2.544000000000000128e+01,2.293176222696635957e-01
2.548000000000000043e+01,1.914480043065646675e-01
2.551999999999999957e+01,1.345973712687769663e-01
2.555999999999999872e+01,7.869257340632859754e-02
2.560000000000000142e+01,1.186233654007956273e-01
2.564000000000000057e+01,7.409921984325260058e-02
2.567999999999999972e+01,1.216150785179774124e-01
2.571999999999999886e+01,9.890946698059374653e-02
2.576000000000000156e+01,1.388280408906794605e-01
2.580000000000000071e+01,9.049609609725928205e-02
2.583999999999999986e+01,1.759556555582117432e-01
2.587999999999999901e+01,1.371065948597092465e-01
2.592000000000000171e+01,1.428526755904303558e-01
2.596000000000000085e+01,1.723181544490503814e-01
2.600000000000000000e+01,9.645297034694406968e-02
2.603999999999999915e+01,1.002921427884397448e-01
2.607999999999999829e+01,9.084371661401288711e-02
2.612000000000000099e+01,1.146036727582890880e-01
2.616000000000000014e+01,1.412072926754445734e-01
2.619999999999999929e+01,8.335600635265341674e-02
2.623999999999999844e+01,1.592962466499962815e-01
2.628000000000000114e+01,1.526793802294444113e-01
2.632000000000000028e+01,1.460594939547263105e-01
2.635999999999999943e+01,1.403854875868672525e-01
2.639999999999999858e+01,6.354115150424247127e-02
2.644000000000000128e+01,1.356707136158315230e-01
2.648000000000000043e+01,9.677625445890608580e-02
2.651999999999999957e+01,1.432795638311951114e-01
2.655999999999999872e+01,2.125534073555745140e-01
2.660000000000000142e+01,4.554876309376505034e-02
2.664000000000000057e+01,0.000000000000000000e+00
2.667999999999999972e+01,8.919168565315392649e-02
2.671999999999999886e+01,9.392849414185006074e-02
2.676000000000000156e+01,9.581561480536571196e-02
2.680000000000000071e+01,1.242688731382280976e-01
2.683999999999999986e+01,6.257387586965992843e-02
2.687999999999999901e+01,1.859109073267430912e-01
2.692000000000000171e+01,1.223121401616465431e-01
2.696000000000000085e+01,1.431622686036517211e-01
2.700000000000000000e+01,1.194112315641320393e-01
2.703999999999999915e+01,7.288367434201380168e-02
2.707999999999999829e+01,8.044029865432433812e-02
2.712000000000000099e+01,7.850497259948797935e-02
2.716000000000000014e+01,1.306538325522328958e-01
2.719999999999999929e+01,1.590772837442339938e-01
2.723999999999999844e+01,1.893955615722162922e-01
2.728000000000000114e+01,1.162810430588056138e-01
2.732000000000000028e+01,1.247687477083303104e-01
2.735999999999999943e+01,1.209178228368146951e-01
2.739999999999999858e+01,9.618819296078540138e-02
2.744000000000000128e+01,1.179515845527689955e-01
2.748000000000000043e+01,1.852591023248914004e-01
2.751999999999999957e+01,1.244625015393757000e-01
2.755999999999999872e+01,1.965086036565530658e-01
2.760000000000000142e+01,1.328594114936447468e-01
2.764000000000000057e+01,9.767419901707896646e-02
2.767999999999999972e+01,1.402956397348323059e-01
2.771999999999999886e+01,1.686806760118305659e-01
2.776000000000000156e+01,1.088153031775482837e-01
2.780000000000000071e+01,1.248587951984132249e-01
2.783999999999999986e+01,1.655706879907010987e-01
2.787999999999999901e+01,1.047476130391359200e-01
2.792000000000000171e+01,1.157007258837025737e-01
2.796000000000000085e+01,1.297011729660606794e-01
2.800000000000000000e+01,1.184013568203411693e-01
2.803999999999999915e+01,1.210288706219991017e-01
2.807999999999999829e+01,1.393288046596204421e-01
2.812000000000000099e+01,1.169465168606982630e-01
2.816000000000000014e+01,8.901489187889193022e-02
2.819999999999999929e+01,1.027921270732334996e-01
2.823999999999999844e+01,1.192136510317025055e-01
2.828000000000000114e+01,1.243819298697088627e-01
2.832000000000000028e+01,1.083231625298988615e-01
2.835999999999999943e+01,1.139799846585501514e-01
2.839999999999999858e+01,1.190811803379324685e-01
2.844000000000000128e+01,6.875741187591520587e-02
2.848000000000000043e+01,1.194884702955404110e-01
2.851999999999999957e+01,7.677753318178731634e-02
2.855999999999999872e+01,1.144595133239051654e-01
2.860000000000000142e+01,1.179398950684340946e-01
2.864000000000000057e+01,1.188201185393662207e-01
2.867999999999999972e+01,1.002306229649693736e-01
2.871999999999999886e+01,1.187422666313802944e-01
2.876000000000000156e+01,1.186243716411102544e-01
2.880000000000000071e+01,1.245694178323863283e-01
2.883999999999999986e+01,8.485165806610420192e-02
2.887999999999999901e+01,9.635620996343829958e-02
2.892000000000000171e+01,1.146600479673501038e-01
2.896000000000000085e+01,1.060129421326849869e-01
2.900000000000000000e+01,1.202418246498739018e-01
2.903999999999999915e+01,1.168302569973264232e-01
2.907999999999999829e+01,1.126794891003363164e-01
2.912000000000000099e+01,1.164230893105724640e-01
2.916000000000000014e+01,1.122135619049816208e-01
2.919999999999999929e+01,9.564724190224564715e-02
2.923999999999999844e+01,1.177531772160535228e-01
2.928000000000000114e+01,9.938286201856347257e-02
2.932000000000000028e+01,1.337930256392489692e-01
2.935999999999999943e+01,1.261797002353874653e-01
2.939999999999999858e+01,9.858719365844721694e-02
2.944000000000000128e+01,1.118900984525580955e-01
2.948000000000000043e+01,8.698494558390806874e-02
2.951999999999999957e+01,1.108893710123138171e-01
2.955999999999999872e+01,1.338613490201730483e-01
2.960000000000000142e+01,1.123576101918686149e-01
2.964000000000000057e+01,1.242411382169200246e-01
2.967999999999999972e+01,1.286680172781314579e-01
2.971999999999999886e+01,1.115750110355522712e-01
2.976000000000000156e+01,1.065690217354476194e-01
2.980000000000000071e+01,2.568096285418372537e-02
2.983999999999999986e+01,6.909565664039576949e-02
2.987999999999999901e+01,1.703902786191594521e-01
2.992000000000000171e+01,1.350408385147972845e-01
2.996000000000000085e+01,1.063308647558380698e-01
3.000000000000000000e+01,1.857923946950084393e-01
3.003999999999999915e+01,1.684635652876821654e-01
3.007999999999999829e+01,1.141249228107858865e-01
3.012000000000000099e+01,9.109709126129647561e-02
3.016000000000000014e+01,2.821275854203944555e-02
3.019999999999999929e+01,6.021537536149224740e-02
3.023999999999999844e+01,5.520818805767923471e-02
3.028000000000000114e+01,1.583725201080285749e-01
3.032000000000000028e+01,5.087880553391167099e-02
3.035999999999999943e+01,1.122860563519097049e-01
3.039999999999999858e+01,7.595407042814564247e-02
3.044000000000000128e+01,7.093291332439662089e-02
3.048000000000000043e+01,1.332806932063392569e-01
3.051999999999999957e+01,8.745137028729767226e-02
3.055999999999999872e+01,1.431512997073005611e-01
3.060000000000000142e+01,1.020609010928708593e-01
3.064000000000000057e+01,5.337654397888618590e-02
3.067999999999999972e+01,1.470240394650246529e-01
3.071999999999999886e+01,9.643633740395796128e-02
3.076000000000000156e+01,1.416845137181161063e-01
3.080000000000000071e+01,9.773355337632225193e-02
3.083999999999999986e+01,1.239982427227544204e-01
3.087999999999999901e+01,1.730337077714881600e-01
3.092000000000000171e+01,1.660814562297484309e-01
3.096000000000000085e+01,6.708338440501071531e-02
3.100000000000000000e+01,1.218039533664044965e-01
3.103999999999999915e+01,1.803173564874037682e-01
3.107999999999999829e+01,1.477338435595833277e-01
3.112000000000000099e+01,1.179942717400701419e-01
3.116000000000000014e+01,1.167188764255909367e-01
3.119999999999999929e+01,9.930947620357122307e-02
3.123999999999999844e+01,1.008752817152372555e-01
3.128000000000000114e+01,9.769385708591502016e-02
3.132000000000000028e+01,7.268504911207991637e-02
3.135999999999999943e+01,3.344004022590828934e-02
3.139999999999999858e+01,5.579065824126486044e-03
3.144000000000000128e+01,8.304298306386209694e-02
3.148000000000000043e+01,1.282416531364391765e-01
3.151999999999999957e+01,4.059194068673201150e-02
3.155999999999999872e+01,1.208943632019709447e-01
3.160000000000000142e+01,1.148443863661287728e-01
3.164000000000000057e+01,1.401053054475829285e-01
3.167999999999999972e+01,1.406921687403586974e-01
3.171999999999999886e+01,1.156560809565820025e-01
3.176000000000000156e+01,1.456533339110804570e-01
3.180000000000000071e+01,9.590806643576190935e-03
3.183999999999999986e+01,5.422324067950025882e-03
3.187999999999999901e+01,6.103167656257710988e-02
3.192000000000000171e+01,8.275709995834620858e-02
3.196000000000000085e+01,5.463864650136233264e-02
3.200000000000000000e+01,6.385417858450820328e-02
3.203999999999999915e+01,2.695688345582109013e-02
3.207999999999999829e+01,1.105823459632749584e-01
3.211999999999999744e+01,9.218762947568173716e-02
3.215999999999999659e+01,1.243096536962994547e-01
3.220000000000000284e+01,8.141900961645910650e-02
3.224000000000000199e+01,1.309866326553326965e-01
3.228000000000000114e+01,1.036521416829649378e-01
3.232000000000000028e+01,9.341456365749625790e-02
3.235999999999999943e+01,1.129132270956357958e-01
3.239999999999999858e+01,1.069693714705308579e-01
3.243999999999999773e+01,1.118946039450127161e-01
3.247999999999999687e+01,1.096444581854032624e-01
3.252000000000000313e+01,1.374758030862964497e-01
3.256000000000000227e+01,1.061438570609069543e-01
3.260000000000000142e+01,1.027046793694438714e-01
3.264000000000000057e+01,1.088843162308046619e-01
3.267999999999999972e+01,1.289617177895595601e-01
3.271999999999999886e+01,9.344600405768588303e-02
3.275999999999999801e+01,1.325305147297279329e-01
3.279999999999999716e+01,1.052864375601081787e-01
3.284000000000000341e+01,1.045396438489516189e-01
3.288000000000000256e+01,1.006017084968587189e-01
3.292000000000000171e+01,1.214438122936619402e-01
3.296000000000000085e+01,1.080333395755161130e-01
3.300000000000000000e+01,1.180556479808527182e-01
3.303999999999999915e+01,1.163476530311260831e-01
3.307999999999999829e+01,8.786126725272533355e-02
3.311999999999999744e+01,1.151300543895191070e-01
3.315999999999999659e+01,1.206541766840474456e-01
3.320000000000000284e+01,1.010962225163539591e-01
3.324000000000000199e+01,1.004451083832372527e-01
3.328000000000000114e+01,1.151035444299506050e-01
3.332000000000000028e+01,1.344891102775453151e-01
3.335999999999999943e+01,1.329788568227862344e-01
3.339999999999999858e+01,1.362624378629322675e-01
3.343999999999999773e+01,1.059666413262496248e-01
3.347999999999999687e+01,1.226970001705980778e-01
3.352000000000000313e+01,1.098740513101190419e-01
3.356000000000000227e+01,1.243112357166928778e-01
3.360000000000000142e+01,1.151155532843504831e-01
3.364000000000000057e+01,9.445127123072627473e-02
3.367999999999999972e+01,1.228696406066183133e-01
3.371999999999999886e+01,9.182619232952288213e-02
3.375999999999999801e+01,1.437351950355156005e-01
3.379999999999999716e+01,1.479403574536225507e-01
3.384000000000000341e+01,1.085584299094924099e-01
3.388000000000000256e+01,1.156155603342833155e-01
3.392000000000000171e+01,1.171345292485234668e-01
3.396000000000000085e+01,1.469461318194182631e-01
3.400000000000000000e+01,1.037297668963636371e-01
3.403999999999999915e+01,8.707994446291765500e-02
3.407999999999999829e+01,7.991651131555611853e-02
3.411999999999999744e+01,1.562534765979553542e-01
3.415999999999999659e+01,1.737562138791901023e-01
3.420000000000000284e+01,9.826441451563587559e-02
3.424000000000000199e+01,7.970388960697058489e-02
3.428000000000000114e+01,1.142790512919702184e-01
3.432000000000000028e+01,1.061512518377596970e-01
3.435999999999999943e+01,1.151010375212656450e-01
3.439999999999999858e+01,1.382817180057142048e-01
3.443999999999999773e+01,1.149638539628804607e-01
3.447999999999999687e+01,1.068257867185915255e-01
3.452000000000000313e+01,7.686051505587257471e-02
3.456000000000000227e+01,8.105299515385060161e-02
3.460000000000000142e+01,1.374322822136518352e-01
3.464000000000000057e+01,9.702146713320036753e-02
3.467999999999999972e+01,6.230148478967360154e-02
3.471999999999999886e+01,1.860448388560997923e-01
3.475999999999999801e+01,1.731444014651006280e-01
3.479999999999999716e+01,1.507524431295540757e-01
3.484000000000000341e+01,7.616857748578562126e-02
3.488000000000000256e+01,1.078586933535232301e-01
3.492000000000000171e+01,1.499841429998920173e-01
3.496000000000000085e+01,2.120339039059677411e-01
3.500000000000000000e+01,1.507244521163747797e-01
3.503999999999999915e+01,1.653242700021916312e-01
3.507999999999999829e+01,1.656880949772434608e-01
3.511999999999999744e+01,7.495522979765506522e-02
3.515999999999999659e+01,2.337798879775571381e-01
3.520000000000000284e+01,1.677133095285191222e-01
3.524000000000000199e+01,1.538335738265206865e-01
3.528000000000000114e+01,1.532358846056877943e-01
3.532000000000000028e+01,1.991316574583466836e-01
3.535999999999999943e+01,1.823976793093218529e-01
3.539999999999999858e+01,2.339818107692915594e-01
3.543999999999999773e+01,1.631556516603784313e-01
3.547999999999999687e+01,9.232698487321065739e-02
3.552000000000000313e+01,2.179176002055172034e-01
3.556000000000000227e+01,2.524115499855196232e-01
3.560000000000000142e+01,1.673419107162939790e-01
3.564000000000000057e+01,1.686194474400689036e-01
3.567999999999999972e+01,1.879235406330194147e-01
3.571999999999999886e+01,1.835027014559213465e-01
3.575999999999999801e+01,2.009040133189509969e-01
3.579999999999999716e+01,1.518800086848334230e-01
3.584000000000000341e+01,2.660638907070479453e-01
3.588000000000000256e+01,2.568886092382660080e-01
3.592000000000000171e+01,1.888791981776651308e-01
3.596000000000000085e+01,2.565596522740739571e-01
3.600000000000000000e+01,2.179611050293149555e-01
3.603999999999999915e+01,2.040314170540659944e-01
3.607999999999999829e+01,1.777635871313530680e-01
3.611999999999999744e+01,3.203970446677042450e-01
3.615999999999999659e+01,2.903286830976907762e-01
3.620000000000000284e+01,1.881416422495904572e-01
3.624000000000000199e+01,2.709871534859325526e-01
3.628000000000000114e+01,2.817139899173394801e-01
3.632000000000000028e+01,2.971828532608388196e-01
3.635999999999999943e+01,2.946202051662059618e-01
3.639999999999999858e+01,2.522014048076663961e-01
3.643999999999999773e+01,2.885386449780484863e-01
3.647999999999999687e+01,2.926109175532760620e-01
3.652000000000000313e+01,2.947829455523258146e-01
3.656000000000000227e+01,3.320617346653247370e-01
3.660000000000000142e+01,3.446667430884971517e-01
3.664000000000000057e+01,2.974887646537691666e-01
3.667999999999999972e+01,2.987021193850184497e-01
3.671999999999999886e+01,3.217376788342202198e-01
3.675999999999999801e+01,3.684932402868507650e-01
3.679999999999999716e+01,3.013786649342341528e-01
3.684000000000000341e+01,3.386403856364495479e-01
3.688000000000000256e+01,3.037834650823706961e-01
3.692000000000000171e+01,3.457848168472254513e-01
3.696000000000000085e+01,2.995362739132873542e-01
3.700000000000000000e+01,3.633574211271856647e-01
3.703999999999999915e+01,3.816290667156937988e-01
3.707999999999999829e+01,4.141317569557391165e-01
3.711999999999999744e+01,3.460488936254454972e-01
3.715999999999999659e+01,4.250427328428427742e-01
3.720000000000000284e+01,3.673929170339532702e-01
3.724000000000000199e+01,4.103238295478557895e-01
3.728000000000000114e+01,3.915739959401743908e-01
3.732000000000000028e+01,3.936975030746361348e-01
3.735999999999999943e+01,3.758917596364667046e-01
3.739999999999999858e+01,3.618792059734924349e-01
3.743999999999999773e+01,4.702720348785406901e-01
3.747999999999999687e+01,4.771304328179848397e-01
3.752000000000000313e+01,4.688040767533516173e-01
3.756000000000000227e+01,5.449272089884689141e-01
3.760000000000000142e+01,5.432383550789601223e-01
3.764000000000000057e+01,5.035912132883020309e-01
3.767999999999999972e+01,5.151821531513720576e-01
3.771999999999999886e+01,5.334129932555954356e-01
3.775999999999999801e+01,5.924440467177485292e-01
3.779999999999999716e+01,6.068745385739067189e-01
3.784000000000000341e+01,6.516673754921963324e-01
3.788000000000000256e+01,6.214949344952426236e-01
3.792000000000000171e+01,7.611727791277246302e-01
3.796000000000000085e+01,7.243533152019635546e-01
3.800000000000000000e+01,6.970204597467380969e-01
3.803999999999999915e+01,7.939908154570762822e-01
3.807999999999999829e+01,6.594278129007986600e-01
3.811999999999999744e+01,6.947151071568370417e-01
3.815999999999999659e+01,8.694879796793670845e-01
3.820000000000000284e+01,8.421433239029597617e-01
3.824000000000000199e+01,9.258173251326962117e-01
3.828000000000000114e+01,1.000000000000000000e+00
3.832000000000000028e+01,9.195100295005953495e-01
3.835999999999999943e+01,7.963173237561598228e-01
3.839999999999999858e+01,9.008576794715238423e-01
3.843999999999999773e+01,9.180971207658583655e-01
3.847999999999999687e+01,8.556268300713395503e-01
3.852000000000000313e+01,8.064387670206453196e-01
3.856000000000000227e+01,8.255689902684515413e-01
3.860000000000000142e+01,7.896608238728332063e-01
3.864000000000000057e+01,8.438955913112186069e-01
3.867999999999999972e+01,7.984937899301806086e-01
3.871999999999999886e+01,8.688551600164479138e-01
3.875999999999999801e+01,7.608214712270935376e-01
3.879999999999999716e+01,8.254848098451974536e-01
3.884000000000000341e+01,7.601468678077816232e-01
3.888000000000000256e+01,7.450981769969254875e-01
3.892000000000000171e+01,7.594629941113034688e-01
3.896000000000000085e+01,7.159427491380911945e-01
3.900000000000000000e+01,6.847558611231657766e-01
3.903999999999999915e+01,6.412309966674022421e-01
3.907999999999999829e+01,6.850023980746287044e-01
3.911999999999999744e+01,6.395751280337182987e-01
3.915999999999999659e+01,5.609341427237980460e-01
3.920000000000000284e+01,6.028008433423460710e-01
3.924000000000000199e+01,5.810891123826359417e-01
3.928000000000000114e+01,5.299592629614438000e-01
3.932000000000000028e+01,5.300675868935971202e-01
3.935999999999999943e+01,5.216335423753210021e-01
3.939999999999999858e+01,5.397663400478424078e-01
3.943999999999999773e+01,5.085541801917353721e-01
3.947999999999999687e+01,4.498217081059273093e-01
3.952000000000000313e+01,4.280939576895942955e-01
3.956000000000000227e+01,4.149040054458122406e-01
3.960000000000000142e+01,3.988650833177573851e-01
3.964000000000000057e+01,3.742838083953052841e-01
3.967999999999999972e+01,3.734226987463324932e-01
3.971999999999999886e+01,4.361354526343156346e-01
3.975999999999999801e+01,3.954161079926284961e-01
3.979999999999999716e+01,4.543287372901497201e-01
3.984000000000000341e+01,3.974736047133024530e-01
3.988000000000000256e+01,3.406162104815644298e-01
3.992000000000000171e+01,4.128066201567135440e-01
3.996000000000000085e+01,3.521491192271219983e-01
4.000000000000000000e+01,3.417809321482185303e-01
4.003999999999999915e+01,3.902421388766290633e-01
4.007999999999999829e+01,3.589937030792278994e-01
4.011999999999999744e+01,3.865746655622930295e-01
4.015999999999999659e+01,3.534239404816986174e-01
4.020000000000000284e+01,3.658180528124224118e-01
4.024000000000000199e+01,3.468963053105891259e-01
4.028000000000000114e+01,3.412568838619255973e-01
4.032000000000000028e+01,2.805791689426070934e-01
4.035999999999999943e+01,3.337669221413115395e-01
4.039999999999999858e+01,3.224274110980127062e-01
4.043999999999999773e+01,3.490415706898882253e-01
4.047999999999999687e+01,3.272597284285629349e-01
4.052000000000000313e+01,2.940888900041631615e-01
4.056000000000000227e+01,3.501121952449661734e-01
4.060000000000000142e+01,2.789810108129454624e-01
4.064000000000000057e+01,2.676281512613293279e-01
4.067999999999999972e+01,2.733532302264433111e-01
4.071999999999999886e+01,2.914117623226135101e-01
4.075999999999999801e+01,2.458919478304145700e-01
4.079999999999999716e+01,3.085442409118754892e-01
4.084000000000000341e+01,2.791512661446189369e-01
4.088000000000000256e+01,2.535516757346725214e-01
4.092000000000000171e+01,2.440811397364621993e-01
4.096000000000000085e+01,2.421995826665143681e-01
4.100000000000000000e+01,3.152787309973560381e-01
4.103999999999999915e+01,3.039038028579604256e-01
4.107999999999999829e+01,2.631108569030045641e-01
4.111999999999999744e+01,3.058187007786163369e-01
4.115999999999999659e+01,3.314441991296698808e-01
4.120000000000000284e+01,3.143671210325916232e-01
4.124000000000000199e+01,3.409371434489080754e-01
4.128000000000000114e+01,2.906442830100438579e-01
4.132000000000000028e+01,3.437790715980777456e-01
4.135999999999999943e+01,3.456712149642333642e-01
4.139999999999999858e+01,3.769770049233375775e-01
4.143999999999999773e+01,3.428066912669657240e-01
4.147999999999999687e+01,3.484879014456450652e-01
4.152000000000000313e+01,2.811018322863998442e-01
4.156000000000000227e+01,2.696985493510082876e-01
4.160000000000000142e+01,3.285115177427964106e-01
4.164000000000000057e+01,2.933814679684875193e-01
4.167999999999999972e+01,2.933584655898603955e-01
4.171999999999999886e+01,3.180046400745401569e-01
4.175999999999999801e+01,2.895103966542020291e-01
4.179999999999999716e+01,2.885320271436734307e-01
4.184000000000000341e+01,3.340474842685303147e-01
4.188000000000000256e+01,3.083934772335468755e-01
4.192000000000000171e+01,2.685038597423002882e-01
4.196000000000000085e+01,3.026261038052177610e-01
4.200000000000000000e+01,3.395928973251247096e-01
4.203999999999999915e+01,3.879443202586465023e-01
4.207999999999999829e+01,3.537395199218084652e-01
4.211999999999999744e+01,3.688752544497381214e-01
4.215999999999999659e+01,3.432062612562605808e-01
4.220000000000000284e+01,3.706733974985026436e-01
4.224000000000000199e+01,3.478468352479896497e-01
4.228000000000000114e+01,3.582295588928984253e-01
4.232000000000000028e+01,3.648145672162541597e-01
4.235999999999999943e+01,3.590617847345832780e-01
4.239999999999999858e+01,4.083429379204127629e-01
4.243999999999999773e+01,3.712722978672662322e-01
4.247999999999999687e+01,4.186514212127222523e-01
4.252000000000000313e+01,3.625986003522547185e-01
4.256000000000000227e+01,3.957400349857918553e-01
4.260000000000000142e+01,3.415807878022070199e-01
4.264000000000000057e+01,3.737691080124294074e-01
4.267999999999999972e+01,4.031086305547333382e-01
4.271999999999999886e+01,4.039791245055442959e-01
4.275999999999999801e+01,4.276210584217394195e-01
4.279999999999999716e+01,3.962248375349937124e-01
4.284000000000000341e+01,4.464317076026848574e-01
4.288000000000000256e+01,4.026956288381366433e-01
4.292000000000000171e+01,5.022409845904279857e-01
4.296000000000000085e+01,5.059456009347322869e-01
4.300000000000000000e+01,5.409617483839265217e-01
4.303999999999999915e+01,5.190419594007361637e-01
4.307999999999999829e+01,5.009156777865376720e-01
4.311999999999999744e+01,5.311810894270582173e-01
4.315999999999999659e+01,5.405686772740222468e-01
4.320000000000000284e+01,5.063049029772058729e-01
4.324000000000000199e+01,5.830600652585372634e-01
4.328000000000000114e+01,5.848502515623895670e-01
4.332000000000000028e+01,6.056163190458906387e-01
4.335999999999999943e+01,6.624384253857164007e-01
4.339999999999999858e+01,5.693326580262403347e-01
4.343999999999999773e+01,5.796546582321919772e-01
4.347999999999999687e+01,5.728944426349957819e-01
4.352000000000000313e+01,5.224828827866273562e-01
4.356000000000000227e+01,4.986383977329638673e-01
4.360000000000000142e+01,4.453760357680301984e-01
4.364000000000000057e+01,4.756146045379544551e-01
4.367999999999999972e+01,4.327860147450599548e-01
4.371999999999999886e+01,4.440425369022251156e-01
4.375999999999999801e+01,4.866106326592249953e-01
4.379999999999999716e+01,4.855273998210847819e-01
4.384000000000000341e+01,4.123259148908803851e-01
4.388000000000000256e+01,3.467135721589888475e-01
4.392000000000000171e+01,3.788356386847376300e-01
4.396000000000000085e+01,4.792762934467518221e-01
4.400000000000000000e+01,4.032199773735046233e-01
4.403999999999999915e+01,3.897888688629748688e-01
4.407999999999999829e+01,3.773046310624881827e-01
4.411999999999999744e+01,3.657672662086204340e-01
4.415999999999999659e+01,3.950304725648482451e-01
4.420000000000000284e+01,3.777956801183463553e-01
4.424000000000000199e+01,3.804857178171915932e-01
4.428000000000000114e+01,3.471156339554096748e-01
4.432000000000000028e+01,3.184880243209267658e-01
4.435999999999999943e+01,3.572301277640200778e-01
4.439999999999999858e+01,3.627588089295639695e-01
4.443999999999999773e+01,3.587965081653850530e-01
4.447999999999999687e+01,3.216207895968085650e-01
4.452000000000000313e+01,4.087486445191135798e-01
4.456000000000000227e+01,3.279196376382712552e-01
4.460000000000000142e+01,3.211026399256110553e-01
4.464000000000000057e+01,3.560351377864092726e-01
4.467999999999999972e+01,3.359295859633399939e-01
4.471999999999999886e+01,2.996907851954298541e-01
4.475999999999999801e+01,2.738878684038553724e-01
4.479999999999999716e+01,2.774987883141928346e-01
4.484000000000000341e+01,2.260716674869671372e-01
4.488000000000000256e+01,2.761745996930061731e-01
4.492000000000000171e+01,2.750350857324346254e-01
4.496000000000000085e+01,2.625068238687283673e-01
4.500000000000000000e+01,2.850857950365139337e-01
4.503999999999999915e+01,3.152539732633177216e-01
4.507999999999999829e+01,2.182679123138135946e-01
4.511999999999999744e+01,2.579211262216808964e-01
4.515999999999999659e+01,2.302006494667431791e-01
4.520000000000000284e+01,2.793389080019784143e-01
4.524000000000000199e+01,2.165052966984100935e-01
4.528000000000000114e+01,2.684863261361672415e-01
4.532000000000000028e+01,2.625826491019234155e-01
4.535999999999999943e+01,2.111299356501052382e-01
4.539999999999999858e+01,1.833977073021390292e-01
4.543999999999999773e+01,1.936194291613518303e-01
4.547999999999999687e+01,2.379995133665191720e-01
4.552000000000000313e+01,2.055169517935655499e-01
4.556000000000000227e+01,1.663901634883678260e-01
4.560000000000000142e+01,1.813485922523034588e-01
4.564000000000000057e+01,1.716337457925967147e-01
4.567999999999999972e+01,2.074640431551249831e-01
4.571999999999999886e+01,2.138765821449130078e-01
4.575999999999999801e+01,1.652511318383867722e-01
4.579999999999999716e+01,2.086668107618742662e-01
4.584000000000000341e+01,1.657308865553490662e-01
4.588000000000000256e+01,1.341798064737381169e-01
4.592000000000000171e+01,1.538672687805189288e-01
4.596000000000000085e+01,1.280057282183650613e-01
4.600000000000000000e+01,1.552805295666551122e-01
4.603999999999999915e+01,1.521886929103627717e-01
4.607999999999999829e+01,1.861019447220160772e-01
4.611999999999999744e+01,1.554882521220390390e-01
4.615999999999999659e+01,1.561862673164590154e-01
4.620000000000000284e+01,1.559334767105517994e-01
4.624000000000000199e+01,1.737078330298934825e-01
4.628000000000000114e+01,1.051306108215590007e-01
4.632000000000000028e+01,1.618059602744770786e-01
4.635999999999999943e+01,1.871657920909716721e-01
4.639999999999999858e+01,1.347141298095678175e-01
4.643999999999999773e+01,1.173697810763936200e-01
4.647999999999999687e+01,1.123592075412245400e-01
4.652000000000000313e+01,1.234780015384369239e-01
4.656000000000000227e+01,1.279526247178058296e-01
4.660000000000000142e+01,8.118489566675757274e-02
4.664000000000000057e+01,8.565574926246903587e-02
4.667999999999999972e+01,1.518030605104664088e-01
4.671999999999999886e+01,1.467811782243242380e-01
4.675999999999999801e+01,1.370129313521190884e-01
4.679999999999999716e+01,1.044692691658768435e-01
4.684000000000000341e+01,1.392954587249249920e-01
4.688000000000000256e+01,1.048502587450374224e-01
4.692000000000000171e+01,1.036146041033918358e-01
4.696000000000000085e+01,1.128149564497636231e-01
4.700000000000000000e+01,1.447869858385794628e-01
4.703999999999999915e+01,1.046409420614135000e-01
4.707999999999999829e+01,8.536878475094322738e-02
4.711999999999999744e+01,1.600356255263963301e-01
4.715999999999999659e+01,8.192811026734435342e-02
4.720000000000000284e+01,1.281243183497683125e-01
4.724000000000000199e+01,1.287715951336909082e-01
4.728000000000000114e+01,5.255632454883817084e-02
4.732000000000000028e+01,1.262650171753393613e-01
4.735999999999999943e+01,1.212133718573170788e-01
4.739999999999999858e+01,1.133131927873487071e-01
4.743999999999999773e+01,1.462137683267107635e-01
4.747999999999999687e+01,7.283598442222717628e-02
4.752000000000000313e+01,1.047839912628269754e-01
4.756000000000000227e+01,8.454080202638403208e-02
4.760000000000000142e+01,1.297697119812758759e-01
4.764000000000000057e+01,1.019316847943768922e-01
4.767999999999999972e+01,1.120477330629142537e-01
4.771999999999999886e+01,7.471708182296335488e-02
4.775999999999999801e+01,1.151942065385011954e-01
4.779999999999999716e+01,7.975771048520256812e-02
4.784000000000000341e+01,8.701978645589476813e-02
4.788000000000000256e+01,8.668886789130277049e-02
4.792000000000000171e+01,1.138741654326534819e-01
4.796000000000000085e+01,7.178813382262158593e-02
4.800000000000000000e+01,1.340790222721355562e-01
4.803999999999999915e+01,1.233029959456188596e-01
4.807999999999999829e+01,4.325564717744757870e-02
4.811999999999999744e+01,9.794994596095066286e-02
4.815999999999999659e+01,8.621961934930122418e-02
4.820000000000000284e+01,6.499852104607617420e-02
4.824000000000000199e+01,6.180468149690195728e-02
4.828000000000000114e+01,9.371825837845479401e-02
4.832000000000000028e+01,9.906091483805989917e-02
4.835999999999999943e+01,8.447493578344331122e-02
4.839999999999999858e+01,1.220765353093821864e-01
4.843999999999999773e+01,1.321583235986513727e-01
4.847999999999999687e+01,9.669124992327680912e-02
4.852000000000000313e+01,8.589373332913534387e-02
4.856000000000000227e+01,1.007146735772530138e-01
4.860000000000000142e+01,8.137352886385497419e-02
4.864000000000000057e+01,1.018843083326186061e-01
4.867999999999999972e+01,1.110065478998187583e-01
4.871999999999999886e+01,1.466961507800323694e-01
4.875999999999999801e+01,1.444280875472346015e-01
4.879999999999999716e+01,1.117935406336012100e-01
4.884000000000000341e+01,8.295282315590908617e-02
4.888000000000000256e+01,1.214820714888849157e-01
4.892000000000000171e+01,9.358673692165304925e-02
4.896000000000000085e+01,1.273679874915413512e-01
4.900000000000000000e+01,1.203448927945241220e-01
4.903999999999999915e+01,7.726194268942769561e-02
4.907999999999999829e+01,8.162212156442905098e-02
4.911999999999999744e+01,1.125496861182043590e-01
4.915999999999999659e+01,1.121618895958784723e-01
4.920000000000000284e+01,1.203124302609281521e-01
4.924000000000000199e+01,7.057848363842841866e-02
4.928000000000000114e+01,1.347105038904076457e-01
4.932000000000000028e+01,1.172356032167394257e-01
4.935999999999999943e+01,9.026999571220035989e-02
4.939999999999999858e+01,8.702509696911733816e-02
4.943999999999999773e+01,9.990972902846607939e-02
4.947999999999999687e+01,9.476358324662220722e-02
4.952000000000000313e+01,1.123892554115125120e-01
4.956000000000000227e+01,1.119841542083622049e-01
4.960000000000000142e+01,1.115773348382975150e-01
4.964000000000000057e+01,1.396357252713952002e-01
4.967999999999999972e+01,1.003206777747795986e-01
4.971999999999999886e+01,1.207844628613288507e-01
4.975999999999999801e+01,1.213196907138174990e-01
4.979999999999999716e+01,1.360866744490223379e-01
4.984000000000000341e+01,1.062537697876184822e-01
4.988000000000000256e+01,1.238640388378332985e-01
4.992000000000000171e+01,9.782332148904156199e-02
4.996000000000000085e+01,1.676195560719714317e-01
5.000000000000000000e+01,1.206996993463953088e-01
5.003999999999999915e+01,7.377814905624154040e-02
5.007999999999999829e+01,1.426204054209876115e-01
5.011999999999999744e+01,1.289068880671566664e-01
5.015999999999999659e+01,1.000093234672759096e-01
5.020000000000000284e+01,1.517663638273722970e-01
5.024000000000000199e+01,1.076830718363198103e-01
5.028000000000000114e+01,1.433054917539467732e-01
5.032000000000000028e+01,1.219923822960272547e-01
5.035999999999999943e+01,1.614070387309390897e-01
5.039999999999999858e+01,1.021346791876558968e-01
5.043999999999999773e+01,1.633706340507069532e-01
5.047999999999999687e+01,1.486931179955153504e-01
5.052000000000000313e+01,1.169337797745582108e-01
5.056000000000000227e+01,1.345154483359122799e-01
5.060000000000000142e+01,1.748689952315533314e-01
5.064000000000000057e+01,1.459513628264059726e-01
5.067999999999999972e+01,1.151342775929972140e-01
5.071999999999999886e+01,1.042423848302537343e-01
5.075999999999999801e+01,8.860435113905089366e-02
5.079999999999999716e+01,1.384385955652655820e-01
5.084000000000000341e+01,1.237461594958224331e-01
5.088000000000000256e+01,1.564969530523987462e-01
5.092000000000000171e+01,1.209254804886688295e-01
5.096000000000000085e+01,1.821399132955115463e-01
5.100000000000000000e+01,1.048136676458989447e-01
5.103999999999999915e+01,1.014997912532104168e-01
5.107999999999999829e+01,1.019798695447213660e-01
5.111999999999999744e+01,1.119472899037071978e-01
5.115999999999999659e+01,1.494311075312947379e-01
5.120000000000000284e+01,7.873897866770779297e-02
5.124000000000000199e+01,1.095772584529753624e-01
5.128000000000000114e+01,1.204870659940720790e-01
5.132000000000000028e+01,1.019794282830735338e-01
5.135999999999999943e+01,8.441906833895644613e-02
5.139999999999999858e+01,1.304332250119973058e-01
5.143999999999999773e+01,1.679056886805715687e-01
5.147999999999999687e+01,1.266180447719542079e-01
5.152000000000000313e+01,1.194891009322725101e-01
5.156000000000000227e+01,1.019206757489523330e-01
5.160000000000000142e+01,1.147153650099201339e-01
5.164000000000000057e+01,1.322529377916013826e-01
5.167999999999999972e+01,4.541018101882066810e-02
5.171999999999999886e+01,4.871108944040720978e-02
5.175999999999999801e+01,1.222288172794861183e-01
5.179999999999999716e+01,9.800850494498131171e-02
5.184000000000000341e+01,8.896896008302077052e-02
5.188000000000000256e+01,1.207304180903300966e-01
5.192000000000000171e+01,3.198030204698360662e-02
5.196000000000000085e+01,1.311103096358116338e-01
5.200000000000000000e+01,9.834197735373585714e-02
5.203999999999999915e+01,1.063746568872343673e-01
5.207999999999999829e+01,1.248436296904829462e-01
5.211999999999999744e+01,6.075694060395642193e-02
5.215999999999999659e+01,8.301835121633299730e-02
5.220000000000000284e+01,1.071759840881376658e-01
5.224000000000000199e+01,1.218430711625463903e-01
5.228000000000000114e+01,1.583332329829853780e-01
5.232000000000000028e+01,6.577176539847860715e-02
5.235999999999999943e+01,9.087202700260577082e-02
5.239999999999999858e+01,6.378136315539065238e-02
5.243999999999999773e+01,8.982740130736015238e-02
5.247999999999999687e+01,6.178472343223932739e-02
5.252000000000000313e+01,9.921441984730583474e-02
5.256000000000000227e+01,8.255540470843381051e-02
5.260000000000000142e+01,9.246396983045050699e-02
5.264000000000000057e+01,1.052176793386819520e-01
5.267999999999999972e+01,1.255610230919536330e-01
5.271999999999999886e+01,7.283771374859077108e-02
5.275999999999999801e+01,9.792245993272161164e-02
5.279999999999999716e+01,1.286990520227213330e-01
5.284000000000000341e+01,3.611742892996370330e-02
5.288000000000000256e+01,1.228759031905791582e-01
5.292000000000000171e+01,1.128452974261900665e-01
5.296000000000000085e+01,1.037620588917235465e-01
5.300000000000000000e+01,9.277949725040571249e-02
5.303999999999999915e+01,8.084651226326285134e-02
5.307999999999999829e+01,8.883885170477098803e-02
5.311999999999999744e+01,1.129609277137061246e-01
5.315999999999999659e+01,8.109653066844343949e-02
5.320000000000000284e+01,7.390195238380996290e-02
5.324000000000000199e+01,1.103551455853819668e-01
5.328000000000000114e+01,1.173910031270847809e-01
5.332000000000000028e+01,1.215786579300946607e-01
5.335999999999999943e+01,8.211551867963660933e-02
5.339999999999999858e+01,1.233071633152388741e-01
5.343999999999999773e+01,1.312858911394760020e-01
5.347999999999999687e+01,1.278763474512739362e-01
5.352000000000000313e+01,9.125389142485841598e-02
5.356000000000000227e+01,7.171009409265675927e-02
5.360000000000000142e+01,7.398944531349445353e-02
5.364000000000000057e+01,9.429635722614772286e-02
5.367999999999999972e+01,1.440176023605927724e-01
5.371999999999999886e+01,8.176745181035370569e-02
5.375999999999999801e+01,9.447872012865909941e-02
5.379999999999999716e+01,1.081374026449837961e-01
5.384000000000000341e+01,1.255901941692542934e-01
5.388000000000000256e+01,1.041367083377955638e-01
5.392000000000000171e+01,5.136812758278388319e-02
5.396000000000000085e+01,1.048745951860473868e-01
5.400000000000000000e+01,1.308615624367099883e-01
5.403999999999999915e+01,1.369202117669480745e-01
5.407999999999999829e+01,9.743031225318697641e-02
5.411999999999999744e+01,1.200362202941231554e-01
5.415999999999999659e+01,1.234558547234998055e-01
5.420000000000000284e+01,8.914813954716359345e-02
5.424000000000000199e+01,9.867042936044985446e-02
5.428000000000000114e+01,1.272622848984858723e-01
5.432000000000000028e+01,1.212906814473400097e-01
5.435999999999999943e+01,1.043329584789565168e-01
5.439999999999999858e+01,9.418637561521728263e-02
5.443999999999999773e+01,1.285491160385285048e-01
5.447999999999999687e+01,1.368032980165436729e-01
5.452000000000000313e+01,1.105412711262085679e-01
5.456000000000000227e+01,1.336075395222806050e-01
5.460000000000000142e+01,1.427676388829973442e-01
5.464000000000000057e+01,1.391065163532339277e-01
5.467999999999999972e+01,1.336682797382994781e-01
5.471999999999999886e+01,1.234909979437785188e-01
5.475999999999999801e+01,1.321646069609146157e-01
5.479999999999999716e+01,1.193545176065960584e-01
5.484000000000000341e+01,1.326768347304120022e-01
5.488000000000000256e+01,1.296694563569625036e-01
5.492000000000000171e+01,1.365385828401983193e-01
5.496000000000000085e+01,1.456049132594685047e-01
5.500000000000000000e+01,1.401176109020466631e-01
5.503999999999999915e+01,1.229709243987504724e-01
5.507999999999999829e+01,1.215849600382919171e-01
5.511999999999999744e+01,1.226223733377208303e-01
5.515999999999999659e+01,1.225742481308705334e-01
5.520000000000000284e+01,1.208608348737858496e-01
5.524000000000000199e+01,1.517484104258736699e-01
5.528000000000000114e+01,1.446954947386427937e-01
5.532000000000000028e+01,1.254119538868812000e-01
5.535999999999999943e+01,1.319536111807206591e-01
5.539999999999999858e+01,1.567075712990375069e-01
5.543999999999999773e+01,1.133158210719604347e-01
5.547999999999999687e+01,1.354816054525724567e-01
5.552000000000000313e+01,1.518682533598085249e-01
5.556000000000000227e+01,1.329644631087822104e-01
5.560000000000000142e+01,1.258271550374685244e-01
5.564000000000000057e+01,1.443921158555545037e-01
5.567999999999999972e+01,1.544928990372741173e-01
5.571999999999999886e+01,1.295827975625609696e-01
5.575999999999999801e+01,1.436131867237282200e-01
5.579999999999999716e+01,1.421356829929423804e-01
5.584000000000000341e+01,1.233322528844761901e-01
5.588000000000000256e+01,1.301083638879429183e-01
5.592000000000000171e+01,1.321647276455853448e-01
5.596000000000000085e+01,1.379741122128987085e-01
5.600000000000000000e+01,1.375056021146001117e-01
5.603999999999999915e+01,1.395134394956605572e-01
5.607999999999999829e+01,1.269397454968818895e-01
5.611999999999999744e+01,1.371107147525820746e-01
5.615999999999999659e+01,1.415733867655655231e-01
5.620000000000000284e+01,1.464805965436810908e-01
5.624000000000000199e+01,1.400717111881415733e-01
5.628000000000000114e+01,1.327322808986023117e-01
5.632000000000000028e+01,1.280506295381209636e-01
5.635999999999999943e+01,1.392801921520436526e-01
5.639999999999999858e+01,1.252332475429769887e-01
5.643999999999999773e+01,1.362055097872153231e-01
5.647999999999999687e+01,1.406122033924953607e-01
5.652000000000000313e+01,1.377882942765719376e-01
5.656000000000000227e+01,1.353898218354216976e-01
5.660000000000000142e+01,1.246560628944486659e-01
5.664000000000000057e+01,1.367976819269773880e-01
5.667999999999999972e+01,1.440535835593510783e-01
5.671999999999999886e+01,1.354885821680827662e-01
5.675999999999999801e+01,1.343790116382213018e-01
5.679999999999999716e+01,1.397569161378667546e-01
5.684000000000000341e+01,1.417203675608812996e-01
5.688000000000000256e+01,1.429376810824103949e-01
5.692000000000000171e+01,1.313834208014773297e-01
5.696000000000000085e+01,1.339114537928489390e-01
5.700000000000000000e+01,1.390894396704119018e-01
5.703999999999999915e+01,1.436646788409892406e-01
5.707999999999999829e+01,1.463382018721167688e-01
5.711999999999999744e+01,1.331296767957978466e-01
5.715999999999999659e+01,1.429728171389963165e-01
5.720000000000000284e+01,1.458139036013123280e-01
5.724000000000000199e+01,1.389834020698683115e-01
5.728000000000000114e+01,1.356727429636123694e-01
5.732000000000000028e+01,1.307119503002196759e-01
5.735999999999999943e+01,1.441917375987056826e-01
5.739999999999999858e+01,1.370554655759820828e-01
5.743999999999999773e+01,1.466756029528294425e-01
5.747999999999999687e+01,1.488488133285827963e-01
5.752000000000000313e+01,1.283519028851722865e-01
5.756000000000000227e+01,1.407965165725688916e-01
5.760000000000000142e+01,1.837403051226618178e-01
5.764000000000000057e+01,1.393842528082222254e-01
5.767999999999999972e+01,1.253916548976280465e-01
5.771999999999999886e+01,1.370180260052049626e-01
5.775999999999999801e+01,1.097383367049281355e-01
5.779999999999999716e+01,1.042820307981749822e-01
5.784000000000000341e+01,1.633494991217714354e-01
5.788000000000000256e+01,1.237303697068914965e-01
5.792000000000000171e+01,1.685618670089641113e-01
5.796000000000000085e+01,1.536115695481626020e-01
5.800000000000000000e+01,1.367622285525144088e-01
5.803999999999999915e+01,1.588164398099458086e-01
5.807999999999999829e+01,1.343734283565321541e-01
5.811999999999999744e+01,1.289071256158997869e-01
5.815999999999999659e+01,1.594976892647251010e-01
5.820000000000000284e+01,1.454888319613333314e-01
5.824000000000000199e+01,1.589967678005011209e-01
5.828000000000000114e+01,1.611167005163540999e-01
5.832000000000000028e+01,1.660820952122186722e-01
5.835999999999999943e+01,1.416304382933701866e-01
5.839999999999999858e+01,2.158628977971366325e-01
5.843999999999999773e+01,1.847665082033409234e-01
5.847999999999999687e+01,1.878292078427115930e-01
5.852000000000000313e+01,1.671682499603732719e-01
5.856000000000000227e+01,1.351193046107524165e-01
5.860000000000000142e+01,1.837254339020768512e-01
5.864000000000000057e+01,1.564185485366693384e-01
5.867999999999999972e+01,1.528328908183580748e-01
5.871999999999999886e+01,1.985886961438694531e-01
5.875999999999999801e+01,1.409134653133269355e-01
5.879999999999999716e+01,1.496598574398593506e-01
5.884000000000000341e+01,2.086966168443922798e-01
5.888000000000000256e+01,1.652512443270498788e-01
5.892000000000000171e+01,1.692495509875097393e-01
5.896000000000000085e+01,2.036113836222481766e-01
5.900000000000000000e+01,1.743958895472899340e-01
5.903999999999999915e+01,1.679527457241618837e-01
5.907999999999999829e+01,1.985154172561902630e-01
5.911999999999999744e+01,1.617051786904502575e-01
5.915999999999999659e+01,1.685430426241688318e-01
5.920000000000000284e+01,1.526061845824211449e-01
5.924000000000000199e+01,1.964486914289348407e-01
5.928000000000000114e+01,1.862028624662835918e-01
5.932000000000000028e+01,1.750069613002447622e-01
5.935999999999999943e+01,1.884812233275448001e-01
5.939999999999999858e+01,2.275745483092096733e-01
5.943999999999999773e+01,1.632368751566131704e-01
5.947999999999999687e+01,1.586785803117340965e-01
5.952000000000000313e+01,1.977684080954982826e-01
5.956000000000000227e+01,1.647408627615796761e-01
5.960000000000000142e+01,1.649235717605062601e-01
5.964000000000000057e+01,2.106522051467041856e-01
5.967999999999999972e+01,1.586432389647970953e-01
5.971999999999999886e+01,1.569246892655632719e-01
5.975999999999999801e+01,1.447671167207781606e-01
5.979999999999999716e+01,2.018779156208190539e-01
5.984000000000000341e+01,2.086960001215596439e-01
5.988000000000000256e+01,1.785059378018766796e-01
5.992000000000000171e+01,1.929129180010472622e-01
5.996000000000000085e+01,1.636694731817957826e-01
