5.0400,0.032
5.0800,0.168
5.1200,0.066
5.1600,-0.075
5.2000,0.085
5.2400,0.222
5.2800,-0.104
5.3200,-0.117
5.3600,0.092
5.4000,-0.008
5.4400,0.043
5.4800,0.012
5.5200,-0.021
5.5600,0.055
5.6000,0.040
5.6400,-0.016
5.6800,-0.076
5.7200,-0.020
5.7600,0.074
5.8000,0.215
5.8400,-0.014
5.8800,-0.129
5.9200,0.089
5.9600,-0.037
6.0000,0.028
6.0400,0.065
6.0800,-0.145
6.1200,-0.104
6.1600,-0.023
6.2000,-0.043
6.2400,0.124
6.2800,0.007
6.3200,-0.077
6.3600,0.022
6.4000,0.065
6.4400,-0.003
6.4800,0.071
6.5200,-0.153
6.5600,-0.074
6.6000,0.097
6.6400,0.051
6.6800,0.063
6.7200,-0.042
6.7600,0.071
6.8000,0.142
6.8400,0.081
6.8800,-0.073
6.9200,-0.098
6.9600,0.045
7.0000,-0.093
7.0400,-0.102
7.0800,-0.062
7.1200,0.021
7.1600,0.158
7.2000,-0.168
7.2400,-0.026
7.2800,-0.035
7.3200,0.007
7.3600,-0.006
7.4000,-0.006
7.4400,0.047
7.4800,0.156
7.5200,0.043
7.5600,-0.043
7.6000,0.019
7.6400,0.160
7.6800,0.013
7.7200,-0.003
7.7600,0.368
7.8000,0.166
7.8400,-0.044
7.8800,-0.115
7.9200,0.037
7.9600,0.029
8.0000,0.002
8.0400,0.053
8.0800,-0.048
8.1200,-0.093
8.1600,0.055
8.2000,-0.026
8.2400,0.096
8.2800,0.109
8.3200,0.039
8.3600,0.151
8.4000,-0.027
8.4400,0.071
8.4800,0.056
8.5200,0.029
8.5600,0.204
8.6000,0.123
8.6400,-0.049
8.6800,0.134
8.7200,-0.026
8.7600,-0.095
8.8000,-0.065
8.8400,-0.001
8.8800,0.016
8.9200,0.139
8.9600,0.148
9.0000,-0.027
9.0400,-0.164
9.0800,0.024
9.1200,0.248
9.1600,-0.008
9.2000,0.010
9.2400,-0.084
9.2800,-0.097
9.3200,-0.032
9.3600,0.248
9.4000,0.083
9.4400,-0.115
9.4800,0.035
9.5200,0.025
9.5600,0.094
9.6000,-0.003
9.6400,-0.037
9.6800,-0.082
9.7200,0.111
9.7600,-0.048
9.8000,0.069
9.8400,-0.106
9.8800,0.207
9.9200,0.018
9.9600,0.132
10.0000,-0.009
10.0400,0.057
10.0800,-0.011
10.1200,0.081
10.1600,-0.083
10.2000,-0.095
10.2400,-0.018
10.2800,0.085
10.3200,-0.059
10.3600,0.014
10.4000,0.060
10.4400,-0.061
10.4800,-0.022
10.5200,0.075
10.5600,0.069
10.6000,0.129
10.6400,-0.017
10.6800,-0.030
10.7200,0.116
10.7600,0.135
10.8000,0.073
10.8400,0.039
10.8800,-0.014
10.9200,-0.155
10.9600,0.015
11.0000,-0.102
11.0400,0.001
11.0800,0.131
11.1200,-0.087
11.1600,0.018
11.2000,-0.157
11.2400,0.007
11.2800,0.015
11.3200,0.034
11.3600,0.000
11.4000,-0.023
11.4400,0.120
11.4800,-0.089
11.5200,-0.069
11.5600,0.106
11.6000,0.024
11.6400,0.089
11.6800,-0.042
11.7200,-0.091
11.7600,-0.054
11.8000,0.110
11.8400,0.021
11.8800,0.131
11.9200,0.187
11.9600,0.067
12.0000,0.146
12.0400,0.045
12.0800,0.027
12.1200,-0.098
12.1600,-0.030
12.2000,0.107
12.2400,-0.092
12.2800,-0.091
12.3200,-0.132
12.3600,0.106
12.4000,0.141
12.4400,0.084
12.4800,0.160
12.5200,0.135
12.5600,0.041
12.6000,0.079
12.6400,-0.090
12.6800,-0.111
12.7200,0.181
12.7600,0.055
12.8000,0.077
12.8400,0.031
12.8800,0.069
12.9200,-0.002
12.9600,-0.032
13.0000,-0.030
13.0400,-0.006
13.0800,0.075
13.1200,-0.013
13.1600,0.005
13.2000,0.029
13.2400,-0.053
13.2800,-0.025
13.3200,-0.055
13.3600,0.015
13.4000,0.117
13.4400,0.203
13.4800,-0.082
13.5200,-0.078
13.5600,-0.058
13.6000,-0.041
13.6400,-0.126
13.6800,0.035
13.7200,-0.029
13.7600,0.237
13.8000,0.098
13.8400,0.014
13.8800,-0.027
13.9200,-0.004
13.9600,0.129
14.0000,-0.065
14.0400,0.025
14.0800,0.090
14.1200,0.037
14.1600,0.034
14.2000,-0.095
14.2400,0.069
14.2800,0.014
14.3200,0.036
14.3600,0.144
14.4000,-0.012
14.4400,-0.158
14.4800,0.008
14.5200,0.149
14.5600,0.050
14.6000,-0.059
14.6400,-0.003
14.6800,-0.009
14.7200,-0.029
14.7600,-0.032
14.8000,-0.017
14.8400,-0.099
14.8800,0.156
14.9200,0.079
14.9600,0.019
15.0000,-0.087
15.0400,-0.063
15.0800,0.088
15.1200,0.249
15.1600,0.009
15.2000,-0.048
15.2400,-0.014
15.2800,-0.054
15.3200,0.021
15.3600,-0.021
15.4000,-0.051
15.4400,-0.144
15.4800,0.049
15.5200,-0.068
15.5600,0.064
15.6000,-0.108
15.6400,-0.049
15.6800,0.137
15.7200,-0.128
15.7600,0.059
15.8000,0.141
15.8400,-0.061
15.8800,-0.086
15.9200,0.037
15.9600,0.075
16.0000,0.026
16.0400,-0.137
16.0800,0.008
16.1200,-0.027
16.1600,0.017
16.2000,-0.082
16.2400,-0.085
16.2800,-0.066
16.3200,0.173
16.3600,0.076
16.4000,-0.082
16.4400,0.038
16.4800,0.071
16.5200,0.147
16.5600,0.058
16.6000,-0.012
16.6400,-0.011
16.6800,-0.106
16.7200,0.171
16.7600,0.254
16.8000,-0.106
16.8400,-0.084
16.8800,0.005
16.9200,-0.033
16.9600,-0.084
17.0000,-0.035
17.0400,-0.012
17.0800,-0.023
17.1200,-0.007
17.1600,-0.019
17.2000,-0.009
17.2400,0.022
17.2800,0.195
17.3200,-0.033
17.3600,-0.048
17.4000,0.066
17.4400,-0.191
17.4800,-0.053
17.5200,-0.061
17.5600,-0.022
17.6000,0.082
17.6400,0.061
17.6800,0.015
17.7200,0.034
17.7600,0.066
17.8000,0.014
17.8400,0.015
17.8800,0.122
17.9200,-0.118
17.9600,-0.083
18.0000,-0.057
18.0400,0.104
18.0800,-0.014
18.1200,0.062
18.1600,-0.062
18.2000,-0.025
18.2400,-0.053
18.2800,-0.055
18.3200,-0.051
18.3600,0.024
18.4000,-0.168
18.4400,0.164
18.4800,-0.079
18.5200,-0.083
18.5600,0.022
18.6000,0.034
18.6400,0.024
18.6800,-0.015
18.7200,-0.092
18.7600,0.017
18.8000,0.074
18.8400,-0.051
18.8800,0.021
18.9200,-0.162
18.9600,0.065
19.0000,-0.057
19.0400,-0.002
19.0800,-0.027
19.1200,-0.027
19.1600,-0.015
19.2000,-0.027
19.2400,-0.041
19.2800,0.040
19.3200,0.000
19.3600,-0.018
19.4000,-0.092
19.4400,0.081
19.4800,0.035
19.5200,0.130
19.5600,-0.159
19.6000,-0.081
19.6400,0.104
19.6800,0.040
19.7200,0.031
19.7600,0.027
19.8000,0.202
19.8400,-0.185
19.8800,-0.022
19.9200,-0.138
19.9600,0.022
20.0000,0.029
20.0400,0.082
20.0800,0.114
20.1200,0.038
20.1600,0.055
20.2000,0.039
20.2400,-0.151
20.2800,-0.012
20.3200,0.053
20.3600,0.047
20.4000,0.021
20.4400,0.038
20.4800,-0.013
20.5200,0.030
20.5600,-0.011
20.6000,-0.014
20.6400,0.086
20.6800,0.082
20.7200,0.105
20.7600,-0.010
20.8000,-0.068
20.8400,-0.026
20.8800,-0.006
20.9200,0.026
20.9600,-0.023
21.0000,-0.055
21.0400,-0.022
21.0800,0.116
21.1200,0.007
21.1600,-0.033
21.2000,-0.087
21.2400,0.021
21.2800,0.000
21.3200,0.000
21.3600,-0.002
21.4000,0.024
21.4400,0.090
21.4800,0.146
21.5200,-0.053
21.5600,0.035
21.6000,0.060
21.6400,0.035
21.6800,-0.004
21.7200,-0.051
21.7600,-0.078
21.8000,-0.008
21.8400,0.111
21.8800,0.023
21.9200,0.016
21.9600,-0.024
22.0000,0.034
22.0400,0.025
22.0800,-0.135
22.1200,-0.024
22.1600,0.063
22.2000,-0.055
22.2400,0.021
22.2800,-0.030
22.3200,0.032
22.3600,0.023
22.4000,0.068
22.4400,0.024
22.4800,0.161
22.5200,0.003
22.5600,-0.044
22.6000,-0.017
22.6400,-0.078
22.6800,-0.049
22.7200,-0.005
22.7600,-0.074
22.8000,-0.039
22.8400,-0.041
22.8800,0.069
22.9200,-0.033
22.9600,-0.077
23.0000,-0.013
23.0400,-0.019
23.0800,-0.013
23.1200,0.018
23.1600,-0.046
23.2000,-0.023
23.2400,0.068
23.2800,0.035
23.3200,-0.038
23.3600,-0.073
23.4000,-0.021
23.4400,-0.068
23.4800,-0.005
23.5200,-0.010
23.5600,-0.037
23.6000,0.062
23.6400,0.070
23.6800,0.008
23.7200,-0.045
23.7600,-0.019
23.8000,0.051
23.8400,-0.131
23.8800,-0.052
23.9200,0.026
23.9600,-0.047
24.0000,0.029
24.0400,-0.012
24.0800,-0.073
24.1200,-0.042
24.1600,-0.076
24.2000,0.021
24.2400,0.158
24.2800,0.067
24.3200,-0.012
24.3600,-0.014
24.4000,-0.075
24.4400,0.024
24.4800,-0.136
24.5200,0.021
24.5600,-0.129
24.6000,0.055
24.6400,0.143
24.6800,-0.103
24.7200,-0.004
24.7600,-0.051
24.8000,-0.049
24.8400,0.128
24.8800,-0.053
24.9200,-0.091
24.9600,0.070
25.0000,-0.006
25.0400,-0.075
25.0800,-0.002
25.1200,0.079
25.1600,-0.024
25.2000,-0.003
25.2400,-0.005
25.2800,0.000
25.3200,0.066
25.3600,-0.009
25.4000,-0.041
25.4400,-0.075
25.4800,-0.074
25.5200,-0.006
25.5600,0.024
25.6000,-0.007
25.6400,0.064
25.6800,-0.004
25.7200,0.008
25.7600,-0.045
25.8000,0.039
25.8400,0.098
25.8800,0.002
25.9200,0.082
25.9600,-0.009
26.0000,0.192
26.0400,-0.083
26.0800,0.166
26.1200,0.071
26.1600,0.297
26.2000,0.077
26.2400,-0.018
26.2800,0.089
26.3200,0.209
26.3600,0.165
26.4000,-0.002
26.4400,0.035
26.4800,0.044
26.5200,-0.101
26.5600,0.132
26.6000,0.172
26.6400,0.082
26.6800,-0.056
26.7200,0.055
26.7600,0.101
26.8000,0.093
26.8400,-0.109
26.8800,-0.102
26.9200,0.111
26.9600,0.051
27.0000,0.052
27.0400,0.044
27.0800,-0.046
27.1200,0.058
27.1600,0.011
27.2000,0.054
27.2400,0.015
27.2800,-0.073
27.3200,0.059
27.3600,0.037
27.4000,-0.070
27.4400,-0.059
27.4800,0.027
27.5200,0.023
27.5600,0.009
27.6000,-0.095
27.6400,-0.010
27.6800,0.005
27.7200,0.004
27.7600,0.160
27.8000,-0.153
27.8400,0.057
27.8800,-0.024
27.9200,0.026
27.9600,0.008
28.0000,0.093
28.0400,0.070
28.0800,-0.076
28.1200,0.046
28.1600,0.020
28.2000,-0.031
28.2400,0.064
28.2800,0.083
28.3200,-0.013
28.3600,0.032
28.4000,-0.016
28.4400,-0.092
28.4800,0.010
28.5200,0.046
28.5600,0.144
28.6000,-0.161
28.6400,0.169
28.6800,0.009
28.7200,-0.003
28.7600,0.058
28.8000,0.032
28.8400,0.059
28.8800,-0.047
28.9200,0.059
28.9600,0.006
29.0000,-0.005
29.0400,-0.040
29.0800,-0.069
29.1200,-0.083
29.1600,0.111
29.2000,-0.003
29.2400,-0.045
29.2800,0.053
29.3200,-0.016
29.3600,0.039
29.4000,-0.026
29.4400,0.011
29.4800,-0.048
29.5200,0.041
29.5600,-0.017
29.6000,-0.068
29.6400,-0.040
29.6800,0.078
29.7200,0.033
29.7600,0.035
29.8000,0.025
29.8400,-0.035
29.8800,0.028
29.9200,0.047
29.9600,-0.005
30.0000,-0.036
30.0400,-0.095
30.0800,0.032
30.1200,-0.040
30.1600,-0.017
30.2000,0.115
30.2400,0.044
30.2800,0.051
30.3200,-0.012
30.3600,0.111
30.4000,0.019
30.4400,-0.125
30.4800,-0.009
30.5200,-0.066
30.5600,-0.016
30.6000,-0.043
30.6400,0.134
30.6800,-0.009
30.7200,0.072
30.7600,-0.027
30.8000,-0.066
30.8400,0.001
30.8800,0.004
30.9200,0.095
30.9600,-0.033
31.0000,-0.062
31.0400,-0.002
31.0800,0.035
31.1200,-0.023
31.1600,0.011
31.2000,0.087
31.2400,-0.182
31.2800,-0.056
31.3200,-0.051
31.3600,-0.065
31.4000,-0.053
31.4400,0.013
31.4800,-0.105
31.5200,0.028
31.5600,0.004
31.6000,-0.038
31.6400,-0.046
31.6800,0.017
31.7200,-0.028
31.7600,0.043
31.8000,0.005
31.8400,0.001
31.8800,-0.089
31.9200,0.148
31.9600,0.007
32.0000,-0.160
32.0400,-0.012
32.0800,0.056
32.1200,0.083
32.1600,0.059
32.2000,-0.005
32.2400,-0.074
32.2800,0.007
32.3200,0.021
32.3600,-0.015
32.4000,-0.008
32.4400,0.106
32.4800,-0.137
32.5200,-0.040
32.5600,-0.004
32.6000,-0.004
32.6400,0.021
32.6800,-0.084
32.7200,-0.020
32.7600,0.046
32.8000,0.006
32.8400,0.002
32.8800,0.038
32.9200,0.029
32.9600,-0.069
33.0000,-0.031
33.0400,-0.025
33.0800,-0.096
33.1200,0.057
33.1600,-0.012
33.2000,-0.057
33.2400,-0.014
33.2800,0.020
33.3200,0.080
33.3600,-0.057
33.4000,-0.062
33.4400,0.045
33.4800,-0.014
33.5200,-0.020
33.5600,0.000
33.6000,0.030
33.6400,-0.049
33.6800,-0.037
33.7200,0.023
33.7600,0.074
33.8000,-0.001
33.8400,-0.058
33.8800,0.060
33.9200,-0.007
33.9600,-0.029
34.0000,0.077
34.0400,-0.015
34.0800,0.055
34.1200,-0.003
34.1600,-0.083
34.2000,0.115
34.2400,0.150
34.2800,0.025
34.3200,-0.046
34.3600,-0.060
34.4000,-0.031
34.4400,0.056
34.4800,0.038
34.5200,0.078
34.5600,-0.043
34.6000,-0.005
34.6400,0.002
34.6800,0.087
34.7200,0.054
34.7600,-0.015
34.8000,0.053
34.8400,-0.002
34.8800,-0.050
34.9200,0.069
34.9600,-0.062
35.0000,-0.020
35.0400,-0.059
35.0800,0.012
35.1200,-0.003
35.1600,0.011
35.2000,-0.035
35.2400,0.002
35.2800,-0.087
35.3200,0.014
35.3600,0.051
35.4000,0.024
35.4400,-0.016
35.4800,0.007
35.5200,-0.038
35.5600,0.132
35.6000,-0.076
35.6400,0.027
35.6800,-0.156
35.7200,-0.024
35.7600,0.017
35.8000,0.043
35.8400,0.005
35.8800,0.006
35.9200,0.073
35.9600,0.048
36.0000,0.014
36.0400,0.081
36.0800,0.155
36.1200,-0.013
36.1600,-0.059
36.2000,0.011
36.2400,0.045
36.2800,-0.073
36.3200,0.000
36.3600,-0.020
36.4000,0.056
36.4400,0.007
36.4800,-0.087
36.5200,-0.011
36.5600,-0.039
36.6000,0.089
36.6400,0.044
36.6800,0.056
36.7200,0.071
36.7600,0.210
36.8000,0.135
36.8400,-0.037
36.8800,0.020
36.9200,0.098
36.9600,0.050
37.0000,-0.023
37.0400,0.076
37.0800,0.080
37.1200,0.029
37.1600,-0.055
37.2000,-0.057
37.2400,0.041
37.2800,0.022
37.3200,0.005
37.3600,0.026
37.4000,0.045
37.4400,-0.037
37.4800,-0.041
37.5200,0.073
37.5600,0.039
37.6000,0.005
37.6400,0.038
37.6800,0.097
37.7200,0.179
37.7600,0.086
37.8000,-0.014
37.8400,-0.055
37.8800,-0.003
37.9200,0.026
37.9600,-0.024
38.0000,-0.031
38.0400,0.009
38.0800,-0.040
38.1200,0.032
38.1600,0.054
38.2000,-0.055
38.2400,-0.019
38.2800,-0.014
38.3200,-0.056
38.3600,0.009
38.4000,-0.107
38.4400,0.018
38.4800,0.019
38.5200,-0.020
38.5600,-0.055
38.6000,-0.015
38.6400,-0.003
38.6800,0.031
38.7200,-0.017
38.7600,0.009
38.8000,-0.053
38.8400,-0.054
38.8800,-0.015
38.9200,0.088
38.9600,0.005
39.0000,-0.055
39.0400,-0.020
39.0800,-0.036
39.1200,0.029
39.1600,-0.014
39.2000,0.012
39.2400,0.023
39.2800,-0.077
39.3200,-0.020
39.3600,-0.006
39.4000,0.027
39.4400,-0.034
39.4800,-0.033
39.5200,0.029
39.5600,-0.012
39.6000,-0.125
39.6400,0.009
39.6800,0.020
39.7200,-0.005
39.7600,-0.010
39.8000,-0.018
39.8400,-0.038
39.8800,0.027
39.9200,-0.127
39.9600,-0.026
40.0000,0.046
40.0400,0.017
40.0800,0.063
40.1200,0.087
40.1600,-0.036
40.2000,0.031
40.2400,0.052
40.2800,-0.029
40.3200,-0.080
40.3600,0.027
40.4000,0.004
40.4400,0.038
40.4800,0.013
40.5200,0.010
40.5600,0.016
40.6000,0.007
40.6400,0.068
40.6800,0.096
40.7200,0.002
40.7600,0.042
40.8000,0.040
40.8400,0.088
40.8800,0.022
40.9200,-0.013
40.9600,-0.052
41.0000,0.004
41.0400,0.027
41.0800,0.004
41.1200,0.052
41.1600,0.005
41.2000,-0.012
41.2400,-0.068
41.2800,0.028
41.3200,-0.039
41.3600,-0.023
41.4000,0.017
41.4400,-0.052
41.4800,-0.040
41.5200,-0.028
41.5600,-0.033
41.6000,-0.052
41.6400,0.009
41.6800,0.013
41.7200,-0.022
41.7600,0.051
41.8000,0.006
41.8400,-0.028
41.8800,0.001
41.9200,0.003
41.9600,-0.051
42.0000,-0.021
42.0400,-0.018
42.0800,0.042
42.1200,-0.083
42.1600,-0.043
42.2000,-0.004
42.2400,0.021
42.2800,-0.070
42.3200,-0.022
42.3600,0.069
42.4000,-0.044
42.4400,0.063
42.4800,-0.054
42.5200,0.008
42.5600,-0.044
42.6000,-0.051
42.6400,-0.049
42.6800,0.022
42.7200,0.008
42.7600,-0.137
42.8000,0.015
42.8400,0.010
42.8800,-0.045
42.9200,-0.003
42.9600,0.084
43.0000,-0.097
43.0400,-0.068
43.0800,0.095
43.1200,-0.003
43.1600,-0.011
43.2000,0.097
43.2400,0.082
43.2800,0.064
43.3200,-0.022
43.3600,-0.020
43.4000,-0.050
43.4400,-0.014
43.4800,0.058
43.5200,-0.039
43.5600,0.013
43.6000,-0.043
43.6400,-0.049
43.6800,0.040
43.7200,-0.009
43.7600,0.019
43.8000,-0.095
43.8400,-0.019
43.8800,0.083
43.9200,0.000
43.9600,0.017
44.0000,-0.034
44.0400,0.014
44.0800,0.043
44.1200,-0.048
44.1600,-0.056
44.2000,0.047
44.2400,0.048
44.2800,0.012
44.3200,0.043
44.3600,-0.039
44.4000,-0.048
44.4400,-0.044
44.4800,-0.026
44.5200,-0.003
44.5600,0.065
44.6000,0.035
44.6400,-0.018
44.6800,0.014
44.7200,0.022
44.7600,0.035
44.8000,-0.005
44.8400,-0.072
44.8800,0.001
44.9200,0.023
44.9600,0.110
45.0000,0.004
45.0400,0.067
45.0800,0.047
45.1200,0.102
45.1600,0.018
45.2000,-0.094
45.2400,-0.016
45.2800,-0.034
45.3200,-0.047
45.3600,-0.007
45.4000,0.019
45.4400,-0.061
45.4800,-0.015
45.5200,0.039
45.5600,-0.019
45.6000,0.019
45.6400,0.060
45.6800,0.032
45.7200,0.034
45.7600,0.048
45.8000,-0.052
45.8400,-0.046
45.8800,-0.037
45.9200,0.020
45.9600,0.039
46.0000,0.004
46.0400,-0.044
46.0800,-0.002
46.1200,0.021
46.1600,0.022
46.2000,-0.040
46.2400,0.023
46.2800,0.017
46.3200,-0.075
46.3600,0.032
46.4000,-0.070
46.4400,0.024
46.4800,0.067
46.5200,0.069
46.5600,-0.005
46.6000,0.006
46.6400,-0.060
46.6800,-0.007
46.7200,-0.002
46.7600,-0.042
46.8000,-0.059
46.8400,0.044
46.8800,0.034
46.9200,0.035
46.9600,0.045
47.0000,-0.032
47.0400,0.095
47.0800,-0.030
47.1200,0.033
47.1600,-0.009
47.2000,-0.069
47.2400,0.006
47.2800,0.006
47.3200,0.053
47.3600,0.026
47.4000,0.046
47.4400,0.031
47.4800,-0.002
47.5200,0.100
47.5600,0.082
47.6000,-0.061
47.6400,-0.023
47.6800,0.032
47.7200,0.112
47.7600,0.033
47.8000,0.037
47.8400,-0.045
47.8800,-0.044
47.9200,-0.027
47.9600,0.030
48.0000,-0.025
48.0400,-0.029
48.0800,0.005
48.1200,0.060
48.1600,0.003
48.2000,-0.001
48.2400,0.032
48.2800,-0.044
48.3200,-0.041
48.3600,-0.001
48.4000,-0.021
48.4400,0.074
48.4800,0.016
48.5200,0.034
48.5600,-0.010
48.6000,0.036
48.6400,-0.027
48.6800,0.038
48.7200,-0.006
48.7600,-0.033
48.8000,-0.043
48.8400,0.010
48.8800,0.030
48.9200,0.047
48.9600,-0.039
49.0000,0.026
49.0400,-0.003
49.0800,0.003
49.1200,0.063
49.1600,-0.076
49.2000,-0.043
49.2400,0.002
49.2800,0.020
49.3200,-0.006
49.3600,-0.042
49.4000,0.008
49.4400,0.020
49.4800,-0.026
49.5200,0.051
49.5600,0.036
49.6000,-0.027
49.6400,0.014
49.6800,-0.030
49.7200,0.044
49.7600,0.084
49.8000,-0.005
49.8400,-0.045
49.8800,0.010
49.9200,0.013
49.9600,-0.002
50.0000,0.031
50.0400,-0.043
50.0800,-0.036
50.1200,-0.002
50.1600,-0.003
50.2000,0.034
50.2400,0.003
50.2800,-0.015
50.3200,0.020
50.3600,-0.009
50.4000,-0.039
50.4400,0.010
50.4800,-0.016
50.5200,-0.035
50.5600,-0.004
50.6000,-0.003
50.6400,-0.015
50.6800,0.031
50.7200,0.000
50.7600,-0.003
50.8000,0.031
50.8400,0.017
50.8800,0.029
50.9200,0.017
50.9600,0.021
51.0000,-0.042
51.0400,-0.042
51.0800,0.016
51.1200,0.051
51.1600,-0.089
51.2000,0.017
51.2400,-0.053
51.2800,-0.023
51.3200,-0.010
51.3600,-0.007
51.4000,-0.081
51.4400,0.068
51.4800,-0.005
51.5200,-0.003
51.5600,0.030
51.6000,-0.028
51.6400,-0.015
51.6800,0.097
51.7200,0.029
51.7600,-0.042
51.8000,0.016
51.8400,-0.001
51.8800,-0.061
51.9200,-0.001
51.9600,-0.002
52.0000,0.054
52.0400,0.034
52.0800,0.011
52.1200,-0.066
52.1600,0.027
52.2000,0.003
52.2400,-0.008
52.2800,-0.005
52.3200,-0.010
52.3600,-0.023
52.4000,-0.042
52.4400,-0.033
52.4800,-0.114
52.5200,0.037
52.5600,-0.026
52.6000,0.004
52.6400,0.090
52.6800,0.056
52.7200,0.063
52.7600,0.034
52.8000,0.016
52.8400,-0.034
52.8800,0.017
52.9200,-0.013
52.9600,-0.041
53.0000,-0.032
53.0400,-0.020
53.0800,0.079
53.1200,0.025
53.1600,-0.025
53.2000,-0.044
53.2400,0.034
53.2800,-0.039
53.3200,-0.014
53.3600,0.121
53.4000,0.077
53.4400,0.032
53.4800,0.113
53.5200,0.072
53.5600,0.143
53.6000,-0.011
53.6400,-0.015
53.6800,0.048
53.7200,-0.008
53.7600,0.035
53.8000,0.063
53.8400,0.005
53.8800,-0.043
53.9200,-0.003
53.9600,0.029
54.0000,-0.032
54.0400,-0.087
54.0800,0.028
54.1200,-0.084
54.1600,-0.007
54.2000,0.029
54.2400,-0.078
54.2800,-0.016
54.3200,-0.026
54.3600,-0.040
54.4000,0.003
54.4400,-0.062
54.4800,0.035
54.5200,0.003
54.5600,-0.011
54.6000,0.018
54.6400,-0.041
54.6800,-0.020
54.7200,0.002
54.7600,-0.040
54.8000,-0.005
54.8400,-0.020
54.8800,-0.030
54.9200,-0.055
54.9600,0.032
55.0000,0.068
55.0400,-0.011
55.0800,-0.010
55.1200,0.009
55.1600,-0.042
55.2000,0.055
55.2400,-0.045
55.2800,0.006
55.3200,-0.002
55.3600,-0.003
55.4000,-0.040
55.4400,-0.025
55.4800,-0.021
55.5200,0.024
55.5600,-0.040
55.6000,-0.010
55.6400,-0.030
55.6800,0.037
55.7200,-0.058
55.7600,0.009
55.8000,-0.003
55.8400,0.086
55.8800,0.065
55.9200,0.001
55.9600,-0.012
56.0000,-0.015
56.0400,-0.039
56.0800,-0.002
56.1200,0.005
56.1600,-0.011
56.2000,0.014
56.2400,-0.036
56.2800,0.016
56.3200,-0.040
56.3600,-0.022
56.4000,0.007
56.4400,0.027
56.4800,0.121
56.5200,-0.007
56.5600,-0.034
56.6000,-0.025
56.6400,0.080
56.6800,-0.018
56.7200,-0.004
56.7600,-0.025
56.8000,-0.014
56.8400,-0.046
56.8800,0.016
56.9200,-0.021
56.9600,-0.039
57.0000,-0.036
57.0400,0.003
57.0800,-0.120
57.1200,0.019
57.1600,-0.014
57.2000,-0.006
57.2400,-0.016
57.2800,-0.026
57.3200,-0.016
57.3600,-0.039
57.4000,-0.010
57.4400,0.023
57.4800,-0.020
57.5200,-0.009
57.5600,0.032
57.6000,0.003
57.6400,0.006
57.6800,-0.039
57.7200,-0.012
57.7600,-0.005
57.8000,0.019
57.8400,0.008
57.8800,0.031
57.9200,-0.054
57.9600,-0.011
58.0000,0.005
58.0400,-0.018
58.0800,-0.021
58.1200,0.013
58.1600,-0.039
58.2000,-0.015
58.2400,0.040
58.2800,0.047
58.3200,0.047
58.3600,0.047
58.4000,0.017
58.4400,0.047
58.4800,-0.037
58.5200,0.041
58.5600,-0.034
58.6000,-0.037
58.6400,-0.006
58.6800,0.098
58.7200,-0.028
58.7600,-0.061
58.8000,0.064
58.8400,0.071
58.8800,0.057
58.9200,0.042
58.9600,-0.033
59.0000,0.046
59.0400,-0.019
59.0800,-0.066
59.1200,0.020
59.1600,0.051
59.2000,0.052
59.2400,-0.040
59.2800,-0.037
59.3200,-0.020
59.3600,-0.050
59.4000,0.037
59.4400,-0.007
59.4800,-0.026
59.5200,0.028
59.5600,0.017
59.6000,0.052
59.6400,-0.011
59.6800,0.020
59.7200,0.003
59.7600,-0.036
59.8000,-0.027
59.8400,-0.028
59.8800,-0.042
59.9200,0.026
59.9600,0.022
60.0000,0.014
60.0400,-0.005
60.0800,-0.043
60.1200,0.008
60.1600,0.035
60.2000,-0.027
60.2400,-0.018
60.2800,0.001
60.3200,-0.037
60.3600,-0.009
60.4000,0.026
60.4400,0.071
60.4800,-0.025
60.5200,-0.037
60.5600,-0.030
60.6000,-0.025
60.6400,-0.006
60.6800,0.035
60.7200,-0.027
60.7600,-0.013
60.8000,0.052
60.8400,0.017
60.8800,-0.053
60.9200,0.017
60.9600,-0.026
61.0000,-0.018
61.0400,0.037
61.0800,-0.007
61.1200,-0.026
61.1600,-0.015
61.2000,-0.031
61.2400,-0.035
61.2800,-0.002
61.3200,-0.002
61.3600,0.033
61.4000,0.061
61.4400,-0.006
61.4800,0.004
61.5200,-0.010
61.5600,0.062
61.6000,0.038
61.6400,0.099
61.6800,0.087
61.7200,0.096
61.7600,0.055
61.8000,-0.026
61.8400,0.060
61.8800,0.040
61.9200,0.059
61.9600,-0.039
62.0000,0.042
62.0400,-0.028
62.0800,-0.036
62.1200,-0.024
62.1600,0.013
62.2000,-0.029
62.2400,0.025
62.2800,-0.026
62.3200,0.060
62.3600,-0.012
62.4000,-0.082
62.4400,0.008
62.4800,-0.032
62.5200,-0.001
62.5600,-0.006
62.6000,-0.004
62.6400,0.013
62.6800,-0.010
62.7200,0.006
62.7600,0.023
62.8000,0.009
62.8400,-0.011
62.8800,-0.008
62.9200,0.021
62.9600,0.014
63.0000,-0.019
63.0400,-0.035
63.0800,-0.035
63.1200,-0.005
63.1600,-0.042
63.2000,0.076
63.2400,-0.029
63.2800,-0.080
63.3200,0.030
63.3600,0.003
63.4000,-0.002
63.4400,0.029
63.4800,-0.032
63.5200,-0.036
63.5600,0.003
63.6000,-0.033
63.6400,-0.005
63.6800,0.027
63.7200,0.059
63.7600,0.037
63.8000,0.005
63.8400,0.003
63.8800,0.041
63.9200,0.057
63.9600,-0.022
64.0000,-0.032
64.0400,-0.036
64.0800,-0.029
64.1200,0.029
64.1600,0.050
64.2000,-0.023
64.2400,-0.020
64.2800,0.013
64.3200,-0.053
64.3600,0.011
64.4000,-0.056
64.4400,-0.009
64.4800,-0.040
64.5200,0.049
64.5600,-0.025
64.6000,0.059
64.6400,-0.023
64.6800,-0.038
64.7200,0.021
64.7600,-0.048
64.8000,-0.019
64.8400,-0.015
64.8800,-0.036
64.9200,-0.038
64.9600,-0.020
65.0000,-0.019
65.0400,-0.035
65.0800,-0.018
65.1200,0.016
65.1600,-0.014
65.2000,0.075
65.2400,0.034
65.2800,-0.015
65.3200,0.070
65.3600,-0.003
65.4000,-0.006
65.4400,-0.006
65.4800,-0.041
65.5200,0.009
65.5600,0.006
65.6000,0.018
65.6400,-0.005
65.6800,0.034
65.7200,-0.013
65.7600,-0.043
65.8000,-0.001
65.8400,0.068
65.8800,0.040
65.9200,0.031
65.9600,-0.019
66.0000,-0.025
66.0400,-0.033
66.0800,-0.043
66.1200,-0.042
66.1600,-0.008
66.2000,-0.037
66.2400,0.013
66.2800,-0.003
66.3200,-0.043
66.3600,0.007
66.4000,-0.022
66.4400,-0.029
66.4800,0.013
66.5200,-0.001
66.5600,0.002
66.6000,0.012
66.6400,-0.061
66.6800,-0.017
66.7200,-0.021
66.7600,-0.018
66.8000,0.076
66.8400,0.043
66.8800,0.018
66.9200,-0.030
66.9600,-0.050
67.0000,-0.051
67.0400,0.011
67.0800,0.016
67.1200,0.022
67.1600,-0.056
67.2000,-0.019
67.2400,0.041
67.2800,0.049
67.3200,0.008
67.3600,0.008
67.4000,0.049
67.4400,-0.034
67.4800,0.074
67.5200,0.151
67.5600,0.087
67.6000,0.007
67.6400,0.102
67.6800,0.145
67.7200,0.183
67.7600,0.173
67.8000,0.083
67.8400,0.220
67.8800,0.269
67.9200,0.212
67.9600,0.289
68.0000,0.345
68.0400,0.354
68.0800,0.360
68.1200,0.457
68.1600,0.528
68.2000,0.517
68.2400,0.497
68.2800,0.754
68.3200,0.660
68.3600,0.716
68.4000,1.009
68.4400,1.075
68.4800,1.149
68.5200,1.290
68.5600,1.300
68.6000,1.637
68.6400,1.936
68.6800,2.418
68.7200,3.465
68.7600,4.946
68.8000,6.487
68.8400,7.062
68.8800,7.184
68.9200,7.422
68.9600,9.587
69.0000,15.739
69.0400,30.794
69.0800,121.363
69.1200,481.146
69.1600,569.862
69.2000,207.123
69.2400,56.388
69.2800,87.579
69.3200,255.912
69.3600,280.532
69.4000,100.523
69.4400,24.982
69.4800,12.419
69.5200,8.126
69.5600,6.268
69.6000,4.809
69.6400,3.898
69.6800,3.435
69.7200,2.740
69.7600,2.448
69.8000,2.115
69.8400,1.788
69.8800,1.783
69.9200,1.514
69.9600,1.348
70.0000,1.078
70.0400,1.095
70.0800,1.161
70.1200,0.965
70.1600,0.976
70.2000,0.796
70.2400,0.682
70.2800,0.532
70.3200,0.531
70.3600,0.481
70.4000,0.516
70.4400,0.355
70.4800,0.408
70.5200,0.402
70.5600,0.323
70.6000,0.230
70.6400,0.201
70.6800,0.244
70.7200,0.182
70.7600,0.258
70.8000,0.167
70.8400,0.015
70.8800,0.016
70.9200,0.079
70.9600,0.119
71.0000,0.073
71.0400,0.031
71.0800,0.042
71.1200,-0.078
71.1600,0.003
71.2000,-0.008
71.2400,-0.020
71.2800,-0.051
71.3200,0.022
71.3600,0.012
71.4000,0.000
71.4400,0.027
71.4800,0.031
71.5200,0.014
71.5600,0.009
71.6000,0.019
71.6400,-0.045
71.6800,-0.044
71.7200,0.016
71.7600,-0.087
71.8000,0.000
71.8400,-0.048
71.8800,0.025
71.9200,-0.035
71.9600,0.056
72.0000,0.025
72.0400,-0.059
72.0800,-0.026
72.1200,0.024
72.1600,-0.026
72.2000,-0.009
72.2400,0.013
72.2800,0.085
72.3200,-0.073
72.3600,-0.039
72.4000,0.026
72.4400,-0.007
72.4800,-0.043
72.5200,0.006
72.5600,-0.014
72.6000,-0.038
72.6400,-0.036
72.6800,-0.068
72.7200,0.040
72.7600,0.041
72.8000,0.002
72.8400,-0.025
72.8800,-0.046
72.9200,0.019
72.9600,0.054
73.0000,0.026
73.0400,-0.028
73.0800,0.042
73.1200,0.059
73.1600,0.002
73.2000,0.001
73.2400,-0.072
73.2800,0.017
73.3200,0.007
73.3600,0.047
73.4000,0.033
73.4400,0.009
73.4800,-0.062
73.5200,0.030
73.5600,0.006
73.6000,-0.037
73.6400,-0.004
73.6800,0.028
73.7200,-0.002
73.7600,-0.032
73.8000,-0.061
73.8400,0.078
73.8800,0.006
73.9200,0.020
73.9600,0.090
74.0000,0.001
74.0400,0.061
74.0800,0.023
74.1200,-0.002
74.1600,0.021
74.2000,0.009
74.2400,-0.022
74.2800,-0.004
74.3200,-0.024
74.3600,0.002
74.4000,-0.032
74.4400,-0.019
74.4800,-0.020
74.5200,-0.021
74.5600,-0.017
74.6000,-0.021
74.6400,0.002
74.6800,-0.031
74.7200,-0.024
74.7600,-0.025
74.8000,-0.028
74.8400,0.023
74.8800,-0.034
74.9200,-0.020
74.9600,-0.003
75.0000,0.003
75.0400,-0.029
75.0800,-0.032
75.1200,0.031
75.1600,0.003
75.2000,0.001
75.2400,0.032
75.2800,0.021
75.3200,0.041
75.3600,0.006
75.4000,-0.057
75.4400,-0.009
75.4800,-0.014
75.5200,-0.009
75.5600,0.029
75.6000,0.059
75.6400,0.033
75.6800,0.000
75.7200,-0.029
75.7600,-0.002
75.8000,0.005
75.8400,0.026
75.8800,-0.001
75.9200,0.009
75.9600,0.023
76.0000,-0.024
76.0400,-0.028
76.0800,0.000
76.1200,0.039
76.1600,-0.050
76.2000,0.041
76.2400,0.006
76.2800,0.003
76.3200,-0.034
76.3600,-0.007
76.4000,-0.011
76.4400,0.029
76.4800,-0.031
76.5200,0.011
76.5600,0.039
76.6000,0.002
76.6400,-0.030
76.6800,0.009
76.7200,-0.028
76.7600,-0.019
76.8000,-0.011
76.8400,-0.025
76.8800,-0.028
76.9200,-0.006
76.9600,0.034
77.0000,0.013
77.0400,-0.064
77.0800,-0.012
77.1200,-0.006
77.1600,-0.003
77.2000,0.014
77.2400,0.034
77.2800,0.019
77.3200,0.004
77.3600,-0.012
77.4000,-0.010
77.4400,-0.006
77.4800,0.022
77.5200,-0.019
77.5600,0.013
77.6000,-0.023
77.6400,-0.030
77.6800,0.022
77.7200,-0.008
77.7600,0.015
77.8000,-0.027
77.8400,-0.023
77.8800,-0.007
77.9200,0.001
77.9600,0.040
78.0000,0.019
78.0400,0.001
78.0800,-0.026
78.1200,-0.017
78.1600,0.004
78.2000,-0.055
78.2400,-0.006
78.2800,-0.023
78.3200,-0.014
78.3600,0.001
78.4000,0.020
78.4400,-0.027
78.4800,0.010
78.5200,0.006
78.5600,0.050
78.6000,0.004
78.6400,-0.001
78.6800,0.022
78.7200,-0.015
78.7600,-0.008
78.8000,-0.023
78.8400,0.029
78.8800,0.005
78.9200,0.023
78.9600,-0.011
79.0000,-0.006
79.0400,0.004
79.0800,-0.026
79.1200,-0.008
79.1600,0.019
79.2000,-0.004
79.2400,0.034
79.2800,0.011
79.3200,0.008
79.3600,0.016
79.4000,-0.004
79.4400,0.031
79.4800,0.005
79.5200,-0.026
79.5600,-0.011
79.6000,-0.004
79.6400,0.012
79.6800,0.020
79.7200,-0.003
79.7600,0.021
79.8000,-0.032
79.8400,-0.008
79.8800,-0.048
79.9200,0.007
79.9600,-0.019
80.0000,-0.012
80.0400,-0.008
80.0800,-0.024
80.1200,-0.002
80.1600,0.006
80.2000,-0.011
80.2400,-0.018
80.2800,0.005
80.3200,0.011
80.3600,-0.012
80.4000,0.035
80.4400,0.002
80.4800,-0.025
80.5200,-0.005
80.5600,0.002
80.6000,-0.008
80.6400,0.024
80.6800,0.017
80.7200,0.023
80.7600,0.017
80.8000,0.013
80.8400,-0.022
80.8800,-0.043
80.9200,0.020
80.9600,0.066
81.0000,0.022
81.0400,-0.004
81.0800,-0.015
81.1200,0.035
81.1600,0.002
81.2000,0.069
81.2400,0.011
81.2800,-0.025
81.3200,-0.028
81.3600,0.023
81.4000,0.033
81.4400,-0.007
81.4800,0.010
81.5200,-0.013
81.5600,0.031
81.6000,-0.013
81.6400,0.028
81.6800,-0.004
81.7200,0.009
81.7600,-0.028
81.8000,-0.011
81.8400,0.003
81.8800,0.020
81.9200,-0.011
81.9600,0.020
82.0000,-0.015
82.0400,-0.004
82.0800,0.011
82.1200,0.001
82.1600,0.030
82.2000,-0.003
82.2400,-0.019
82.2800,-0.045
82.3200,0.022
82.3600,-0.026
82.4000,0.013
82.4400,0.005
82.4800,-0.036
82.5200,-0.009
82.5600,0.001
82.6000,0.019
82.6400,-0.004
82.6800,0.045
82.7200,-0.036
82.7600,-0.003
82.8000,0.009
82.8400,-0.015
82.8800,0.012
82.9200,-0.030
82.9600,0.003
83.0000,0.021
83.0400,-0.006
83.0800,-0.008
83.1200,0.012
83.1600,-0.030
83.2000,-0.007
83.2400,0.021
83.2800,-0.024
83.3200,-0.024
83.3600,-0.002
83.4000,0.026
83.4400,0.013
83.4800,-0.024
83.5200,0.002
83.5600,-0.024
83.6000,-0.016
83.6400,0.019
83.6800,-0.004
83.7200,-0.012
83.7600,0.033
83.8000,0.001
83.8400,0.012
83.8800,0.008
83.9200,-0.024
83.9600,-0.023
84.0000,-0.020
84.0400,0.013
84.0800,-0.011
84.1200,0.014
84.1600,-0.029
84.2000,-0.013
84.2400,0.000
84.2800,-0.024
84.3200,-0.011
84.3600,0.000
84.4000,-0.007
84.4400,0.024
84.4800,0.066
84.5200,0.033
84.5600,0.021
84.6000,-0.003
84.6400,-0.024
84.6800,-0.023
84.7200,0.025
84.7600,0.024
84.8000,0.011
84.8400,-0.011
84.8800,-0.024
84.9200,0.011
84.9600,0.060
85.0000,-0.020
85.0400,0.008
85.0800,0.001
85.1200,-0.007
85.1600,-0.024
85.2000,-0.008
85.2400,-0.015
85.2800,0.020
85.3200,-0.050
85.3600,-0.014
85.4000,-0.023
85.4400,-0.023
85.4800,-0.010
85.5200,-0.004
85.5600,0.027
85.6000,-0.035
85.6400,-0.024
85.6800,0.009
85.7200,-0.006
85.7600,0.005
85.8000,0.013
85.8400,0.014
85.8800,-0.012
85.9200,-0.029
85.9600,0.010
86.0000,-0.019
86.0400,-0.024
86.0800,-0.022
86.1200,0.024
86.1600,-0.013
86.2000,-0.023
86.2400,-0.001
86.2800,0.027
86.3200,0.021
86.3600,0.013
86.4000,-0.013
86.4400,0.019
86.4800,-0.034
86.5200,-0.016
86.5600,-0.009
86.6000,0.016
86.6400,0.046
86.6800,0.034
86.7200,-0.014
86.7600,-0.022
86.8000,0.001
86.8400,0.015
86.8800,-0.009
86.9200,0.027
86.9600,0.059
87.0000,0.014
87.0400,-0.023
87.0800,-0.028
87.1200,0.035
87.1600,0.041
87.2000,-0.041
87.2400,-0.005
87.2800,-0.004
87.3200,-0.008
87.3600,-0.021
87.4000,-0.011
87.4400,0.037
87.4800,-0.001
87.5200,-0.024
87.5600,-0.001
87.6000,-0.009
87.6400,-0.013
87.6800,-0.004
87.7200,0.011
87.7600,-0.036
87.8000,-0.010
87.8400,-0.001
87.8800,0.028
87.9200,-0.009
87.9600,-0.024
88.0000,-0.008
88.0400,0.007
88.0800,-0.019
88.1200,-0.009
88.1600,0.011
88.2000,0.004
88.2400,-0.024
88.2800,-0.024
88.3200,-0.006
88.3600,-0.030
88.4000,0.047
88.4400,-0.009
88.4800,0.031
88.5200,0.028
88.5600,-0.045
88.6000,0.007
88.6400,0.007
88.6800,-0.013
88.7200,-0.009
88.7600,-0.033
88.8000,0.008
88.8400,0.046
88.8800,-0.033
88.9200,-0.023
88.9600,0.012
89.0000,-0.038
89.0400,0.013
89.0800,0.010
89.1200,0.004
89.1600,-0.023
89.2000,-0.005
89.2400,-0.023
89.2800,-0.021
89.3200,-0.022
89.3600,-0.023
89.4000,0.015
89.4400,-0.028
89.4800,0.018
89.5200,0.029
89.5600,0.003
89.6000,0.052
89.6400,0.034
89.6800,0.016
89.7200,0.046
89.7600,-0.016
89.8000,0.015
89.8400,0.079
89.8800,0.011
89.9200,0.071
89.9600,0.014
90.0000,0.000
