5.0400,-0.123
5.0800,-0.142
5.1200,0.041
5.1600,0.080
5.2000,-0.078
5.2400,0.028
5.2800,0.043
5.3200,0.063
5.3600,-0.093
5.4000,0.021
5.4400,-0.030
5.4800,-0.088
5.5200,-0.103
5.5600,-0.067
5.6000,0.054
5.6400,-0.108
5.6800,-0.110
5.7200,-0.029
5.7600,0.004
5.8000,-0.039
5.8400,0.049
5.8800,-0.052
5.9200,0.047
5.9600,-0.002
6.0000,-0.100
6.0400,-0.104
6.0800,-0.067
6.1200,0.052
6.1600,-0.008
6.2000,-0.103
6.2400,-0.050
6.2800,0.018
6.3200,-0.025
6.3600,-0.019
6.4000,-0.022
6.4400,-0.120
6.4800,0.111
6.5200,0.067
6.5600,0.243
6.6000,0.055
6.6400,0.024
6.6800,0.005
6.7200,-0.074
6.7600,-0.077
6.8000,0.290
6.8400,0.116
6.8800,0.069
6.9200,0.091
6.9600,-0.050
7.0000,0.070
7.0400,0.007
7.0800,-0.103
7.1200,-0.016
7.1600,0.040
7.2000,-0.041
7.2400,0.075
7.2800,0.106
7.3200,0.039
7.3600,-0.009
7.4000,-0.134
7.4400,0.136
7.4800,0.075
7.5200,-0.099
7.5600,-0.199
7.6000,0.194
7.6400,-0.069
7.6800,-0.095
7.7200,-0.049
7.7600,0.129
7.8000,-0.065
7.8400,-0.010
7.8800,0.089
7.9200,-0.027
7.9600,0.043
8.0000,0.060
8.0400,0.016
8.0800,0.079
8.1200,0.140
8.1600,0.009
8.2000,0.012
8.2400,0.048
8.2800,-0.037
8.3200,-0.052
8.3600,-0.002
8.4000,0.165
8.4400,0.001
8.4800,-0.071
8.5200,0.159
8.5600,0.010
8.6000,-0.075
8.6400,0.067
8.6800,0.008
8.7200,-0.101
8.7600,0.069
8.8000,-0.022
8.8400,0.047
8.8800,-0.038
8.9200,-0.053
8.9600,-0.165
9.0000,0.046
9.0400,0.050
9.0800,0.183
9.1200,0.124
9.1600,0.145
9.2000,-0.171
9.2400,0.009
9.2800,-0.097
9.3200,-0.055
9.3600,0.023
9.4000,0.115
9.4400,0.074
9.4800,-0.095
9.5200,0.041
9.5600,-0.055
9.6000,-0.056
9.6400,0.145
9.6800,-0.181
9.7200,-0.023
9.7600,-0.191
9.8000,0.109
9.8400,0.167
9.8800,0.089
9.9200,0.057
9.9600,0.073
10.0000,-0.044
10.0400,-0.096
10.0800,-0.086
10.1200,-0.024
10.1600,0.107
10.2000,-0.011
10.2400,-0.072
10.2800,-0.086
10.3200,-0.024
10.3600,0.061
10.4000,-0.025
10.4400,0.012
10.4800,0.056
10.5200,-0.096
10.5600,0.038
10.6000,-0.125
10.6400,-0.031
10.6800,0.043
10.7200,0.005
10.7600,0.096
10.8000,-0.119
10.8400,-0.038
10.8800,-0.095
10.9200,-0.025
10.9600,0.083
11.0000,-0.001
11.0400,-0.046
11.0800,0.023
11.1200,-0.147
11.1600,0.147
11.2000,0.053
11.2400,0.159
11.2800,-0.040
11.3200,-0.041
11.3600,-0.031
11.4000,0.065
11.4400,-0.106
11.4800,0.040
11.5200,0.031
11.5600,0.057
11.6000,0.027
11.6400,-0.091
11.6800,-0.039
11.7200,-0.095
11.7600,-0.087
11.8000,-0.080
11.8400,-0.078
11.8800,-0.055
11.9200,-0.040
11.9600,0.019
12.0000,0.045
12.0400,-0.037
12.0800,-0.156
12.1200,0.097
12.1600,-0.046
12.2000,-0.110
12.2400,0.071
12.2800,-0.075
12.3200,0.083
12.3600,-0.075
12.4000,-0.024
12.4400,-0.193
12.4800,0.027
12.5200,0.090
12.5600,-0.005
12.6000,-0.081
12.6400,0.106
12.6800,-0.078
12.7200,0.090
12.7600,-0.112
12.8000,-0.092
12.8400,-0.008
12.8800,-0.097
12.9200,0.128
12.9600,-0.061
13.0000,-0.072
13.0400,-0.071
13.0800,0.003
13.1200,-0.092
13.1600,-0.079
13.2000,0.145
13.2400,0.012
13.2800,-0.029
13.3200,0.003
13.3600,0.011
13.4000,0.174
13.4400,0.018
13.4800,-0.024
13.5200,0.187
13.5600,-0.011
13.6000,0.246
13.6400,0.053
13.6800,0.056
13.7200,-0.051
13.7600,0.083
13.8000,0.019
13.8400,0.067
13.8800,0.120
13.9200,-0.038
13.9600,0.000
14.0000,0.118
14.0400,-0.091
14.0800,-0.068
14.1200,-0.238
14.1600,0.091
14.2000,-0.169
14.2400,0.031
14.2800,0.072
14.3200,0.048
14.3600,0.156
14.4000,0.122
14.4400,0.084
14.4800,-0.029
14.5200,-0.090
14.5600,-0.057
14.6000,0.083
14.6400,0.087
14.6800,0.086
14.7200,-0.036
14.7600,0.118
14.8000,0.003
14.8400,0.080
14.8800,0.008
14.9200,0.151
14.9600,-0.070
15.0000,-0.089
15.0400,-0.013
15.0800,0.049
15.1200,-0.111
15.1600,0.086
15.2000,0.148
15.2400,0.026
15.2800,-0.147
15.3200,0.068
15.3600,0.071
15.4000,-0.057
15.4400,0.118
15.4800,-0.116
15.5200,0.029
15.5600,0.066
15.6000,0.068
15.6400,0.086
15.6800,-0.050
15.7200,0.035
15.7600,0.014
15.8000,-0.073
15.8400,-0.092
15.8800,0.209
15.9200,0.159
15.9600,0.020
16.0000,0.025
16.0400,0.023
16.0800,0.015
16.1200,0.033
16.1600,0.016
16.2000,-0.017
16.2400,0.165
16.2800,-0.030
16.3200,-0.075
16.3600,-0.088
16.4000,0.020
16.4400,0.023
16.4800,0.106
16.5200,0.131
16.5600,-0.082
16.6000,-0.046
16.6400,0.105
16.6800,0.084
16.7200,0.018
16.7600,-0.018
16.8000,0.073
16.8400,-0.035
16.8800,-0.087
16.9200,-0.020
16.9600,0.000
17.0000,-0.087
17.0400,-0.170
17.0800,0.168
17.1200,0.135
17.1600,0.076
17.2000,0.145
17.2400,-0.002
17.2800,0.023
17.3200,-0.113
17.3600,-0.026
17.4000,-0.056
17.4400,-0.228
17.4800,0.145
17.5200,0.037
17.5600,-0.049
17.6000,0.041
17.6400,0.016
17.6800,0.109
17.7200,-0.014
17.7600,0.129
17.8000,0.072
17.8400,0.056
17.8800,0.007
17.9200,-0.073
17.9600,-0.074
18.0000,0.085
18.0400,-0.186
18.0800,0.028
18.1200,-0.060
18.1600,0.076
18.2000,0.149
18.2400,0.026
18.2800,0.068
18.3200,-0.137
18.3600,-0.021
18.4000,-0.103
18.4400,0.023
18.4800,-0.049
18.5200,0.097
18.5600,0.042
18.6000,-0.085
18.6400,-0.074
18.6800,-0.001
18.7200,-0.035
18.7600,0.050
18.8000,0.043
18.8400,-0.028
18.8800,0.050
18.9200,-0.224
18.9600,-0.051
19.0000,0.029
19.0400,0.032
19.0800,0.136
19.1200,-0.062
19.1600,0.006
19.2000,-0.026
19.2400,-0.073
19.2800,-0.020
19.3200,0.058
19.3600,0.037
19.4000,0.073
19.4400,0.132
19.4800,0.010
19.5200,-0.084
19.5600,-0.079
19.6000,0.207
19.6400,0.183
19.6800,0.068
19.7200,0.013
19.7600,0.012
19.8000,0.112
19.8400,-0.007
19.8800,0.106
19.9200,-0.012
19.9600,0.040
20.0000,0.052
20.0400,0.033
20.0800,0.102
20.1200,0.061
20.1600,0.041
20.2000,0.092
20.2400,-0.041
20.2800,-0.083
20.3200,-0.052
20.3600,0.112
20.4000,-0.017
20.4400,0.113
20.4800,-0.014
20.5200,0.035
20.5600,-0.011
20.6000,0.130
20.6400,-0.016
20.6800,-0.082
20.7200,-0.042
20.7600,0.169
20.8000,0.007
20.8400,0.036
20.8800,0.091
20.9200,-0.005
20.9600,0.003
21.0000,0.026
21.0400,0.214
21.0800,0.149
21.1200,0.063
21.1600,0.083
21.2000,0.000
21.2400,0.100
21.2800,-0.099
21.3200,-0.014
21.3600,0.014
21.4000,-0.081
21.4400,-0.047
21.4800,0.060
21.5200,0.073
21.5600,-0.133
21.6000,-0.072
21.6400,-0.039
21.6800,-0.040
21.7200,0.004
21.7600,-0.081
21.8000,-0.085
21.8400,0.088
21.8800,-0.035
21.9200,-0.077
21.9600,-0.068
22.0000,0.091
22.0400,-0.004
22.0800,0.006
22.1200,-0.071
22.1600,-0.037
22.2000,-0.150
22.2400,0.045
22.2800,-0.040
22.3200,0.036
22.3600,0.045
22.4000,-0.028
22.4400,-0.026
22.4800,0.013
22.5200,0.039
22.5600,-0.146
22.6000,-0.004
22.6400,-0.088
22.6800,0.001
22.7200,0.111
22.7600,-0.068
22.8000,0.014
22.8400,0.028
22.8800,0.129
22.9200,-0.055
22.9600,-0.145
23.0000,0.093
23.0400,0.025
23.0800,-0.006
23.1200,0.062
23.1600,-0.041
23.2000,0.027
23.2400,-0.055
23.2800,0.031
23.3200,-0.043
23.3600,-0.088
23.4000,0.037
23.4400,0.218
23.4800,0.078
23.5200,-0.083
23.5600,-0.044
23.6000,-0.065
23.6400,0.085
23.6800,-0.024
23.7200,-0.078
23.7600,0.021
23.8000,-0.091
23.8400,0.091
23.8800,0.002
23.9200,0.078
23.9600,0.025
24.0000,0.167
24.0400,0.063
24.0800,0.013
24.1200,0.028
24.1600,0.003
24.2000,0.021
24.2400,-0.064
24.2800,-0.110
24.3200,0.126
24.3600,0.075
24.4000,-0.079
24.4400,0.127
24.4800,0.090
24.5200,-0.110
24.5600,-0.066
24.6000,-0.064
24.6400,-0.003
24.6800,0.004
24.7200,-0.086
24.7600,-0.009
24.8000,0.044
24.8400,0.140
24.8800,-0.016
24.9200,-0.042
24.9600,0.201
25.0000,0.088
25.0400,-0.028
25.0800,0.065
25.1200,0.128
25.1600,0.108
25.2000,-0.140
25.2400,-0.074
25.2800,0.034
25.3200,0.035
25.3600,-0.028
25.4000,0.060
25.4400,-0.014
25.4800,-0.040
25.5200,0.052
25.5600,0.054
25.6000,0.061
25.6400,0.141
25.6800,0.072
25.7200,0.137
25.7600,0.157
25.8000,0.169
25.8400,0.183
25.8800,-0.045
25.9200,-0.095
25.9600,0.032
26.0000,0.061
26.0400,0.110
26.0800,-0.039
26.1200,0.093
26.1600,0.002
26.2000,0.023
26.2400,0.099
26.2800,-0.009
26.3200,0.123
26.3600,-0.085
26.4000,0.099
26.4400,-0.007
26.4800,-0.022
26.5200,0.020
26.5600,0.079
26.6000,0.028
26.6400,0.128
26.6800,0.077
26.7200,0.024
26.7600,-0.010
26.8000,-0.078
26.8400,0.010
26.8800,0.039
26.9200,0.066
26.9600,0.046
27.0000,-0.021
27.0400,0.034
27.0800,-0.221
27.1200,-0.033
27.1600,-0.054
27.2000,0.025
27.2400,-0.002
27.2800,-0.071
27.3200,-0.032
27.3600,0.138
27.4000,-0.063
27.4400,-0.056
27.4800,0.068
27.5200,0.024
27.5600,-0.089
27.6000,0.028
27.6400,0.025
27.6800,-0.153
27.7200,-0.028
27.7600,0.074
27.8000,0.033
27.8400,-0.069
27.8800,-0.070
27.9200,0.110
27.9600,0.116
28.0000,-0.005
28.0400,-0.056
28.0800,-0.073
28.1200,0.005
28.1600,-0.072
28.2000,0.016
28.2400,0.047
28.2800,-0.099
28.3200,0.045
28.3600,-0.022
28.4000,-0.135
28.4400,0.045
28.4800,0.011
28.5200,-0.034
28.5600,0.167
28.6000,0.046
28.6400,0.024
28.6800,0.101
28.7200,0.001
28.7600,-0.050
28.8000,-0.051
28.8400,0.034
28.8800,-0.035
28.9200,-0.007
28.9600,-0.028
29.0000,0.051
29.0400,-0.018
29.0800,0.023
29.1200,-0.045
29.1600,-0.023
29.2000,-0.071
29.2400,-0.046
29.2800,-0.084
29.3200,0.118
29.3600,-0.008
29.4000,-0.050
29.4400,-0.005
29.4800,-0.034
29.5200,-0.032
29.5600,-0.077
29.6000,0.045
29.6400,0.030
29.6800,0.069
29.7200,-0.033
29.7600,-0.007
29.8000,0.189
29.8400,-0.023
29.8800,-0.040
29.9200,0.121
29.9600,0.096
30.0000,0.133
30.0400,-0.029
30.0800,0.012
30.1200,-0.170
30.1600,-0.015
30.2000,0.041
30.2400,-0.036
30.2800,-0.092
30.3200,0.060
30.3600,-0.076
30.4000,-0.007
30.4400,-0.069
30.4800,-0.059
30.5200,-0.041
30.5600,-0.003
30.6000,-0.004
30.6400,0.082
30.6800,0.027
30.7200,0.069
30.7600,0.025
30.8000,-0.009
30.8400,-0.069
30.8800,0.006
30.9200,0.054
30.9600,0.044
31.0000,-0.134
31.0400,0.006
31.0800,-0.029
31.1200,0.092
31.1600,0.026
31.2000,0.053
31.2400,-0.052
31.2800,-0.046
31.3200,0.030
31.3600,-0.083
31.4000,0.013
31.4400,-0.093
31.4800,-0.016
31.5200,-0.062
31.5600,0.050
31.6000,-0.051
31.6400,0.038
31.6800,0.012
31.7200,0.025
31.7600,0.097
31.8000,0.028
31.8400,-0.065
31.8800,-0.028
31.9200,-0.008
31.9600,-0.067
32.0000,-0.027
32.0400,0.061
32.0800,-0.034
32.1200,-0.001
32.1600,0.060
32.2000,-0.054
32.2400,0.000
32.2800,-0.076
32.3200,0.047
32.3600,-0.001
32.4000,-0.068
32.4400,-0.050
32.4800,-0.002
32.5200,-0.015
32.5600,-0.062
32.6000,-0.014
32.6400,0.068
32.6800,-0.078
32.7200,0.010
32.7600,-0.070
32.8000,0.094
32.8400,0.052
32.8800,0.006
32.9200,0.282
32.9600,2.461
33.0000,2.962
33.0400,0.855
33.0800,0.105
33.1200,-0.065
33.1600,-0.018
33.2000,-0.052
33.2400,-0.052
33.2800,-0.067
33.3200,0.010
33.3600,-0.019
33.4000,-0.023
33.4400,-0.037
33.4800,-0.066
33.5200,0.024
33.5600,0.032
33.6000,0.057
33.6400,0.100
33.6800,0.047
33.7200,-0.101
33.7600,0.088
33.8000,0.021
33.8400,0.015
33.8800,0.008
33.9200,0.019
33.9600,-0.099
34.0000,-0.025
34.0400,-0.001
34.0800,0.105
34.1200,0.137
34.1600,-0.086
34.2000,0.002
34.2400,0.031
34.2800,0.142
34.3200,-0.039
34.3600,-0.054
34.4000,-0.071
34.4400,0.051
34.4800,-0.005
34.5200,-0.024
34.5600,-0.027
34.6000,0.096
34.6400,-0.080
34.6800,-0.059
34.7200,0.031
34.7600,0.027
34.8000,-0.108
34.8400,-0.026
34.8800,0.114
34.9200,-0.012
34.9600,-0.074
35.0000,0.011
35.0400,-0.042
35.0800,0.140
35.1200,0.033
35.1600,0.046
35.2000,0.072
35.2400,0.052
35.2800,-0.033
35.3200,0.059
35.3600,-0.025
35.4000,0.029
35.4400,-0.042
35.4800,-0.012
35.5200,-0.017
35.5600,-0.142
35.6000,0.051
35.6400,0.110
35.6800,0.009
35.7200,0.051
35.7600,-0.031
35.8000,0.029
35.8400,-0.056
35.8800,-0.036
35.9200,0.054
35.9600,0.077
36.0000,0.060
36.0400,0.128
36.0800,-0.016
36.1200,0.117
36.1600,-0.050
36.2000,-0.063
36.2400,-0.103
36.2800,0.062
36.3200,-0.040
36.3600,0.012
36.4000,0.005
36.4400,0.072
36.4800,0.075
36.5200,-0.052
36.5600,0.060
36.6000,-0.013
36.6400,-0.042
36.6800,-0.105
36.7200,0.039
36.7600,0.072
36.8000,-0.077
36.8400,0.063
36.8800,0.035
36.9200,0.004
36.9600,-0.022
37.0000,0.000
37.0400,-0.094
37.0800,0.000
37.1200,-0.052
37.1600,-0.056
37.2000,-0.073
37.2400,0.080
37.2800,-0.055
37.3200,-0.056
37.3600,-0.050
37.4000,0.088
37.4400,-0.018
37.4800,-0.099
37.5200,0.022
37.5600,-0.118
37.6000,0.104
37.6400,0.051
37.6800,0.056
37.7200,0.079
37.7600,-0.020
37.8000,-0.074
37.8400,0.016
37.8800,0.130
37.9200,0.074
37.9600,0.148
38.0000,0.185
38.0400,0.401
38.0800,0.385
38.1200,0.467
38.1600,0.508
38.2000,0.669
38.2400,0.792
38.2800,1.008
38.3200,1.151
38.3600,1.441
38.4000,1.782
38.4400,2.323
38.4800,2.644
38.5200,3.458
38.5600,4.471
38.6000,5.485
38.6400,6.841
38.6800,8.169
38.7200,9.150
38.7600,10.153
38.8000,9.884
38.8400,9.229
38.8800,8.207
38.9200,7.329
38.9600,5.996
39.0000,4.846
39.0400,3.881
39.0800,3.060
39.1200,2.273
39.1600,2.009
39.2000,1.503
39.2400,1.264
39.2800,1.099
39.3200,0.818
39.3600,0.709
39.4000,0.681
39.4400,0.369
39.4800,0.399
39.5200,0.368
39.5600,0.311
39.6000,0.211
39.6400,0.231
39.6800,0.122
39.7200,0.100
39.7600,0.032
39.8000,0.014
39.8400,0.111
39.8800,0.049
39.9200,0.027
39.9600,-0.093
40.0000,-0.024
40.0400,0.077
40.0800,-0.010
40.1200,0.006
40.1600,0.007
40.2000,0.013
40.2400,0.010
40.2800,-0.025
40.3200,-0.134
40.3600,0.020
40.4000,0.025
40.4400,0.062
40.4800,0.032
40.5200,0.009
40.5600,0.113
40.6000,0.055
40.6400,0.066
40.6800,0.111
40.7200,-0.002
40.7600,0.146
40.8000,-0.024
40.8400,-0.011
40.8800,0.032
40.9200,-0.015
40.9600,0.040
41.0000,0.039
41.0400,-0.109
41.0800,-0.048
41.1200,-0.014
41.1600,0.036
41.2000,-0.102
41.2400,-0.026
41.2800,0.023
41.3200,-0.001
41.3600,-0.052
41.4000,-0.024
41.4400,0.033
41.4800,-0.005
41.5200,-0.085
41.5600,0.005
41.6000,0.115
41.6400,0.002
41.6800,0.034
41.7200,-0.006
41.7600,0.063
41.8000,0.063
41.8400,-0.026
41.8800,0.028
41.9200,0.008
41.9600,-0.011
42.0000,-0.107
42.0400,0.041
42.0800,0.059
42.1200,0.061
42.1600,0.005
42.2000,-0.068
42.2400,-0.009
42.2800,0.026
42.3200,0.041
42.3600,0.053
42.4000,-0.072
42.4400,-0.055
42.4800,0.068
42.5200,0.049
42.5600,-0.021
42.6000,-0.056
42.6400,0.022
42.6800,-0.039
42.7200,-0.014
42.7600,-0.013
42.8000,-0.056
42.8400,-0.043
42.8800,0.027
42.9200,-0.085
42.9600,0.021
43.0000,-0.029
43.0400,-0.056
43.0800,-0.014
43.1200,-0.023
43.1600,0.043
43.2000,-0.046
43.2400,0.093
43.2800,-0.045
43.3200,0.016
43.3600,-0.046
43.4000,-0.016
43.4400,-0.091
43.4800,0.018
43.5200,-0.053
43.5600,-0.028
43.6000,0.000
43.6400,0.005
43.6800,-0.040
43.7200,-0.009
43.7600,0.001
43.8000,-0.057
43.8400,-0.032
43.8800,0.027
43.9200,-0.057
43.9600,-0.055
44.0000,-0.022
44.0400,-0.043
44.0800,0.078
44.1200,-0.003
44.1600,0.060
44.2000,-0.004
44.2400,0.074
44.2800,0.068
44.3200,0.117
44.3600,0.148
44.4000,0.190
44.4400,0.239
44.4800,0.240
44.5200,0.377
44.5600,0.322
44.6000,0.463
44.6400,0.516
44.6800,0.600
44.7200,0.823
44.7600,0.831
44.8000,0.904
44.8400,1.200
44.8800,1.307
44.9200,1.502
44.9600,1.904
45.0000,2.027
45.0400,2.088
45.0800,2.176
45.1200,2.193
45.1600,2.243
45.2000,1.976
45.2400,1.921
45.2800,1.716
45.3200,1.458
45.3600,1.313
45.4000,1.150
45.4400,0.933
45.4800,0.761
45.5200,0.574
45.5600,0.493
45.6000,0.463
45.6400,0.464
45.6800,0.315
45.7200,0.327
45.7600,0.081
45.8000,0.083
45.8400,0.047
45.8800,0.003
45.9200,0.070
45.9600,-0.001
46.0000,-0.022
46.0400,0.037
46.0800,0.011
46.1200,-0.007
46.1600,-0.038
46.2000,0.000
46.2400,-0.001
46.2800,0.095
46.3200,-0.047
46.3600,-0.002
46.4000,-0.014
46.4400,0.030
46.4800,-0.051
46.5200,0.016
46.5600,0.060
46.6000,0.010
46.6400,-0.051
46.6800,-0.059
46.7200,0.068
46.7600,0.016
46.8000,0.008
46.8400,-0.051
46.8800,-0.027
46.9200,-0.037
46.9600,-0.007
47.0000,0.008
47.0400,0.000
47.0800,-0.011
47.1200,-0.033
47.1600,0.103
47.2000,-0.116
47.2400,0.012
47.2800,0.035
47.3200,-0.034
47.3600,0.083
47.4000,-0.062
47.4400,0.017
47.4800,-0.050
47.5200,-0.021
47.5600,-0.038
47.6000,-0.019
47.6400,0.042
47.6800,-0.035
47.7200,-0.011
47.7600,-0.050
47.8000,0.009
47.8400,0.106
47.8800,-0.051
47.9200,-0.041
47.9600,0.036
48.0000,-0.137
48.0400,0.031
48.0800,-0.075
48.1200,0.004
48.1600,0.000
48.2000,-0.052
48.2400,0.010
48.2800,0.036
48.3200,-0.012
48.3600,-0.006
48.4000,0.000
48.4400,0.046
48.4800,-0.013
48.5200,-0.060
48.5600,0.045
48.6000,-0.005
48.6400,-0.047
48.6800,-0.008
48.7200,0.141
48.7600,-0.022
48.8000,-0.047
48.8400,-0.066
48.8800,0.104
48.9200,0.032
48.9600,-0.051
49.0000,0.016
49.0400,-0.094
49.0800,-0.010
49.1200,-0.047
49.1600,-0.054
49.2000,0.048
49.2400,0.044
49.2800,-0.007
49.3200,0.024
49.3600,0.051
49.4000,0.102
49.4400,0.014
49.4800,-0.028
49.5200,0.009
49.5600,-0.092
49.6000,-0.008
49.6400,-0.010
49.6800,-0.026
49.7200,-0.047
49.7600,0.012
49.8000,0.003
49.8400,-0.039
49.8800,0.004
49.9200,-0.011
49.9600,0.001
50.0000,0.062
50.0400,0.007
50.0800,0.048
50.1200,0.006
50.1600,-0.053
50.2000,-0.008
50.2400,-0.032
50.2800,0.029
50.3200,0.024
50.3600,0.067
50.4000,-0.006
50.4400,0.008
50.4800,0.029
50.5200,0.072
50.5600,-0.086
50.6000,-0.046
50.6400,0.059
50.6800,0.052
50.7200,0.022
50.7600,0.011
50.8000,0.132
50.8400,-0.041
50.8800,-0.029
50.9200,0.043
50.9600,0.013
51.0000,-0.019
51.0400,0.003
51.0800,0.009
51.1200,-0.061
51.1600,-0.008
51.2000,0.034
51.2400,0.028
51.2800,0.066
51.3200,-0.044
51.3600,-0.024
51.4000,-0.034
51.4400,0.038
51.4800,0.039
51.5200,0.007
51.5600,0.008
51.6000,-0.025
51.6400,-0.054
51.6800,0.058
51.7200,-0.051
51.7600,-0.044
51.8000,0.021
51.8400,0.005
51.8800,-0.013
51.9200,0.064
51.9600,0.005
52.0000,-0.040
52.0400,0.036
52.0800,-0.031
52.1200,0.047
52.1600,-0.056
52.2000,-0.027
52.2400,-0.004
52.2800,0.076
52.3200,-0.123
52.3600,-0.040
52.4000,0.038
52.4400,0.000
52.4800,-0.067
52.5200,0.011
52.5600,-0.045
52.6000,-0.013
52.6400,0.044
52.6800,0.034
52.7200,0.040
52.7600,-0.026
52.8000,0.066
52.8400,0.073
52.8800,0.037
52.9200,-0.053
52.9600,-0.037
53.0000,0.008
53.0400,0.009
53.0800,-0.039
53.1200,0.015
53.1600,-0.006
53.2000,-0.010
53.2400,-0.023
53.2800,-0.013
53.3200,-0.005
53.3600,0.004
53.4000,-0.003
53.4400,-0.072
53.4800,0.027
53.5200,-0.080
53.5600,0.014
53.6000,0.034
53.6400,-0.050
53.6800,0.033
53.7200,0.030
53.7600,-0.006
53.8000,-0.126
53.8400,0.000
53.8800,0.033
53.9200,0.110
53.9600,-0.077
54.0000,-0.029
54.0400,-0.057
54.0800,0.061
54.1200,0.082
54.1600,-0.029
54.2000,-0.016
54.2400,-0.109
54.2800,0.036
54.3200,0.077
54.3600,0.017
54.4000,-0.054
54.4400,-0.003
54.4800,0.008
54.5200,0.010
54.5600,0.020
54.6000,0.041
54.6400,0.026
54.6800,-0.013
54.7200,0.015
54.7600,0.000
54.8000,0.023
54.8400,-0.045
54.8800,-0.029
54.9200,0.078
54.9600,0.027
55.0000,-0.009
55.0400,0.032
55.0800,0.029
55.1200,0.017
55.1600,0.033
55.2000,-0.031
55.2400,0.016
55.2800,0.073
55.3200,-0.031
55.3600,-0.041
55.4000,0.011
55.4400,0.005
55.4800,-0.043
55.5200,-0.027
55.5600,-0.011
55.6000,-0.008
55.6400,0.029
55.6800,-0.039
55.7200,-0.001
55.7600,-0.044
55.8000,0.002
55.8400,-0.009
55.8800,0.015
55.9200,-0.075
55.9600,0.027
56.0000,0.001
56.0400,-0.042
56.0800,-0.042
56.1200,0.028
56.1600,-0.009
56.2000,-0.029
56.2400,0.060
56.2800,-0.002
56.3200,0.011
56.3600,-0.062
56.4000,0.035
56.4400,-0.027
56.4800,0.009
56.5200,-0.012
56.5600,0.029
56.6000,0.013
56.6400,-0.028
56.6800,0.005
56.7200,-0.026
56.7600,0.029
56.8000,-0.022
56.8400,-0.083
56.8800,0.023
56.9200,0.042
56.9600,0.040
57.0000,0.110
57.0400,-0.009
57.0800,-0.027
57.1200,-0.035
57.1600,-0.041
57.2000,-0.025
57.2400,0.127
57.2800,-0.019
57.3200,0.007
57.3600,0.023
57.4000,0.022
57.4400,-0.004
57.4800,0.022
57.5200,0.079
57.5600,-0.024
57.6000,-0.012
57.6400,0.044
57.6800,0.089
57.7200,0.033
57.7600,0.018
57.8000,-0.024
57.8400,-0.048
57.8800,0.020
57.9200,0.033
57.9600,-0.015
58.0000,0.047
58.0400,0.069
58.0800,0.050
58.1200,0.011
58.1600,0.032
58.2000,-0.029
58.2400,-0.042
58.2800,0.007
58.3200,0.027
58.3600,-0.037
58.4000,0.017
58.4400,-0.049
58.4800,0.030
58.5200,0.019
58.5600,-0.049
58.6000,0.054
58.6400,0.021
58.6800,0.022
58.7200,-0.027
58.7600,0.038
58.8000,0.027
58.8400,0.031
58.8800,-0.036
58.9200,-0.015
58.9600,-0.017
59.0000,0.029
59.0400,0.074
59.0800,-0.005
59.1200,0.003
59.1600,-0.060
59.2000,-0.004
59.2400,0.043
59.2800,-0.035
59.3200,0.043
59.3600,0.028
59.4000,-0.054
59.4400,0.057
59.4800,0.052
59.5200,-0.051
59.5600,-0.040
59.6000,0.008
59.6400,-0.028
59.6800,0.065
59.7200,0.039
59.7600,0.040
59.8000,0.041
59.8400,0.095
59.8800,0.015
59.9200,0.018
59.9600,0.050
60.0000,0.034
60.0400,0.044
60.0800,0.018
60.1200,-0.038
60.1600,-0.020
60.2000,0.004
60.2400,-0.005
60.2800,0.012
60.3200,0.007
60.3600,-0.021
60.4000,-0.040
60.4400,0.005
60.4800,0.043
60.5200,-0.016
60.5600,0.057
60.6000,-0.016
60.6400,0.047
60.6800,0.112
60.7200,-0.029
60.7600,0.019
60.8000,0.022
60.8400,0.024
60.8800,-0.033
60.9200,-0.013
60.9600,0.031
61.0000,-0.004
61.0400,0.012
61.0800,0.032
61.1200,0.014
61.1600,-0.040
61.2000,-0.054
61.2400,0.043
61.2800,0.016
61.3200,-0.033
61.3600,0.004
61.4000,0.059
61.4400,-0.066
61.4800,0.014
61.5200,-0.012
61.5600,0.019
61.6000,0.056
61.6400,0.059
61.6800,0.098
61.7200,0.064
61.7600,0.027
61.8000,-0.003
61.8400,-0.040
61.8800,-0.059
61.9200,0.047
61.9600,0.025
62.0000,0.083
62.0400,0.042
62.0800,0.015
62.1200,-0.044
62.1600,-0.022
62.2000,-0.012
62.2400,0.004
62.2800,0.019
62.3200,0.052
62.3600,0.060
62.4000,0.009
62.4400,0.007
62.4800,-0.056
62.5200,0.019
62.5600,-0.007
62.6000,-0.018
62.6400,-0.035
62.6800,-0.044
62.7200,0.048
62.7600,0.005
62.8000,-0.065
62.8400,0.010
62.8800,0.082
62.9200,-0.055
62.9600,-0.040
63.0000,0.014
63.0400,-0.039
63.0800,0.022
63.1200,-0.040
63.1600,0.023
63.2000,-0.008
63.2400,-0.004
63.2800,-0.055
63.3200,0.002
63.3600,-0.040
63.4000,-0.040
63.4400,0.023
63.4800,-0.048
63.5200,-0.015
63.5600,-0.009
63.6000,-0.036
63.6400,-0.006
63.6800,-0.036
63.7200,0.000
63.7600,-0.002
63.8000,0.013
63.8400,0.018
63.8800,0.015
63.9200,-0.047
63.9600,0.004
64.0000,0.002
64.0400,-0.068
64.0800,-0.009
64.1200,-0.055
64.1600,0.053
64.2000,0.073
64.2400,-0.058
64.2800,-0.041
64.3200,0.010
64.3600,0.019
64.4000,-0.001
64.4400,0.043
64.4800,-0.019
64.5200,0.003
64.5600,-0.059
64.6000,-0.009
64.6400,-0.021
64.6800,0.011
64.7200,-0.042
64.7600,-0.028
64.8000,-0.074
64.8400,0.030
64.8800,0.014
64.9200,-0.026
64.9600,-0.030
65.0000,0.011
65.0400,0.066
65.0800,-0.022
65.1200,0.097
65.1600,0.047
65.2000,0.052
65.2400,0.050
65.2800,0.108
65.3200,0.223
65.3600,0.203
65.4000,0.415
65.4400,0.364
65.4800,0.466
65.5200,0.571
65.5600,0.686
65.6000,0.820
65.6400,0.869
65.6800,0.958
65.7200,0.922
65.7600,0.884
65.8000,0.809
65.8400,0.747
65.8800,0.730
65.9200,0.626
65.9600,0.613
66.0000,0.431
66.0400,0.338
66.0800,0.196
66.1200,0.230
66.1600,0.190
66.2000,0.109
66.2400,0.128
66.2800,0.084
66.3200,0.008
66.3600,0.015
66.4000,-0.005
66.4400,-0.020
66.4800,-0.008
66.5200,0.020
66.5600,-0.084
66.6000,-0.021
66.6400,0.049
66.6800,0.011
66.7200,0.124
66.7600,-0.008
66.8000,-0.051
66.8400,-0.126
66.8800,0.049
66.9200,0.039
66.9600,-0.032
67.0000,-0.040
67.0400,-0.013
67.0800,-0.051
67.1200,0.005
67.1600,0.016
67.2000,0.007
67.2400,-0.007
67.2800,-0.040
67.3200,-0.028
67.3600,-0.063
67.4000,0.027
67.4400,-0.024
67.4800,0.090
67.5200,0.035
67.5600,-0.051
67.6000,0.088
67.6400,0.014
67.6800,-0.060
67.7200,0.044
67.7600,0.147
67.8000,0.117
67.8400,0.103
67.8800,0.161
67.9200,0.180
67.9600,0.132
68.0000,0.125
68.0400,0.200
68.0800,0.316
68.1200,0.337
68.1600,0.428
68.2000,0.517
68.2400,0.538
68.2800,0.330
68.3200,0.536
68.3600,0.713
68.4000,0.709
68.4400,0.827
68.4800,0.900
68.5200,1.110
68.5600,1.168
68.6000,1.326
68.6400,1.460
68.6800,1.842
68.7200,2.750
68.7600,3.875
68.8000,5.337
68.8400,5.832
68.8800,5.869
68.9200,6.405
68.9600,8.938
69.0000,13.818
69.0400,27.083
69.0800,95.267
69.1200,366.353
69.1600,458.473
69.2000,183.496
69.2400,52.109
69.2800,70.225
69.3200,198.843
69.3600,228.040
69.4000,89.444
69.4400,22.789
69.4800,11.166
69.5200,7.409
69.5600,5.341
69.6000,4.119
69.6400,3.234
69.6800,2.887
69.7200,2.249
69.7600,2.007
69.8000,1.793
69.8400,1.586
69.8800,1.295
69.9200,1.346
69.9600,1.001
70.0000,0.940
70.0400,0.887
70.0800,0.793
70.1200,0.750
70.1600,0.618
70.2000,0.783
70.2400,0.422
70.2800,0.486
70.3200,0.444
70.3600,0.387
70.4000,0.392
70.4400,0.411
70.4800,0.250
70.5200,0.213
70.5600,0.200
70.6000,0.228
70.6400,0.192
70.6800,0.185
70.7200,0.118
70.7600,0.115
70.8000,0.155
70.8400,0.082
70.8800,0.097
70.9200,0.054
70.9600,0.108
71.0000,0.034
71.0400,0.038
71.0800,0.008
71.1200,0.017
71.1600,0.038
71.2000,-0.050
71.2400,-0.048
71.2800,0.052
71.3200,-0.134
71.3600,-0.027
71.4000,-0.029
71.4400,-0.048
71.4800,-0.010
71.5200,0.015
71.5600,-0.051
71.6000,-0.006
71.6400,0.017
71.6800,-0.069
71.7200,-0.001
71.7600,0.020
71.8000,-0.054
71.8400,0.089
71.8800,0.060
71.9200,-0.031
71.9600,-0.032
72.0000,-0.043
72.0400,0.019
72.0800,-0.022
72.1200,0.046
72.1600,-0.012
72.2000,-0.013
72.2400,-0.002
72.2800,0.039
72.3200,-0.012
72.3600,-0.025
72.4000,0.007
72.4400,-0.018
72.4800,-0.040
72.5200,0.002
72.5600,0.007
72.6000,-0.035
72.6400,-0.016
72.6800,0.024
72.7200,-0.001
72.7600,-0.020
72.8000,-0.010
72.8400,0.003
72.8800,-0.056
72.9200,-0.001
72.9600,-0.021
73.0000,0.024
73.0400,0.041
73.0800,-0.076
73.1200,-0.030
73.1600,-0.038
73.2000,-0.038
73.2400,-0.023
73.2800,0.013
73.3200,0.033
73.3600,0.017
73.4000,-0.026
73.4400,0.009
73.4800,-0.067
73.5200,0.031
73.5600,0.031
73.6000,-0.013
73.6400,-0.037
73.6800,-0.016
73.7200,0.042
73.7600,-0.095
73.8000,-0.015
73.8400,-0.026
73.8800,-0.010
73.9200,-0.052
73.9600,0.007
74.0000,0.001
74.0400,-0.006
74.0800,0.045
74.1200,0.009
74.1600,-0.012
74.2000,0.068
74.2400,-0.040
74.2800,0.026
74.3200,-0.034
74.3600,0.024
74.4000,-0.035
74.4400,-0.028
74.4800,0.016
74.5200,-0.002
74.5600,0.049
74.6000,0.049
74.6400,-0.049
74.6800,-0.034
74.7200,0.010
74.7600,0.001
74.8000,0.014
74.8400,-0.004
74.8800,-0.004
74.9200,0.008
74.9600,-0.003
75.0000,0.029
75.0400,-0.019
75.0800,0.062
75.1200,-0.008
75.1600,-0.008
75.2000,0.033
75.2400,-0.017
75.2800,-0.034
75.3200,-0.011
75.3600,-0.020
75.4000,-0.032
75.4400,0.022
75.4800,0.049
75.5200,-0.044
75.5600,-0.002
75.6000,-0.018
75.6400,0.074
75.6800,-0.070
75.7200,-0.016
75.7600,-0.029
75.8000,-0.032
75.8400,-0.085
75.8800,0.045
75.9200,-0.008
75.9600,-0.029
76.0000,0.038
76.0400,-0.028
76.0800,-0.023
76.1200,-0.040
76.1600,0.019
76.2000,0.013
76.2400,-0.021
76.2800,-0.013
76.3200,0.002
76.3600,-0.009
76.4000,0.030
76.4400,-0.004
76.4800,-0.008
76.5200,-0.003
76.5600,-0.010
76.6000,0.010
76.6400,-0.036
76.6800,-0.008
76.7200,0.006
76.7600,0.011
76.8000,0.001
76.8400,-0.054
76.8800,0.027
76.9200,0.025
76.9600,-0.039
77.0000,-0.015
77.0400,-0.003
77.0800,-0.033
77.1200,-0.020
77.1600,-0.046
77.2000,0.021
77.2400,0.021
77.2800,-0.021
77.3200,0.020
77.3600,0.035
77.4000,-0.013
77.4400,-0.042
77.4800,0.012
77.5200,-0.018
77.5600,0.010
77.6000,0.074
77.6400,-0.004
77.6800,0.072
77.7200,0.001
77.7600,-0.020
77.8000,-0.003
77.8400,0.007
77.8800,-0.034
77.9200,-0.015
77.9600,0.028
78.0000,0.023
78.0400,-0.011
78.0800,0.035
78.1200,0.036
78.1600,0.040
78.2000,0.009
78.2400,0.036
78.2800,0.025
78.3200,0.077
78.3600,0.110
78.4000,0.091
78.4400,0.065
78.4800,0.094
78.5200,0.097
78.5600,0.166
78.6000,0.243
78.6400,0.331
78.6800,0.360
78.7200,0.390
78.7600,0.472
78.8000,0.570
78.8400,0.535
78.8800,0.576
78.9200,0.574
78.9600,0.713
79.0000,0.739
79.0400,0.671
79.0800,0.698
79.1200,0.673
79.1600,0.601
79.2000,0.556
79.2400,0.520
79.2800,0.450
79.3200,0.415
79.3600,0.376
79.4000,0.274
79.4400,0.260
79.4800,0.124
79.5200,0.165
79.5600,0.107
79.6000,0.086
79.6400,0.016
79.6800,0.081
79.7200,0.124
79.7600,0.072
79.8000,0.027
79.8400,0.088
79.8800,-0.052
79.9200,0.009
79.9600,0.023
80.0000,0.038
80.0400,-0.029
80.0800,0.008
80.1200,-0.017
80.1600,0.079
80.2000,0.036
80.2400,0.001
80.2800,-0.032
80.3200,-0.009
80.3600,0.018
80.4000,0.099
80.4400,0.038
80.4800,0.056
80.5200,0.003
80.5600,-0.041
80.6000,-0.007
80.6400,0.020
80.6800,-0.007
80.7200,0.008
80.7600,0.024
80.8000,0.019
80.8400,0.022
80.8800,-0.033
80.9200,-0.005
80.9600,0.032
81.0000,0.050
81.0400,-0.015
81.0800,-0.031
81.1200,-0.034
81.1600,0.051
81.2000,0.107
81.2400,-0.034
81.2800,-0.009
81.3200,-0.022
81.3600,0.008
81.4000,0.004
81.4400,-0.025
81.4800,-0.016
81.5200,-0.047
81.5600,0.053
81.6000,-0.014
81.6400,-0.008
81.6800,-0.031
81.7200,-0.015
81.7600,-0.021
81.8000,0.000
81.8400,-0.038
81.8800,0.053
81.9200,-0.032
81.9600,-0.012
82.0000,0.022
82.0400,-0.041
82.0800,-0.022
82.1200,-0.030
82.1600,-0.015
82.2000,-0.014
82.2400,0.007
82.2800,0.010
82.3200,0.002
82.3600,0.001
82.4000,-0.031
82.4400,-0.016
82.4800,-0.002
82.5200,-0.006
82.5600,0.021
82.6000,-0.018
82.6400,-0.005
82.6800,-0.001
82.7200,-0.111
82.7600,0.003
82.8000,0.047
82.8400,-0.031
82.8800,-0.024
82.9200,0.045
82.9600,0.068
83.0000,0.140
83.0400,0.122
83.0800,0.126
83.1200,0.124
83.1600,0.123
83.2000,0.110
83.2400,0.155
83.2800,0.164
83.3200,0.156
83.3600,0.215
83.4000,0.142
83.4400,0.050
83.4800,0.064
83.5200,0.129
83.5600,0.032
83.6000,0.020
83.6400,0.017
83.6800,-0.011
83.7200,0.046
83.7600,-0.045
83.8000,-0.015
83.8400,-0.010
83.8800,0.005
83.9200,-0.020
83.9600,-0.017
84.0000,-0.031
84.0400,-0.003
84.0800,-0.074
84.1200,0.009
84.1600,0.017
84.2000,-0.002
84.2400,0.014
84.2800,-0.030
84.3200,-0.040
84.3600,0.032
84.4000,0.033
84.4400,-0.024
84.4800,-0.025
84.5200,-0.014
84.5600,0.031
84.6000,0.030
84.6400,0.002
84.6800,0.043
84.7200,0.006
84.7600,-0.029
84.8000,-0.034
84.8400,0.039
84.8800,0.018
84.9200,0.017
84.9600,-0.024
85.0000,0.004
85.0400,0.009
85.0800,-0.068
85.1200,-0.011
85.1600,0.022
85.2000,-0.006
85.2400,-0.024
85.2800,0.014
85.3200,-0.019
85.3600,-0.029
85.4000,0.007
85.4400,0.011
85.4800,0.000
85.5200,-0.025
85.5600,-0.057
85.6000,0.069
85.6400,0.071
85.6800,0.047
85.7200,0.029
85.7600,-0.040
85.8000,-0.028
85.8400,-0.028
85.8800,0.006
85.9200,0.006
85.9600,-0.025
86.0000,0.026
86.0400,0.004
86.0800,-0.014
86.1200,-0.040
86.1600,0.015
86.2000,0.010
86.2400,0.010
86.2800,0.011
86.3200,-0.028
86.3600,0.007
86.4000,-0.014
86.4400,-0.022
86.4800,-0.028
86.5200,0.002
86.5600,-0.005
86.6000,-0.009
86.6400,0.019
86.6800,0.026
86.7200,-0.014
86.7600,-0.008
86.8000,-0.030
86.8400,0.009
86.8800,0.023
86.9200,0.008
86.9600,-0.029
87.0000,0.022
87.0400,0.002
87.0800,0.051
87.1200,0.055
87.1600,0.015
87.2000,0.001
87.2400,-0.027
87.2800,-0.013
87.3200,0.022
87.3600,0.004
87.4000,0.033
87.4400,0.015
87.4800,0.000
87.5200,-0.005
87.5600,0.007
87.6000,-0.014
87.6400,-0.011
87.6800,-0.053
87.7200,0.019
87.7600,-0.008
87.8000,0.041
87.8400,0.070
87.8800,-0.019
87.9200,-0.017
87.9600,-0.027
88.0000,0.008
88.0400,0.019
88.0800,-0.051
88.1200,0.012
88.1600,-0.012
88.2000,0.010
88.2400,-0.005
88.2800,0.006
88.3200,-0.008
88.3600,-0.003
88.4000,0.035
88.4400,0.035
88.4800,-0.005
88.5200,-0.027
88.5600,-0.006
88.6000,-0.008
88.6400,0.056
88.6800,0.027
88.7200,-0.036
88.7600,0.028
88.8000,-0.030
88.8400,0.013
88.8800,0.001
88.9200,-0.028
88.9600,0.018
89.0000,0.076
89.0400,-0.028
89.0800,-0.026
89.1200,0.006
89.1600,0.013
89.2000,0.078
89.2400,0.010
89.2800,0.033
89.3200,-0.008
89.3600,-0.077
89.4000,0.021
89.4400,-0.049
89.4800,0.018
89.5200,0.024
89.5600,0.016
89.6000,-0.012
89.6400,0.001
89.6800,0.005
89.7200,-0.031
89.7600,-0.006
89.8000,0.020
89.8400,-0.004
89.8800,-0.013
89.9200,-0.053
89.9600,0.016
90.0000,0.000
