2.003999999999999915e+01,4.759920875571039406e-02
2.007999999999999829e+01,5.460060104670147463e-02
2.012000000000000099e+01,5.260982969159799794e-02
2.016000000000000014e+01,4.471797804380429203e-02
2.019999999999999929e+01,4.694248551918628332e-02
2.023999999999999844e+01,5.001009488966502020e-02
2.028000000000000114e+01,6.263204431841068454e-02
2.032000000000000028e+01,3.563197742801154505e-02
2.035999999999999943e+01,4.179089721296165572e-02
2.039999999999999858e+01,6.621539163541706463e-02
2.044000000000000128e+01,4.371166311013514189e-02
2.048000000000000043e+01,4.312660626477408249e-02
2.051999999999999957e+01,7.036138185762151609e-02
2.055999999999999872e+01,6.471831615124712389e-02
2.060000000000000142e+01,8.436600963475496262e-02
2.064000000000000057e+01,9.642655487905255063e-02
2.067999999999999972e+01,8.853560951069053275e-02
2.071999999999999886e+01,1.455575093651581275e-01
2.076000000000000156e+01,1.261453591848933908e-01
2.080000000000000071e+01,9.155884460437181682e-02
2.083999999999999986e+01,6.371656758971180889e-02
2.087999999999999901e+01,4.655263471578323375e-02
2.092000000000000171e+01,5.720851636040384658e-02
2.096000000000000085e+01,3.863963941249082268e-02
2.100000000000000000e+01,5.800685205677285489e-02
2.103999999999999915e+01,4.168612449335912240e-02
2.107999999999999829e+01,5.908636683088479974e-02
2.112000000000000099e+01,5.484905240119618969e-02
2.116000000000000014e+01,6.859627082117225605e-02
2.119999999999999929e+01,5.789585148511978280e-02
2.123999999999999844e+01,2.527686226546677767e-02
2.128000000000000114e+01,3.846216682791875341e-02
2.132000000000000028e+01,4.237424624481050950e-02
2.135999999999999943e+01,3.785612194564077354e-02
2.139999999999999858e+01,4.851244233945770784e-02
2.144000000000000128e+01,3.022499037763811541e-02
2.148000000000000043e+01,3.385616529659166846e-02
2.151999999999999957e+01,4.647960924189253884e-02
2.155999999999999872e+01,4.252361603714250454e-02
2.160000000000000142e+01,5.627112822994412289e-02
2.164000000000000057e+01,3.629772751897931971e-02
2.167999999999999972e+01,6.184759492997195934e-02
2.171999999999999886e+01,2.276569439955748037e-02
2.176000000000000156e+01,4.747256153890588165e-02
2.180000000000000071e+01,4.351664793541289156e-02
2.183999999999999986e+01,5.557818253474623715e-02
2.187999999999999901e+01,6.145755204636747099e-02
2.192000000000000171e+01,4.036018188217904007e-02
2.196000000000000085e+01,6.281901311276889832e-02
2.200000000000000000e+01,5.099489983092279216e-02
2.203999999999999915e+01,4.507194713449598489e-02
2.207999999999999829e+01,6.753077247058361654e-02
2.212000000000000099e+01,3.884618348904163299e-02
2.216000000000000014e+01,3.067515222241080919e-02
2.219999999999999929e+01,3.627349110700725521e-02
2.223999999999999844e+01,3.484662555473330703e-02
2.228000000000000114e+01,5.842943618928516519e-02
2.232000000000000028e+01,4.688626475420874101e-02
2.235999999999999943e+01,4.349230149273033974e-02
2.239999999999999858e+01,2.885801051919432980e-02
2.244000000000000128e+01,4.457253563389727141e-02
2.248000000000000043e+01,4.033548949747450818e-02
2.251999999999999957e+01,4.677671403118061066e-02
2.255999999999999872e+01,1.190977545272139948e-02
2.260000000000000142e+01,2.593815666686249966e-02
2.264000000000000057e+01,8.493642101995808533e-03
2.267999999999999972e+01,3.741537408140328813e-02
2.271999999999999886e+01,3.542622217884737468e-02
2.276000000000000156e+01,2.978393542972374367e-02
2.280000000000000071e+01,6.011060345091108481e-02
2.283999999999999986e+01,5.924537447374889770e-02
2.287999999999999901e+01,3.365142473750139945e-02
2.292000000000000171e+01,3.194309155467191935e-02
2.296000000000000085e+01,3.248277711569834414e-02
2.300000000000000000e+01,4.510575054570415549e-02
2.303999999999999915e+01,3.946317407999109378e-02
2.307999999999999829e+01,5.489612959494961225e-02
2.312000000000000099e+01,4.166624523219178422e-02
2.316000000000000014e+01,2.113010747685941521e-02
2.319999999999999929e+01,4.977027037512718466e-02
2.323999999999999844e+01,4.806154157685117723e-02
2.328000000000000114e+01,4.382368559840353617e-02
2.332000000000000028e+01,2.075825169949901960e-02
2.335999999999999943e+01,3.675283262875345819e-02
2.339999999999999858e+01,3.139076238922488410e-02
2.344000000000000128e+01,4.120304545242146205e-02
2.348000000000000043e+01,2.263348025069656863e-02
2.351999999999999957e+01,3.750376789950201489e-02
2.355999999999999872e+01,3.270344365459020713e-02
2.360000000000000142e+01,3.914335717770419526e-02
2.364000000000000057e+01,5.626149119590142383e-02
2.367999999999999972e+01,4.106365962251198182e-02
2.371999999999999886e+01,4.778435457980457352e-02
2.376000000000000156e+01,3.146233579769130290e-02
2.380000000000000071e+01,1.542124394473198129e-02
2.383999999999999986e+01,2.129867324655703581e-02
2.387999999999999901e+01,3.785431229166976580e-02
2.392000000000000171e+01,6.171606640224518853e-02
2.396000000000000085e+01,4.932773401063705182e-02
2.400000000000000000e+01,2.682303319028761165e-02
2.403999999999999915e+01,4.646940188004744510e-02
2.407999999999999829e+01,6.190056110738787615e-02
2.412000000000000099e+01,6.187619946081233946e-02
2.416000000000000014e+01,3.796608293370706128e-02
2.419999999999999929e+01,9.840751568284225245e-03
2.423999999999999844e+01,5.618237090929160960e-02
2.428000000000000114e+01,3.002389088940205300e-02
2.432000000000000028e+01,4.882654524074341723e-02
2.435999999999999943e+01,4.739653637807270115e-02
2.439999999999999858e+01,2.657688573088900011e-02
2.444000000000000128e+01,2.570867517558303103e-02
2.448000000000000043e+01,4.619694162262997367e-02
2.451999999999999957e+01,1.975680234141654126e-02
2.455999999999999872e+01,5.289018918502809419e-02
2.460000000000000142e+01,2.925989579935800444e-02
2.464000000000000057e+01,6.717017913799895601e-02
2.467999999999999972e+01,3.229933745559554481e-02
2.471999999999999886e+01,8.387675625684197847e-03
2.476000000000000156e+01,4.517356192272117127e-02
2.480000000000000071e+01,3.193994480236544975e-02
2.483999999999999986e+01,5.017906721424685718e-02
2.487999999999999901e+01,3.329209287068160550e-02
2.492000000000000171e+01,5.209297058274588860e-02
2.496000000000000085e+01,2.846154670273694579e-02
2.500000000000000000e+01,2.955866941538310214e-02
2.503999999999999915e+01,3.824286475893493020e-02
2.507999999999999829e+01,4.299281358140737835e-02
2.512000000000000099e+01,5.392479274841227577e-02
2.516000000000000014e+01,5.305430507673489920e-02
2.519999999999999929e+01,4.010034103392103727e-02
2.523999999999999844e+01,4.344468061731903558e-02
2.528000000000000114e+01,2.402724610709471714e-02
2.532000000000000028e+01,2.062710389866246816e-02
2.535999999999999943e+01,1.891285743515492071e-02
2.539999999999999858e+01,3.349690742999560794e-02
2.544000000000000128e+01,4.555173347850534349e-02
2.548000000000000043e+01,6.322655826287748582e-02
2.551999999999999957e+01,3.762603314618891137e-02
2.555999999999999872e+01,3.085286698437939013e-02
2.560000000000000142e+01,1.986442326544553966e-02
2.564000000000000057e+01,1.365294789304577830e-02
2.567999999999999972e+01,2.767386480206869906e-02
2.571999999999999886e+01,3.298337493025731842e-02
2.576000000000000156e+01,3.632566225736420101e-02
2.580000000000000071e+01,5.624723586364849259e-02
2.583999999999999986e+01,4.300972389072211383e-02
2.587999999999999901e+01,5.983986615647791246e-02
2.592000000000000171e+01,7.751285585817077606e-02
2.596000000000000085e+01,5.359652239010728042e-02
2.600000000000000000e+01,5.974783778482842256e-02
2.603999999999999915e+01,6.365091009421781909e-02
2.607999999999999829e+01,8.019914777218772883e-02
2.612000000000000099e+01,8.044875175648143195e-02
2.616000000000000014e+01,6.018460414780859441e-02
2.619999999999999929e+01,8.881561505480427277e-02
2.623999999999999844e+01,1.118262810307797117e-01
2.628000000000000114e+01,1.202243525881446923e-01
2.632000000000000028e+01,1.179439363017688452e-01
2.635999999999999943e+01,1.271846418782590638e-01
2.639999999999999858e+01,1.813863886437524775e-01
2.644000000000000128e+01,2.468282459476917878e-01
2.648000000000000043e+01,3.024346314614915765e-01
2.651999999999999957e+01,3.937287973522841655e-01
2.655999999999999872e+01,4.664762479138691575e-01
2.660000000000000142e+01,6.013262028744116305e-01
2.664000000000000057e+01,6.046643272455337614e-01
2.667999999999999972e+01,5.647270497485833429e-01
2.671999999999999886e+01,5.110201813428622009e-01
2.676000000000000156e+01,4.157239539280664364e-01
2.680000000000000071e+01,3.268906893357229060e-01
2.683999999999999986e+01,2.852665081446638107e-01
2.687999999999999901e+01,2.703378435072798514e-01
2.692000000000000171e+01,2.680543066071919833e-01
2.696000000000000085e+01,2.407608584270076180e-01
2.700000000000000000e+01,1.999788145347794199e-01
2.703999999999999915e+01,1.496422815053767563e-01
2.707999999999999829e+01,1.080167606785712858e-01
2.712000000000000099e+01,9.308674565364544184e-02
2.716000000000000014e+01,7.366037544443651552e-02
2.719999999999999929e+01,7.137524427657468418e-02
2.723999999999999844e+01,6.740383174538025490e-02
2.728000000000000114e+01,5.303489610375173441e-02
2.732000000000000028e+01,6.732851148759098903e-02
2.735999999999999943e+01,6.953855373413457552e-02
2.739999999999999858e+01,7.764951644266518405e-02
2.744000000000000128e+01,6.861876310117928646e-02
2.748000000000000043e+01,8.740753039583308570e-02
2.751999999999999957e+01,7.050806718431347486e-02
2.755999999999999872e+01,7.861804362011906577e-02
2.760000000000000142e+01,5.441187885167832194e-02
2.764000000000000057e+01,4.228879408417098029e-02
2.767999999999999972e+01,3.550460175391278311e-02
2.771999999999999886e+01,3.883643165723832391e-02
2.776000000000000156e+01,5.200327426169325945e-02
2.780000000000000071e+01,3.706908280939635175e-02
2.783999999999999986e+01,5.894664356117006870e-02
2.787999999999999901e+01,1.675417588976289840e-02
2.792000000000000171e+01,4.537539343757433785e-02
2.796000000000000085e+01,5.404479423492993678e-02
2.800000000000000000e+01,3.910927586351616025e-02
2.803999999999999915e+01,5.253735891366143052e-02
2.807999999999999829e+01,2.822223175693489364e-02
2.812000000000000099e+01,2.906000053168135422e-02
2.816000000000000014e+01,4.130304139686512277e-02
2.819999999999999929e+01,3.547058236192639213e-02
2.823999999999999844e+01,4.197607976708381955e-02
2.828000000000000114e+01,4.440344213741682922e-02
2.832000000000000028e+01,1.394284909121977500e-02
2.835999999999999943e+01,7.021531322402793651e-02
2.839999999999999858e+01,3.984957569534725019e-02
2.844000000000000128e+01,4.462357572785408122e-02
2.848000000000000043e+01,2.287769671691640763e-02
2.851999999999999957e+01,3.888576914435593057e-02
2.855999999999999872e+01,3.809821303718668312e-02
2.860000000000000142e+01,2.553984811386828327e-02
2.864000000000000057e+01,3.930266863725046661e-02
2.867999999999999972e+01,1.683265007015556994e-02
2.871999999999999886e+01,8.182120138810661247e-02
2.876000000000000156e+01,4.683956461773811780e-02
2.880000000000000071e+01,5.138600924465985126e-02
2.883999999999999986e+01,4.792184267171128303e-02
2.887999999999999901e+01,2.946475187477560695e-02
2.892000000000000171e+01,4.436484404708688351e-02
2.896000000000000085e+01,-2.098305615290167736e-03
2.900000000000000000e+01,2.585538395948698900e-02
2.903999999999999915e+01,5.299399023359319116e-02
2.907999999999999829e+01,3.871721932814406464e-02
2.912000000000000099e+01,6.184392947103406479e-03
2.916000000000000014e+01,1.854164485171807403e-02
2.919999999999999929e+01,5.762562060150307197e-02
2.923999999999999844e+01,1.330634059210598213e-02
2.928000000000000114e+01,4.438357705961716582e-02
2.932000000000000028e+01,1.219720809313759591e-02
2.935999999999999943e+01,5.859643086829775110e-02
2.939999999999999858e+01,5.228430261083288899e-02
2.944000000000000128e+01,5.911373562772050810e-02
2.948000000000000043e+01,3.759428145980509006e-02
2.951999999999999957e+01,4.985527984966308529e-02
2.955999999999999872e+01,4.707085810132131953e-02
2.960000000000000142e+01,2.129728670337973154e-02
2.964000000000000057e+01,5.117953385242623998e-02
2.967999999999999972e+01,5.505861930278937999e-02
2.971999999999999886e+01,5.725131228793350208e-02
2.976000000000000156e+01,3.049986018853131572e-02
2.980000000000000071e+01,4.252712667028796245e-02
2.983999999999999986e+01,5.005791790604525310e-02
2.987999999999999901e+01,4.269494570577155035e-02
2.992000000000000171e+01,4.994402102876849270e-02
2.996000000000000085e+01,3.724119000301391591e-02
3.000000000000000000e+01,3.100117844243848592e-02
3.003999999999999915e+01,3.909220128874781042e-02
3.007999999999999829e+01,4.633983876360959347e-02
3.012000000000000099e+01,3.925571753162140909e-02
3.016000000000000014e+01,6.223905879796287621e-02
3.019999999999999929e+01,5.908831267301549450e-02
3.023999999999999844e+01,5.453215852778060813e-02
3.028000000000000114e+01,5.896788096835779008e-02
3.032000000000000028e+01,5.497299829250900521e-02
3.035999999999999943e+01,6.474712020684102176e-02
3.039999999999999858e+01,6.384257149690909794e-02
3.044000000000000128e+01,1.104279526518174848e-01
3.048000000000000043e+01,1.182338855497039876e-01
3.051999999999999957e+01,2.224250915734566902e-01
3.055999999999999872e+01,3.887186245915415506e-01
3.060000000000000142e+01,7.070369597682365503e-01
3.064000000000000057e+01,9.716824292741680358e-01
3.067999999999999972e+01,1.000000000000000000e+00
3.071999999999999886e+01,8.518443188777663488e-01
3.076000000000000156e+01,6.075835978951440453e-01
3.080000000000000071e+01,3.917042642964670418e-01
3.083999999999999986e+01,2.452334464010556547e-01
3.087999999999999901e+01,1.996440093516293757e-01
3.092000000000000171e+01,1.650134743999785436e-01
3.096000000000000085e+01,1.390937778302310246e-01
3.100000000000000000e+01,1.165457707811438648e-01
3.103999999999999915e+01,1.251892177690893115e-01
3.107999999999999829e+01,1.006733444302894409e-01
3.112000000000000099e+01,9.386055000115359204e-02
3.116000000000000014e+01,1.224543203404764302e-01
3.119999999999999929e+01,1.232279120464331301e-01
3.123999999999999844e+01,1.313072908880903999e-01
3.128000000000000114e+01,1.652389659457077775e-01
3.132000000000000028e+01,1.280752649588690339e-01
3.135999999999999943e+01,9.484525284597397632e-02
3.139999999999999858e+01,8.887257027558262412e-02
3.144000000000000128e+01,1.135293083415880033e-01
3.148000000000000043e+01,1.100848474899775581e-01
3.151999999999999957e+01,9.511864261759298000e-02
3.155999999999999872e+01,1.217411548847496250e-01
3.160000000000000142e+01,1.430240898379419867e-01
3.164000000000000057e+01,2.109538776755324474e-01
3.167999999999999972e+01,3.227204392006726152e-01
3.171999999999999886e+01,4.971512912341102264e-01
3.176000000000000156e+01,6.406708544012877926e-01
3.180000000000000071e+01,6.889283543384276953e-01
3.183999999999999986e+01,5.815071250485879251e-01
3.187999999999999901e+01,4.358684002638957278e-01
3.192000000000000171e+01,2.896672154178123737e-01
3.196000000000000085e+01,1.721283737291510463e-01
3.200000000000000000e+01,1.093855932713543866e-01
3.203999999999999915e+01,1.028052261366378256e-01
3.207999999999999829e+01,5.127062702111283288e-02
3.211999999999999744e+01,1.521981042388356742e-02
3.215999999999999659e+01,2.070826724226552951e-02
3.220000000000000284e+01,1.717221672065562532e-01
3.224000000000000199e+01,1.527383413698595871e-01
3.228000000000000114e+01,7.286959187756394951e-02
3.232000000000000028e+01,-3.959321934175717705e-02
3.235999999999999943e+01,1.366293983977447113e-01
3.239999999999999858e+01,1.751977905740739194e-01
3.243999999999999773e+01,1.400780042992947894e-01
3.247999999999999687e+01,8.107432662684929681e-02
3.252000000000000313e+01,3.145315989582606053e-03
3.256000000000000227e+01,9.201203710017324955e-02
3.260000000000000142e+01,3.785162073376396874e-02
3.264000000000000057e+01,4.500790791425047371e-02
3.267999999999999972e+01,9.255158569837407256e-02
3.271999999999999886e+01,5.529068825245574137e-02
3.275999999999999801e+01,1.025727104898719461e-01
3.279999999999999716e+01,1.596700725694744361e-01
3.284000000000000341e+01,-2.527643150557978835e-03
3.288000000000000256e+01,1.155440183133443904e-01
3.292000000000000171e+01,1.252329040250091396e-01
3.296000000000000085e+01,7.844039849406937714e-02
3.300000000000000000e+01,-3.844545371285963686e-02
3.303999999999999915e+01,3.925561495809751916e-02
3.307999999999999829e+01,2.498819766716980362e-01
3.311999999999999744e+01,1.460029439889855007e-01
3.315999999999999659e+01,1.782795348529297996e-02
3.320000000000000284e+01,7.208888657564795077e-02
3.324000000000000199e+01,6.861869560941323554e-02
3.328000000000000114e+01,1.041850960779251434e-01
3.332000000000000028e+01,1.179149878631651771e-01
3.335999999999999943e+01,1.511382469920298233e-01
3.339999999999999858e+01,1.062216789683217144e-01
3.343999999999999773e+01,3.925372237006342219e-02
3.347999999999999687e+01,1.576226445302067181e-01
3.352000000000000313e+01,4.613715661120218470e-02
3.356000000000000227e+01,1.343749101215793718e-01
3.360000000000000142e+01,2.188798318263599219e-01
3.364000000000000057e+01,1.240428847639453297e-01
3.367999999999999972e+01,1.587893492078034097e-01
3.371999999999999886e+01,1.907252110278982726e-01
3.375999999999999801e+01,2.206934916537285352e-01
3.379999999999999716e+01,2.515042666982110209e-01
3.384000000000000341e+01,2.834385421098681301e-01
3.388000000000000256e+01,3.547133688031373633e-01
3.392000000000000171e+01,3.304450295516873637e-01
3.396000000000000085e+01,3.626587101677017366e-01
3.400000000000000000e+01,3.246199178990084033e-01
3.403999999999999915e+01,2.862995783352189072e-01
3.407999999999999829e+01,2.094806369779635968e-01
3.411999999999999744e+01,1.908297547632384072e-01
3.415999999999999659e+01,1.263740659184209580e-01
3.420000000000000284e+01,1.212104635941549102e-01
3.424000000000000199e+01,1.028389489525030343e-01
3.428000000000000114e+01,6.957347375856968996e-02
3.432000000000000028e+01,8.098767720390045999e-02
3.435999999999999943e+01,7.891295521545933778e-02
3.439999999999999858e+01,7.515163110178749162e-02
3.443999999999999773e+01,3.457773550988604144e-02
3.447999999999999687e+01,6.313118481186390241e-02
3.452000000000000313e+01,4.447477265361481080e-02
3.456000000000000227e+01,6.066275746574519012e-02
3.460000000000000142e+01,4.509630296057118293e-02
3.464000000000000057e+01,3.374439812862436300e-02
3.467999999999999972e+01,4.768262171455837917e-02
3.471999999999999886e+01,2.593229224045462758e-02
3.475999999999999801e+01,3.762131207445953279e-02
3.479999999999999716e+01,3.666440998453221467e-02
3.484000000000000341e+01,3.486390927921383803e-02
3.488000000000000256e+01,2.013647532554313849e-02
3.492000000000000171e+01,3.772435255016447914e-02
3.496000000000000085e+01,4.210428520201339730e-02
3.500000000000000000e+01,2.934216312228836096e-02
3.503999999999999915e+01,0.000000000000000000e+00
3.507999999999999829e+01,1.730453565304139463e-02
3.511999999999999744e+01,4.528677750694891369e-02
3.515999999999999659e+01,1.819091249550351674e-02
3.520000000000000284e+01,2.312933837810047036e-02
3.524000000000000199e+01,1.879391551099925811e-02
3.528000000000000114e+01,2.541719941738889571e-02
3.532000000000000028e+01,1.714647618038349711e-02
3.535999999999999943e+01,2.685964964514353515e-02
3.539999999999999858e+01,2.701795945185361120e-02
3.543999999999999773e+01,2.886171342807829915e-02
3.547999999999999687e+01,1.300137568816152160e-02
3.552000000000000313e+01,2.467919065874758788e-02
3.556000000000000227e+01,2.961221220830256504e-02
3.560000000000000142e+01,3.145353917120804338e-02
3.564000000000000057e+01,3.807138648916932877e-02
3.567999999999999972e+01,2.839017183360095786e-02
3.571999999999999886e+01,2.236144298720359885e-02
3.575999999999999801e+01,4.611891802341968466e-02
3.579999999999999716e+01,1.985639685161688303e-02
3.584000000000000341e+01,3.152930045265540937e-02
3.588000000000000256e+01,4.263956658767717456e-02
3.592000000000000171e+01,1.862324138466031620e-02
3.596000000000000085e+01,2.158303369954468753e-02
3.600000000000000000e+01,2.622824509642086160e-02
3.603999999999999915e+01,2.047554094232763647e-02
3.607999999999999829e+01,1.865631421020043368e-02
3.611999999999999744e+01,3.650699657541602028e-02
3.615999999999999659e+01,4.255471931132314561e-02
3.620000000000000284e+01,3.595645740449115307e-02
3.624000000000000199e+01,2.514244127760192210e-02
3.628000000000000114e+01,3.989948963044540053e-02
3.632000000000000028e+01,2.402605257340313313e-02
3.635999999999999943e+01,3.063259126679084704e-02
3.639999999999999858e+01,4.201561626788209020e-02
3.643999999999999773e+01,2.810729755246688805e-02
3.647999999999999687e+01,1.869445382033510863e-02
3.652000000000000313e+01,2.670343934198096333e-02
3.656000000000000227e+01,2.066138539075307659e-02
3.660000000000000142e+01,2.726402552107046184e-02
3.664000000000000057e+01,3.780011798583112620e-02
3.667999999999999972e+01,3.007004949449648343e-02
3.671999999999999886e+01,2.121529042488453157e-02
3.675999999999999801e+01,2.978234985725464884e-02
3.679999999999999716e+01,3.413362998204479137e-02
3.684000000000000341e+01,3.005401289996508310e-02
3.688000000000000256e+01,3.749504639371625814e-02
3.692000000000000171e+01,1.683463726248743755e-02
3.696000000000000085e+01,3.073750984319504470e-02
3.700000000000000000e+01,3.115133872038058915e-02
3.703999999999999915e+01,2.116720724744876672e-02
3.707999999999999829e+01,2.635681801686573511e-02
3.711999999999999744e+01,5.486939371082497074e-02
3.715999999999999659e+01,7.495105786218710098e-02
3.720000000000000284e+01,1.076773892156058648e-01
3.724000000000000199e+01,1.696278426679226903e-01
3.728000000000000114e+01,2.459090061812938544e-01
3.732000000000000028e+01,2.665499505821763426e-01
3.735999999999999943e+01,2.877522221762564558e-01
3.739999999999999858e+01,2.353297756826671638e-01
3.743999999999999773e+01,1.500287316802405568e-01
3.747999999999999687e+01,9.535683772735797925e-02
3.752000000000000313e+01,7.412416943693600491e-02
3.756000000000000227e+01,7.368537669503703869e-02
3.760000000000000142e+01,4.879821149108493766e-02
3.764000000000000057e+01,3.430763185365826029e-02
3.767999999999999972e+01,4.651208493911030556e-02
3.771999999999999886e+01,5.478172524225469880e-02
3.775999999999999801e+01,6.923282962870278001e-02
3.779999999999999716e+01,6.569873062449829715e-02
3.784000000000000341e+01,8.914066491579708540e-02
3.788000000000000256e+01,9.628343867544093826e-02
3.792000000000000171e+01,1.098886770910132149e-01
3.796000000000000085e+01,1.293943628895714848e-01
3.800000000000000000e+01,1.545194865386614880e-01
3.803999999999999915e+01,1.324345910345241517e-01
3.807999999999999829e+01,1.007947118106206630e-01
3.811999999999999744e+01,1.124293022867782210e-01
3.815999999999999659e+01,9.540037910603604843e-02
3.820000000000000284e+01,7.556065260134821326e-02
3.824000000000000199e+01,7.286167055541536985e-02
3.828000000000000114e+01,6.313676549428122453e-02
3.832000000000000028e+01,5.537818332160406032e-02
3.835999999999999943e+01,4.115569003077029081e-02
3.839999999999999858e+01,3.985881792350387531e-02
3.843999999999999773e+01,4.305733299319117885e-02
3.847999999999999687e+01,3.276673805661751288e-02
3.852000000000000313e+01,4.692307628773225575e-02
3.856000000000000227e+01,4.702828544767770347e-02
3.860000000000000142e+01,3.814050307327666173e-02
3.864000000000000057e+01,4.386437757357710548e-02
3.867999999999999972e+01,4.958750465122357259e-02
3.871999999999999886e+01,3.957344904690748150e-02
3.875999999999999801e+01,3.574081272674736048e-02
3.879999999999999716e+01,3.949463260121865299e-02
3.884000000000000341e+01,5.364498428323787732e-02
3.888000000000000256e+01,4.475194486273623151e-02
3.892000000000000171e+01,5.356163491854545877e-02
3.896000000000000085e+01,6.461862693184546036e-02
3.900000000000000000e+01,7.005470237699906733e-02
3.903999999999999915e+01,6.762179753813399308e-02
3.907999999999999829e+01,7.727146019795112786e-02
3.911999999999999744e+01,9.506958019764875922e-02
3.915999999999999659e+01,1.308514266623503064e-01
3.920000000000000284e+01,1.626983940420053121e-01
3.924000000000000199e+01,2.114050533407792476e-01
3.928000000000000114e+01,2.620779925208283068e-01
3.932000000000000028e+01,2.947656602155200867e-01
3.935999999999999943e+01,3.229564261763250843e-01
3.939999999999999858e+01,4.073479605567421058e-01
3.943999999999999773e+01,5.712639040253307821e-01
3.947999999999999687e+01,7.270298397577876770e-01
3.952000000000000313e+01,7.538124375521944032e-01
3.956000000000000227e+01,6.457105330663311937e-01
3.960000000000000142e+01,5.631795443270299906e-01
3.964000000000000057e+01,4.126438919597334998e-01
3.967999999999999972e+01,2.789679117999307456e-01
3.971999999999999886e+01,2.051457863503602375e-01
3.975999999999999801e+01,1.686968945799947606e-01
3.979999999999999716e+01,1.640010798871033848e-01
3.984000000000000341e+01,1.947114411060675288e-01
3.988000000000000256e+01,2.849946421269117791e-01
3.992000000000000171e+01,4.101219999947031680e-01
3.996000000000000085e+01,7.061012593137945270e-01
4.000000000000000000e+01,9.416630478703806872e-01
4.003999999999999915e+01,9.962550432030309322e-01
4.007999999999999829e+01,8.423384849519301998e-01
4.011999999999999744e+01,7.390025080552897752e-01
4.015999999999999659e+01,4.867316149744777554e-01
4.020000000000000284e+01,3.246633910730389871e-01
4.024000000000000199e+01,2.210439598838341568e-01
4.028000000000000114e+01,1.708151802861085367e-01
4.032000000000000028e+01,1.194615488331734615e-01
4.035999999999999943e+01,1.192505034638797479e-01
4.039999999999999858e+01,9.993010726419596090e-02
4.043999999999999773e+01,1.089906665846724354e-01
4.047999999999999687e+01,1.247945836157470789e-01
4.052000000000000313e+01,1.428457327176419212e-01
4.056000000000000227e+01,1.974270564379588533e-01
4.060000000000000142e+01,2.753311891817837309e-01
4.064000000000000057e+01,3.403081306341648737e-01
4.067999999999999972e+01,3.510497411513618382e-01
4.071999999999999886e+01,3.266645452946104755e-01
4.075999999999999801e+01,2.781118431509871369e-01
4.079999999999999716e+01,2.722714751647321574e-01
4.084000000000000341e+01,2.447926669720678350e-01
4.088000000000000256e+01,2.605882048338166168e-01
4.092000000000000171e+01,3.005495606048108059e-01
4.096000000000000085e+01,2.834654954919768044e-01
4.100000000000000000e+01,2.346267043472922142e-01
4.103999999999999915e+01,1.914072148637301352e-01
4.107999999999999829e+01,1.262682666814747001e-01
4.111999999999999744e+01,1.125528782759966234e-01
4.115999999999999659e+01,7.832306629033479461e-02
4.120000000000000284e+01,6.938309063211005323e-02
4.124000000000000199e+01,4.723488906246454955e-02
4.128000000000000114e+01,5.262458216023035290e-02
4.132000000000000028e+01,3.778085225043713302e-02
4.135999999999999943e+01,4.878896698119376818e-02
4.139999999999999858e+01,4.265474026583035427e-02
4.143999999999999773e+01,3.427158055825891420e-02
4.147999999999999687e+01,4.836816722948045905e-02
4.152000000000000313e+01,4.110729097136034405e-02
4.156000000000000227e+01,3.215949182611087254e-02
4.160000000000000142e+01,2.068174478030150934e-02
4.164000000000000057e+01,2.999769050249181945e-02
4.167999999999999972e+01,3.228756089237824062e-02
4.171999999999999886e+01,3.204747800580692169e-02
4.175999999999999801e+01,2.478131620299971194e-02
4.179999999999999716e+01,4.027589418374653840e-02
4.184000000000000341e+01,2.935485557063561082e-02
4.188000000000000256e+01,4.934377763130647770e-02
4.192000000000000171e+01,4.516514143809387261e-02
4.196000000000000085e+01,6.599529978447765677e-02
4.200000000000000000e+01,8.148541490575979263e-02
4.203999999999999915e+01,9.894168626266902633e-02
4.207999999999999829e+01,9.082535349538982394e-02
4.211999999999999744e+01,8.242711145589985688e-02
4.215999999999999659e+01,8.920238407908766265e-02
4.220000000000000284e+01,5.298256729191701264e-02
4.224000000000000199e+01,4.907773375327621063e-02
4.228000000000000114e+01,4.067586766723706865e-02
4.232000000000000028e+01,3.733123041843457862e-02
4.235999999999999943e+01,3.258064218367284076e-02
4.239999999999999858e+01,5.873999132713593474e-02
4.243999999999999773e+01,3.853214742258598280e-02
4.247999999999999687e+01,3.068772644010393791e-02
4.252000000000000313e+01,3.548773432821193674e-02
4.256000000000000227e+01,5.012209189006158055e-02
4.260000000000000142e+01,2.878653563410028121e-02
4.264000000000000057e+01,3.442679763773263957e-02
4.267999999999999972e+01,1.786652152354711517e-02
4.271999999999999886e+01,3.305919167332391911e-02
4.275999999999999801e+01,2.970442074769834295e-02
4.279999999999999716e+01,3.590298100353062072e-02
4.284000000000000341e+01,3.535642170053569788e-02
4.288000000000000256e+01,1.794846238917012851e-02
4.292000000000000171e+01,3.341747134389046886e-02
4.296000000000000085e+01,5.394368046439278197e-02
4.300000000000000000e+01,2.922670241131247390e-02
4.303999999999999915e+01,3.457660984353755351e-02
4.307999999999999829e+01,3.009030181976908580e-02
4.311999999999999744e+01,1.520576106706458992e-02
4.315999999999999659e+01,1.212259729203085494e-02
4.320000000000000284e+01,2.899003317686150993e-02
4.324000000000000199e+01,1.944178974902747645e-02
4.328000000000000114e+01,2.085189470150169977e-02
4.332000000000000028e+01,1.495484311058114905e-02
4.335999999999999943e+01,2.423125242336100424e-02
4.339999999999999858e+01,2.676251708979079241e-02
4.343999999999999773e+01,1.805251147009248602e-02
4.347999999999999687e+01,2.170588397331411901e-02
4.352000000000000313e+01,2.423426126405327230e-02
4.356000000000000227e+01,3.856399761280396993e-02
4.360000000000000142e+01,1.889082952801374865e-02
4.364000000000000057e+01,3.574769808027038198e-02
4.367999999999999972e+01,3.714816948727945461e-02
4.371999999999999886e+01,2.224921873561024055e-02
4.375999999999999801e+01,2.533378837286492935e-02
4.379999999999999716e+01,2.083017222264567717e-02
4.384000000000000341e+01,1.014340719542785457e-02
4.388000000000000256e+01,1.659713395977130759e-02
4.392000000000000171e+01,2.923204884466796757e-02
4.396000000000000085e+01,2.865861596446179008e-02
4.400000000000000000e+01,2.358807348232299164e-02
4.403999999999999915e+01,2.245065182093346559e-02
4.407999999999999829e+01,2.187425630246828470e-02
4.411999999999999744e+01,1.567671484421965036e-02
4.415999999999999659e+01,3.111577648158310797e-02
4.420000000000000284e+01,4.233872729767265003e-02
4.424000000000000199e+01,3.417114751415627205e-02
4.428000000000000114e+01,3.077970102105848094e-02
4.432000000000000028e+01,4.143764146252599395e-02
4.435999999999999943e+01,2.989496852360724877e-02
4.439999999999999858e+01,4.420400403582899762e-02
4.443999999999999773e+01,3.827947676715041936e-02
4.447999999999999687e+01,1.408843910902351018e-02
4.452000000000000313e+01,4.356887083447728154e-02
4.456000000000000227e+01,3.960837060018463501e-02
4.460000000000000142e+01,3.255577258691198794e-02
4.464000000000000057e+01,6.596727477837407982e-02
4.467999999999999972e+01,5.975566934345018233e-02
4.471999999999999886e+01,8.923102894102878657e-02
4.475999999999999801e+01,1.676007155820921080e-01
4.479999999999999716e+01,1.608240352617733571e-01
4.484000000000000341e+01,1.301606736145478616e-01
4.488000000000000256e+01,1.197288441051066882e-01
4.492000000000000171e+01,1.056428869999816028e-01
4.496000000000000085e+01,9.352295531697209230e-02
4.500000000000000000e+01,6.847563701823419779e-02
4.503999999999999915e+01,5.073348762695693848e-02
4.507999999999999829e+01,6.755425617853592912e-02
4.511999999999999744e+01,4.109879676575649982e-02
4.515999999999999659e+01,3.403183372553523350e-02
4.520000000000000284e+01,6.377584517617847226e-02
4.524000000000000199e+01,6.345098708951397992e-02
4.528000000000000114e+01,8.251461999950981951e-02
4.532000000000000028e+01,1.088834092732050007e-01
4.535999999999999943e+01,1.439623918210747866e-01
4.539999999999999858e+01,1.515015673281675246e-01
4.543999999999999773e+01,1.371210888122824934e-01
4.547999999999999687e+01,1.252686279039326722e-01
4.552000000000000313e+01,9.908371838185638103e-02
4.556000000000000227e+01,7.964193899070726168e-02
4.560000000000000142e+01,7.200142726730823783e-02
4.564000000000000057e+01,4.862342285184365065e-02
4.567999999999999972e+01,4.913001536119257495e-02
4.571999999999999886e+01,4.148632058772719344e-02
4.575999999999999801e+01,4.704892501658949205e-02
4.579999999999999716e+01,5.626356367921273721e-02
4.584000000000000341e+01,3.288023626064509597e-02
4.588000000000000256e+01,3.478653550950274592e-02
4.592000000000000171e+01,4.343594876159442147e-02
4.596000000000000085e+01,3.971994787175236324e-02
4.600000000000000000e+01,4.330907288218903417e-02
4.603999999999999915e+01,5.195526007703244603e-02
4.607999999999999829e+01,2.378835433156566495e-02
4.611999999999999744e+01,3.973858311444213726e-02
4.615999999999999659e+01,3.405013335944272190e-02
4.620000000000000284e+01,5.027920305028205084e-02
4.624000000000000199e+01,5.976300086519148458e-02
4.628000000000000114e+01,5.379028505706916902e-02
4.632000000000000028e+01,6.130485110423995743e-02
4.635999999999999943e+01,7.584351918350799859e-02
4.639999999999999858e+01,9.375318687655997962e-02
4.643999999999999773e+01,1.085706743601999036e-01
4.647999999999999687e+01,1.149568327731850248e-01
4.652000000000000313e+01,1.609639839470420053e-01
4.656000000000000227e+01,2.429390254634576918e-01
4.660000000000000142e+01,2.925970745918184401e-01
4.664000000000000057e+01,3.565854144612098375e-01
4.667999999999999972e+01,3.874137351371497728e-01
4.671999999999999886e+01,3.631634310695878720e-01
4.675999999999999801e+01,3.428461259690932517e-01
4.679999999999999716e+01,3.048242220261037083e-01
4.684000000000000341e+01,2.589329883657425779e-01
4.688000000000000256e+01,1.838158349189361329e-01
4.692000000000000171e+01,1.587169427114081544e-01
4.696000000000000085e+01,1.378320482516060819e-01
4.700000000000000000e+01,1.012096001728974293e-01
4.703999999999999915e+01,7.217323914384206340e-02
4.707999999999999829e+01,6.140125751102797069e-02
4.711999999999999744e+01,3.770179428829215085e-02
4.715999999999999659e+01,5.755740352180931801e-02
4.720000000000000284e+01,5.212118699998950777e-02
4.724000000000000199e+01,4.696484731529854822e-02
4.728000000000000114e+01,4.967559166895357120e-02
4.732000000000000028e+01,5.463326345922354943e-02
4.735999999999999943e+01,7.701227888050854453e-02
4.739999999999999858e+01,4.908977068317171844e-02
4.743999999999999773e+01,4.280371864024205830e-02
4.747999999999999687e+01,4.016962556850488947e-02
4.752000000000000313e+01,4.680764448575964326e-02
4.756000000000000227e+01,4.810537109465068406e-02
4.760000000000000142e+01,3.619458686954080129e-02
4.764000000000000057e+01,4.030009502924335185e-02
4.767999999999999972e+01,3.653623584029008081e-02
4.771999999999999886e+01,2.518401525120344750e-02
4.775999999999999801e+01,4.221242225251495978e-02
4.779999999999999716e+01,4.294122431462516626e-02
4.784000000000000341e+01,2.737041964556804000e-02
4.788000000000000256e+01,4.692442296272966024e-02
4.792000000000000171e+01,3.725245990233214816e-02
4.796000000000000085e+01,3.544755041686008940e-02
4.800000000000000000e+01,2.605426698749328460e-02
4.803999999999999915e+01,4.672764504769282706e-02
4.807999999999999829e+01,2.721574768342732362e-02
4.811999999999999744e+01,3.552244630089028410e-02
4.815999999999999659e+01,2.837254707292342221e-02
4.820000000000000284e+01,3.667689966126971152e-02
4.824000000000000199e+01,1.800333346023562028e-02
4.828000000000000114e+01,4.344680502138550254e-02
4.832000000000000028e+01,3.067204458969271033e-02
4.835999999999999943e+01,4.262478424256200410e-02
4.839999999999999858e+01,3.040967534306990641e-02
4.843999999999999773e+01,2.887167591979501041e-02
4.847999999999999687e+01,3.772977644028302491e-02
4.852000000000000313e+01,4.124754164522555222e-02
4.856000000000000227e+01,3.155675300898522218e-02
4.860000000000000142e+01,4.013027567428138764e-02
4.864000000000000057e+01,4.954562793887611755e-02
4.867999999999999972e+01,4.181831261955450824e-02
4.871999999999999886e+01,5.657041933319570393e-02
4.875999999999999801e+01,6.626318771998408741e-02
4.879999999999999716e+01,5.122607415377545409e-02
4.884000000000000341e+01,6.737961719976791330e-02
4.888000000000000256e+01,8.156490168838070876e-02
4.892000000000000171e+01,1.053032431876667341e-01
4.896000000000000085e+01,1.560171198159321926e-01
4.900000000000000000e+01,2.168460653519155290e-01
4.903999999999999915e+01,2.908811631490216820e-01
4.907999999999999829e+01,2.676863694033977947e-01
4.911999999999999744e+01,2.385891979817631459e-01
4.915999999999999659e+01,2.224171657048653328e-01
4.920000000000000284e+01,1.770191097074991227e-01
4.924000000000000199e+01,1.347109183538487687e-01
4.928000000000000114e+01,1.056088685095257357e-01
4.932000000000000028e+01,7.481954813668627302e-02
4.935999999999999943e+01,6.679062886584326286e-02
4.939999999999999858e+01,5.061125745132188936e-02
4.943999999999999773e+01,4.398491975191683168e-02
4.947999999999999687e+01,4.072944368492038142e-02
4.952000000000000313e+01,4.168785067983145354e-02
4.956000000000000227e+01,3.842990673003624652e-02
4.960000000000000142e+01,4.781607447286451845e-02
4.964000000000000057e+01,4.792774835826601326e-02
4.967999999999999972e+01,4.101298851818079710e-02
4.971999999999999886e+01,3.522101763480269682e-02
4.975999999999999801e+01,3.083284165665395662e-02
4.979999999999999716e+01,3.065853619665130647e-02
4.984000000000000341e+01,3.694616138673492700e-02
4.988000000000000256e+01,5.840695539007501047e-02
4.992000000000000171e+01,4.193045346242421645e-02
4.996000000000000085e+01,3.584998517579764815e-02
5.000000000000000000e+01,3.117330104260492007e-02
5.003999999999999915e+01,3.323954634015719584e-02
5.007999999999999829e+01,2.912236321402845649e-02
5.011999999999999744e+01,4.130236911131381777e-02
5.015999999999999659e+01,4.982801266538065127e-02
5.020000000000000284e+01,5.441828434377490864e-02
5.024000000000000199e+01,5.282512043062455309e-02
5.028000000000000114e+01,4.561053461494011391e-02
5.032000000000000028e+01,4.120475731940367176e-02
5.035999999999999943e+01,4.213685641644354662e-02
5.039999999999999858e+01,3.267039664675116389e-02
5.043999999999999773e+01,4.989839796281120982e-02
5.047999999999999687e+01,3.593326403207585534e-02
5.052000000000000313e+01,4.107537860997807072e-02
5.056000000000000227e+01,6.054760831625143058e-02
5.060000000000000142e+01,3.421429489444201277e-02
5.064000000000000057e+01,5.255992898980423045e-02
5.067999999999999972e+01,5.010970527660708884e-02
5.071999999999999886e+01,4.147602446827450273e-02
5.075999999999999801e+01,3.733717891139425732e-02
5.079999999999999716e+01,3.600712037107094837e-02
5.084000000000000341e+01,3.973390897924482940e-02
5.088000000000000256e+01,3.812025654588423185e-02
5.092000000000000171e+01,6.544910561859115794e-02
5.096000000000000085e+01,5.455960442870522870e-02
5.100000000000000000e+01,6.221531476288928025e-02
5.103999999999999915e+01,5.666236015400392262e-02
5.107999999999999829e+01,3.930577751252457147e-02
5.111999999999999744e+01,5.032967193630664970e-02
5.115999999999999659e+01,5.207900440795723562e-02
5.120000000000000284e+01,6.338129174822386414e-02
5.124000000000000199e+01,5.444971167338494289e-02
5.128000000000000114e+01,4.888891259248863419e-02
5.132000000000000028e+01,5.681517137114625027e-02
5.135999999999999943e+01,6.586414563590857474e-02
5.139999999999999858e+01,7.406877941139168586e-02
5.143999999999999773e+01,8.114806316514149021e-02
5.147999999999999687e+01,9.946633568667559433e-02
5.152000000000000313e+01,7.563212449125833459e-02
5.156000000000000227e+01,8.748457190217226453e-02
5.160000000000000142e+01,1.029887937117897334e-01
5.164000000000000057e+01,1.454684305886704276e-01
5.167999999999999972e+01,1.519777468714779145e-01
5.171999999999999886e+01,1.730981340561333903e-01
5.175999999999999801e+01,2.079865671292060458e-01
5.179999999999999716e+01,2.133678522635377994e-01
5.184000000000000341e+01,2.384183422526084672e-01
5.188000000000000256e+01,2.140101311443396714e-01
5.192000000000000171e+01,2.019649200541831502e-01
5.196000000000000085e+01,2.005966607472434993e-01
5.200000000000000000e+01,1.747793838705219982e-01
5.203999999999999915e+01,1.540189003833202508e-01
5.207999999999999829e+01,1.234217982477944231e-01
5.211999999999999744e+01,1.138989271256875269e-01
5.215999999999999659e+01,9.369641054985991535e-02
5.220000000000000284e+01,7.377354860738788433e-02
5.224000000000000199e+01,7.970204389073752560e-02
5.228000000000000114e+01,8.141406637569872928e-02
5.232000000000000028e+01,7.497550590346994948e-02
5.235999999999999943e+01,8.764411150944674544e-02
5.239999999999999858e+01,8.963306090990742769e-02
5.243999999999999773e+01,9.499273933729911190e-02
5.247999999999999687e+01,1.219886481313928739e-01
5.252000000000000313e+01,1.228494696172184736e-01
5.256000000000000227e+01,1.253949683111477420e-01
5.260000000000000142e+01,1.144507244348487163e-01
5.264000000000000057e+01,9.591789874660901216e-02
5.267999999999999972e+01,1.035174183130539854e-01
5.271999999999999886e+01,9.313106608556073751e-02
5.275999999999999801e+01,7.768519633462336871e-02
5.279999999999999716e+01,6.364298529950609962e-02
5.284000000000000341e+01,3.751605964480621974e-02
5.288000000000000256e+01,4.763774894253897108e-02
5.292000000000000171e+01,5.045185162505792104e-02
5.296000000000000085e+01,5.523162133650967587e-02
5.300000000000000000e+01,5.073674666539792349e-02
5.303999999999999915e+01,4.146334966756894114e-02
5.307999999999999829e+01,4.792499360669986302e-02
5.311999999999999744e+01,3.583873235125690365e-02
5.315999999999999659e+01,4.398363229665432084e-02
5.320000000000000284e+01,3.863876279233464245e-02
5.324000000000000199e+01,4.678086513320517392e-02
5.328000000000000114e+01,5.042544213605130304e-02
5.332000000000000028e+01,5.968877066648446000e-02
5.335999999999999943e+01,5.714836902226650556e-02
5.339999999999999858e+01,4.898640570217325380e-02
5.343999999999999773e+01,3.941799502156282525e-02
5.347999999999999687e+01,4.249352221288232173e-02
5.352000000000000313e+01,3.798042816901094770e-02
5.356000000000000227e+01,4.021010586288428085e-02
5.360000000000000142e+01,5.452170057181322804e-02
5.364000000000000057e+01,3.539195654473354519e-02
5.367999999999999972e+01,4.127048201123771631e-02
5.371999999999999886e+01,3.675029987783896140e-02
5.375999999999999801e+01,3.419574893405479682e-02
5.379999999999999716e+01,4.540915248842623819e-02
5.384000000000000341e+01,4.566182758602047032e-02
5.388000000000000256e+01,4.984718268074937730e-02
5.392000000000000171e+01,3.126948063426217284e-02
5.396000000000000085e+01,3.067484202539096788e-02
5.400000000000000000e+01,3.879000962605711617e-02
5.403999999999999915e+01,4.268862558183472017e-02
5.407999999999999829e+01,4.321371132222263239e-02
5.411999999999999744e+01,3.867921861232546943e-02
5.415999999999999659e+01,3.189522306505977733e-02
5.420000000000000284e+01,4.140823376068495515e-02
5.424000000000000199e+01,3.237328908669079297e-02
5.428000000000000114e+01,3.823030836921430947e-02
5.432000000000000028e+01,3.565564735576395167e-02
5.435999999999999943e+01,2.633535069730344111e-02
5.439999999999999858e+01,3.640313646727505459e-02
5.443999999999999773e+01,4.675047652051123048e-02
5.447999999999999687e+01,4.613705944551547283e-02
5.452000000000000313e+01,4.552218532936420925e-02
5.456000000000000227e+01,4.153375949423224883e-02
5.460000000000000142e+01,4.794115943207858527e-02
5.464000000000000057e+01,7.092655364167908816e-02
5.467999999999999972e+01,5.766048511927452519e-02
5.471999999999999886e+01,7.305574012568757936e-02
5.475999999999999801e+01,7.973828738401346483e-02
5.479999999999999716e+01,8.613835731693403330e-02
5.484000000000000341e+01,7.651951466514084199e-02
5.488000000000000256e+01,7.280036139475236368e-02
5.492000000000000171e+01,8.284911244747392156e-02
5.496000000000000085e+01,7.182080621079524330e-02
5.500000000000000000e+01,7.259334652987699255e-02
5.503999999999999915e+01,5.594192660197418177e-02
5.507999999999999829e+01,3.844600132392812092e-02
5.511999999999999744e+01,5.438851324334088855e-02
5.515999999999999659e+01,5.965124531158962073e-02
5.520000000000000284e+01,5.001907962938438590e-02
5.524000000000000199e+01,4.825364138430834893e-02
5.528000000000000114e+01,4.648671205072448659e-02
5.532000000000000028e+01,4.218922017227236948e-02
5.535999999999999943e+01,4.884953550042268888e-02
5.539999999999999858e+01,5.747540854758516338e-02
5.543999999999999773e+01,3.603195510613212138e-02
5.547999999999999687e+01,4.746490725346809436e-02
5.552000000000000313e+01,4.849907116243502153e-02
5.556000000000000227e+01,4.194452244594963630e-02
5.560000000000000142e+01,4.494273148182980487e-02
5.564000000000000057e+01,3.669912368197839059e-02
5.567999999999999972e+01,4.109935519593174713e-02
5.571999999999999886e+01,3.116668114485069904e-02
5.575999999999999801e+01,2.432357964704161615e-02
5.579999999999999716e+01,4.642276103545876081e-02
5.584000000000000341e+01,4.603980700878426702e-02
5.588000000000000256e+01,3.497704087555912611e-02
5.592000000000000171e+01,3.880616522824931885e-02
5.596000000000000085e+01,4.319578350998762306e-02
5.600000000000000000e+01,9.321653891373431200e-02
5.603999999999999915e+01,5.878076163396147441e-02
5.607999999999999829e+01,1.024431969349319932e-01
5.611999999999999744e+01,9.815416256274178686e-02
5.615999999999999659e+01,7.041517624756968297e-02
5.620000000000000284e+01,1.025739333845686052e-01
5.624000000000000199e+01,9.171720596972135486e-02
5.628000000000000114e+01,7.006641380613540249e-02
5.632000000000000028e+01,9.393194658685188880e-02
5.635999999999999943e+01,8.740240790918736569e-02
5.639999999999999858e+01,5.556294438012565617e-02
5.643999999999999773e+01,9.487659533888177787e-02
5.647999999999999687e+01,6.022904600261752561e-02
5.652000000000000313e+01,9.959571397437114171e-02
5.656000000000000227e+01,6.324736824178017747e-02
5.660000000000000142e+01,9.958516616341438199e-02
5.664000000000000057e+01,9.277369020257161814e-02
5.667999999999999972e+01,6.202942466963358437e-02
5.671999999999999886e+01,9.934175180534146610e-02
5.675999999999999801e+01,1.104931009196048752e-01
5.679999999999999716e+01,6.061265669318669641e-02
5.684000000000000341e+01,7.247587327943544322e-02
5.688000000000000256e+01,6.868026552096878623e-02
5.692000000000000171e+01,8.321720841983359929e-02
5.696000000000000085e+01,1.167365659314041765e-01
5.700000000000000000e+01,8.903972318536079733e-02
5.703999999999999915e+01,1.155775463657219976e-01
5.707999999999999829e+01,8.521647669999270203e-02
5.711999999999999744e+01,1.131560304127901401e-01
5.715999999999999659e+01,7.721652238017422121e-02
5.720000000000000284e+01,8.131104286318752150e-02
5.724000000000000199e+01,5.743151972721913939e-02
5.728000000000000114e+01,1.042270072188437868e-01
5.732000000000000028e+01,8.572342222408653456e-02
5.735999999999999943e+01,7.982703867966985112e-02
5.739999999999999858e+01,6.912161575831055060e-02
5.743999999999999773e+01,1.004294072083964373e-01
5.747999999999999687e+01,9.517968543400659454e-02
5.752000000000000313e+01,7.010196485077047068e-02
5.756000000000000227e+01,1.152877775943931121e-01
5.760000000000000142e+01,1.425937793818330968e-01
5.764000000000000057e+01,1.230322163958544740e-01
5.767999999999999972e+01,1.186434727897792141e-01
5.771999999999999886e+01,1.226833609999231495e-01
5.775999999999999801e+01,1.053650587425646462e-01
5.779999999999999716e+01,9.197926086968141735e-02
5.784000000000000341e+01,8.449301977272524744e-02
5.788000000000000256e+01,8.318734140021853685e-02
5.792000000000000171e+01,9.452540199142547839e-02
5.796000000000000085e+01,8.647231733871818538e-02
5.800000000000000000e+01,9.387304547067526483e-02
5.803999999999999915e+01,9.396595761578160899e-02
5.807999999999999829e+01,8.787508294402442133e-02
5.811999999999999744e+01,7.475739644197282319e-02
5.815999999999999659e+01,8.383770132844026168e-02
5.820000000000000284e+01,6.818770314992109172e-02
5.824000000000000199e+01,6.377639089694685237e-02
5.828000000000000114e+01,6.610763892973946232e-02
5.832000000000000028e+01,6.309811261533782023e-02
5.835999999999999943e+01,6.345905011691206632e-02
5.839999999999999858e+01,4.049471429611139345e-02
5.843999999999999773e+01,4.000936506055659259e-02
5.847999999999999687e+01,4.991966777728657628e-02
5.852000000000000313e+01,4.549693949136819626e-02
5.856000000000000227e+01,3.264234096108920014e-02
5.860000000000000142e+01,4.704385343649296336e-02
5.864000000000000057e+01,5.441853078604545063e-02
5.867999999999999972e+01,4.689815448410948606e-02
5.871999999999999886e+01,4.246721812996803042e-02
5.875999999999999801e+01,4.477882055800239125e-02
5.879999999999999716e+01,5.074187483087587436e-02
5.884000000000000341e+01,6.204242559955218395e-02
5.888000000000000256e+01,6.884520015497616607e-02
5.892000000000000171e+01,5.457074001637449850e-02
5.896000000000000085e+01,4.844384840256046182e-02
5.900000000000000000e+01,5.158855448352122480e-02
5.903999999999999915e+01,4.433431463311250653e-02
5.907999999999999829e+01,3.764042893841063053e-02
5.911999999999999744e+01,6.297976254213509539e-02
5.915999999999999659e+01,3.492596054388823201e-02
5.920000000000000284e+01,3.890537426013578048e-02
5.924000000000000199e+01,2.686567827541916711e-02
5.928000000000000114e+01,3.674291576368762108e-02
5.932000000000000028e+01,3.088204770754827619e-02
5.935999999999999943e+01,3.935090054727926473e-02
5.939999999999999858e+01,3.292466748013535977e-02
5.943999999999999773e+01,3.155489628881723990e-02
5.947999999999999687e+01,2.849739940964073417e-02
5.952000000000000313e+01,2.009907442429262683e-02
5.956000000000000227e+01,2.743550007742641059e-02
5.960000000000000142e+01,3.280318692631592481e-02
5.964000000000000057e+01,2.636686226190590454e-02
5.967999999999999972e+01,2.554900420250278206e-02
5.971999999999999886e+01,3.625077350639405865e-02
5.975999999999999801e+01,3.318147173767034552e-02
5.979999999999999716e+01,2.027520547120136366e-02
5.984000000000000341e+01,3.659204884288951021e-02
5.988000000000000256e+01,2.705448292506970956e-02
5.992000000000000171e+01,3.156560507510913771e-02
5.996000000000000085e+01,2.230564719270391669e-02
