2.003999999999999915e+01,4.407089074614631286e-02
2.007999999999999829e+01,2.398647036157242757e-02
2.012000000000000099e+01,2.944940964982334722e-02
2.016000000000000014e+01,4.967306647564185412e-02
2.019999999999999929e+01,4.662033729775055119e-02
2.023999999999999844e+01,4.243222084650069559e-02
2.028000000000000114e+01,4.089350226624356710e-02
2.032000000000000028e+01,3.405612915151596393e-02
2.035999999999999943e+01,3.668076693520543746e-02
2.039999999999999858e+01,4.176555978844662120e-02
2.044000000000000128e+01,2.584483144957000489e-02
2.048000000000000043e+01,3.849928137026754210e-02
2.051999999999999957e+01,3.885321627946747985e-02
2.055999999999999872e+01,3.958566914154168503e-02
2.060000000000000142e+01,5.583578402001700830e-02
2.064000000000000057e+01,7.132897863536817595e-02
2.067999999999999972e+01,1.053676619881528526e-01
2.071999999999999886e+01,1.337292005554231999e-01
2.076000000000000156e+01,1.297308497150768403e-01
2.080000000000000071e+01,7.728726650290804190e-02
2.083999999999999986e+01,5.417580835322750171e-02
2.087999999999999901e+01,3.806623489628322560e-02
2.092000000000000171e+01,3.596039963685945112e-02
2.096000000000000085e+01,3.480078865586407749e-02
2.100000000000000000e+01,5.142969985470013938e-02
2.103999999999999915e+01,4.307904680909994954e-02
2.107999999999999829e+01,4.419038374518852175e-02
2.112000000000000099e+01,4.397706852770839892e-02
2.116000000000000014e+01,3.449104875119672620e-02
2.119999999999999929e+01,2.765440011874692461e-02
2.123999999999999844e+01,3.501071970281347673e-02
2.128000000000000114e+01,2.817410904341760211e-02
2.132000000000000028e+01,4.366775483519956536e-02
2.135999999999999943e+01,4.591466463603608578e-02
2.139999999999999858e+01,3.605027317580423996e-02
2.144000000000000128e+01,4.151428001380402799e-02
2.148000000000000043e+01,2.824360723046889093e-02
2.151999999999999957e+01,3.787090303406791952e-02
2.155999999999999872e+01,3.444069635183871075e-02
2.160000000000000142e+01,3.384908850858654034e-02
2.164000000000000057e+01,4.044858259462113387e-02
2.167999999999999972e+01,3.266589550146898474e-02
2.171999999999999886e+01,2.999267554500741756e-02
2.176000000000000156e+01,3.753838307682468012e-02
2.180000000000000071e+01,2.521396579906579061e-02
2.183999999999999986e+01,1.667433696463890141e-02
2.187999999999999901e+01,1.948906802428697349e-02
2.192000000000000171e+01,3.668598686108300033e-02
2.196000000000000085e+01,3.098494719502759703e-02
2.200000000000000000e+01,3.588130667564744247e-02
2.203999999999999915e+01,2.904482493319067785e-02
2.207999999999999829e+01,9.529304229018714309e-03
2.212000000000000099e+01,3.145718758249362729e-02
2.216000000000000014e+01,2.348525195608989341e-02
2.219999999999999929e+01,2.232592335976742864e-02
2.223999999999999844e+01,4.273986722641343744e-02
2.228000000000000114e+01,2.360278354576048065e-02
2.232000000000000028e+01,2.036179054440736061e-02
2.235999999999999943e+01,3.244916911435519885e-02
2.239999999999999858e+01,2.182781571432584888e-02
2.244000000000000128e+01,3.561831869685661706e-02
2.248000000000000043e+01,3.881140356578301892e-02
2.251999999999999957e+01,3.065011189778627659e-02
2.255999999999999872e+01,1.965021172020743959e-02
2.260000000000000142e+01,1.773377873614027586e-02
2.264000000000000057e+01,2.944255535121416065e-02
2.267999999999999972e+01,3.017542941184208835e-02
2.271999999999999886e+01,2.504186126961263636e-02
2.276000000000000156e+01,2.236837963654728437e-02
2.280000000000000071e+01,3.521249610765704585e-02
2.283999999999999986e+01,2.175232083527248866e-02
2.287999999999999901e+01,3.043311737916773799e-02
2.292000000000000171e+01,1.886527794571448910e-02
2.296000000000000085e+01,2.641057895934661656e-02
2.300000000000000000e+01,7.273104950683339197e-03
2.303999999999999915e+01,2.333411086718960650e-02
2.307999999999999829e+01,2.217430520329902177e-02
2.312000000000000099e+01,2.271761832892977770e-02
2.316000000000000014e+01,2.080078414501062775e-02
2.319999999999999929e+01,4.556665604871760339e-02
2.323999999999999844e+01,2.283342127273149669e-02
2.328000000000000114e+01,2.545821505305360596e-02
2.332000000000000028e+01,1.635013042500403635e-02
2.335999999999999943e+01,2.881528572278989342e-02
2.339999999999999858e+01,1.100210738680340063e-02
2.344000000000000128e+01,2.365641447259201127e-02
2.348000000000000043e+01,1.984685561885729879e-02
2.351999999999999957e+01,3.874596793471363904e-02
2.355999999999999872e+01,3.247620348226476494e-02
2.360000000000000142e+01,3.793922758678990731e-02
2.364000000000000057e+01,2.561370589639272444e-02
2.367999999999999972e+01,1.423432946567191812e-02
2.371999999999999886e+01,1.648013125899970566e-02
2.376000000000000156e+01,1.815816146536623418e-02
2.380000000000000071e+01,4.424800854491688085e-02
2.383999999999999986e+01,2.302797082948722374e-02
2.387999999999999901e+01,1.562234600526353316e-02
2.392000000000000171e+01,2.108493633360770947e-02
2.396000000000000085e+01,2.427659542691205929e-02
2.400000000000000000e+01,2.008786060950724581e-02
2.403999999999999915e+01,3.936473911644574469e-02
2.407999999999999829e+01,1.265640106339803797e-02
2.412000000000000099e+01,1.603705004679842686e-02
2.416000000000000014e+01,1.430817225516276686e-02
2.419999999999999929e+01,3.339555272523427043e-02
2.423999999999999844e+01,2.636784009571459253e-02
2.428000000000000114e+01,2.672039201613032530e-02
2.432000000000000028e+01,1.552927579248217227e-02
2.435999999999999943e+01,1.209690042532779973e-02
2.439999999999999858e+01,2.191120489689467321e-02
2.444000000000000128e+01,2.737293172042071579e-02
2.448000000000000043e+01,2.488653274279313196e-02
2.451999999999999957e+01,1.520896406324993497e-02
2.455999999999999872e+01,2.010274578150325966e-02
2.460000000000000142e+01,2.802427850101770965e-02
2.464000000000000057e+01,4.010899695167043089e-02
2.467999999999999972e+01,2.324001979049286279e-02
2.471999999999999886e+01,3.740620881175419493e-02
2.476000000000000156e+01,3.567621265415591575e-02
2.480000000000000071e+01,2.088861988545144890e-02
2.483999999999999986e+01,1.177812156023958987e-02
2.487999999999999901e+01,2.026679338161394700e-02
2.492000000000000171e+01,2.345667703386379241e-02
2.496000000000000085e+01,2.513255766134048219e-02
2.500000000000000000e+01,1.621094696666315962e-02
2.503999999999999915e+01,1.599425395038958295e-02
2.507999999999999829e+01,2.012997319812867558e-02
2.512000000000000099e+01,2.161624888101509184e-02
2.516000000000000014e+01,2.026384052168899927e-02
2.519999999999999929e+01,3.159037081431587818e-02
2.523999999999999844e+01,2.115428320869036649e-02
2.528000000000000114e+01,2.661420029137004720e-02
2.532000000000000028e+01,1.939498428705666022e-02
2.535999999999999943e+01,3.166731763803957989e-02
2.539999999999999858e+01,2.142007118132988053e-02
2.544000000000000128e+01,3.596307258478412261e-02
2.548000000000000043e+01,2.552638075731018460e-02
2.551999999999999957e+01,2.246991745651709393e-02
2.555999999999999872e+01,1.543932260118909341e-02
2.560000000000000142e+01,2.581863766039935518e-02
2.564000000000000057e+01,2.862827184992149110e-02
2.567999999999999972e+01,3.238399319709663049e-02
2.571999999999999886e+01,1.645871517004919571e-02
2.576000000000000156e+01,2.248508597704820464e-02
2.580000000000000071e+01,4.119037800539323418e-02
2.583999999999999986e+01,2.204769290271374124e-02
2.587999999999999901e+01,3.507557617521699783e-02
2.592000000000000171e+01,2.198831754242933437e-02
2.596000000000000085e+01,2.990650535688774148e-02
2.600000000000000000e+01,3.044424115861343177e-02
2.603999999999999915e+01,4.044382284900961688e-02
2.607999999999999829e+01,2.981619813022082233e-02
2.612000000000000099e+01,2.145932299387700443e-02
2.616000000000000014e+01,4.054202521544294363e-02
2.619999999999999929e+01,4.448545768597075845e-02
2.623999999999999844e+01,5.353822598261596954e-02
2.628000000000000114e+01,4.764096151946170532e-02
2.632000000000000028e+01,4.742074850430259836e-02
2.635999999999999943e+01,6.006867975724264341e-02
2.639999999999999858e+01,6.817473710683917554e-02
2.644000000000000128e+01,8.063316721107229024e-02
2.648000000000000043e+01,1.265868234671184422e-01
2.651999999999999957e+01,1.768928501537201381e-01
2.655999999999999872e+01,2.499074596948372418e-01
2.660000000000000142e+01,3.276529159730682816e-01
2.664000000000000057e+01,3.686858077713830451e-01
2.667999999999999972e+01,3.847389714775552583e-01
2.671999999999999886e+01,3.394784573881838297e-01
2.676000000000000156e+01,2.626148368464033545e-01
2.680000000000000071e+01,2.061889204030603606e-01
2.683999999999999986e+01,1.421932882288152455e-01
2.687999999999999901e+01,1.317522380098547774e-01
2.692000000000000171e+01,1.179047346729421020e-01
2.696000000000000085e+01,1.103019821373358439e-01
2.700000000000000000e+01,7.828721015922231186e-02
2.703999999999999915e+01,7.295503271284985158e-02
2.707999999999999829e+01,5.551138899566228357e-02
2.712000000000000099e+01,5.093586746780488089e-02
2.716000000000000014e+01,5.109117640849489966e-02
2.719999999999999929e+01,4.462295573651658270e-02
2.723999999999999844e+01,3.966849484857159353e-02
2.728000000000000114e+01,3.206452764558876539e-02
2.732000000000000028e+01,2.881290763235210689e-02
2.735999999999999943e+01,2.499341144851208521e-02
2.739999999999999858e+01,3.877301220270872040e-02
2.744000000000000128e+01,3.419623882217959904e-02
2.748000000000000043e+01,5.649128650626602383e-02
2.751999999999999957e+01,7.859693200222628295e-02
2.755999999999999872e+01,7.591206315647336389e-02
2.760000000000000142e+01,5.960179841082261648e-02
2.764000000000000057e+01,4.215593141432641411e-02
2.767999999999999972e+01,3.682121307731534704e-02
2.771999999999999886e+01,3.697426620156352151e-02
2.776000000000000156e+01,3.883030331863858431e-02
2.780000000000000071e+01,3.406279339243827725e-02
2.783999999999999986e+01,2.418564978347872985e-02
2.787999999999999901e+01,3.569237547446185016e-02
2.792000000000000171e+01,4.469009179134983412e-02
2.796000000000000085e+01,6.043936758686685451e-02
2.800000000000000000e+01,1.123502189878111401e-01
2.803999999999999915e+01,1.527122819916516550e-01
2.807999999999999829e+01,1.195160118687844802e-01
2.812000000000000099e+01,1.168137943522863931e-01
2.816000000000000014e+01,8.656365935263535261e-02
2.819999999999999929e+01,1.253008525980804644e-01
2.823999999999999844e+01,1.638583246381231651e-01
2.828000000000000114e+01,1.803036550794879789e-01
2.832000000000000028e+01,1.396366076650973898e-01
2.835999999999999943e+01,1.278371473172582595e-01
2.839999999999999858e+01,1.402992336737972079e-01
2.844000000000000128e+01,1.493941814513568833e-01
2.848000000000000043e+01,9.557205589497655418e-02
2.851999999999999957e+01,1.015929280567293425e-01
2.855999999999999872e+01,8.586355123874446493e-02
2.860000000000000142e+01,8.771503498338678595e-02
2.864000000000000057e+01,2.219490368236232136e-01
2.867999999999999972e+01,1.632661962447674309e-01
2.871999999999999886e+01,8.472554499311166221e-02
2.876000000000000156e+01,1.235799825283299541e-01
2.880000000000000071e+01,1.377509934128900992e-01
2.883999999999999986e+01,1.165110971535167211e-01
2.887999999999999901e+01,6.981479321461342424e-02
2.892000000000000171e+01,1.986221054650112450e-01
2.896000000000000085e+01,5.780825057979438464e-02
2.900000000000000000e+01,1.677232961625533814e-01
2.903999999999999915e+01,1.242063174811367660e-01
2.907999999999999829e+01,7.784600617899954667e-02
2.912000000000000099e+01,1.126876428677242858e-01
2.916000000000000014e+01,2.242649700792878620e-02
2.919999999999999929e+01,1.360132804289364006e-01
2.923999999999999844e+01,1.602482310757783746e-01
2.928000000000000114e+01,9.299169212948475705e-02
2.932000000000000028e+01,1.372362909560830013e-01
2.935999999999999943e+01,-1.222422004496254155e-02
2.939999999999999858e+01,9.292037080702508778e-02
2.944000000000000128e+01,4.984681005648337881e-02
2.948000000000000043e+01,1.707668651440124308e-01
2.951999999999999957e+01,2.213639444773928266e-01
2.955999999999999872e+01,2.078827513144732853e-01
2.960000000000000142e+01,2.224087535199417986e-01
2.964000000000000057e+01,2.664558644543146837e-01
2.967999999999999972e+01,3.545955102351597832e-01
2.971999999999999886e+01,4.525753736275909822e-01
2.976000000000000156e+01,5.556644705865785294e-01
2.980000000000000071e+01,7.117403467259373340e-01
2.983999999999999986e+01,8.695191464320185526e-01
2.987999999999999901e+01,9.775277747758537306e-01
2.992000000000000171e+01,1.000000000000000000e+00
2.996000000000000085e+01,9.195258039330150845e-01
3.000000000000000000e+01,7.822795783508379452e-01
3.003999999999999915e+01,6.480609457324179035e-01
3.007999999999999829e+01,4.964320588611992879e-01
3.012000000000000099e+01,3.671331727922548249e-01
3.016000000000000014e+01,2.745464743278330788e-01
3.019999999999999929e+01,2.008834666658521895e-01
3.023999999999999844e+01,1.654465588068696202e-01
3.028000000000000114e+01,1.125993908848859637e-01
3.032000000000000028e+01,9.419353413542792819e-02
3.035999999999999943e+01,7.427351748573331192e-02
3.039999999999999858e+01,8.538850200873084051e-02
3.044000000000000128e+01,6.300788001840036678e-02
3.048000000000000043e+01,6.390344494857795599e-02
3.051999999999999957e+01,7.293605041165600322e-02
3.055999999999999872e+01,9.956766101157356330e-02
3.060000000000000142e+01,1.574235062893004633e-01
3.064000000000000057e+01,2.629674055156005497e-01
3.067999999999999972e+01,3.221474178145977696e-01
3.071999999999999886e+01,3.043067729424782097e-01
3.076000000000000156e+01,2.535382302066656046e-01
3.080000000000000071e+01,1.749512499587485836e-01
3.083999999999999986e+01,1.141525060287071069e-01
3.087999999999999901e+01,8.987668947114037243e-02
3.092000000000000171e+01,9.625738034910047425e-02
3.096000000000000085e+01,8.901257771576311095e-02
3.100000000000000000e+01,8.536305810317060261e-02
3.103999999999999915e+01,7.622533321394206474e-02
3.107999999999999829e+01,7.749550437288257876e-02
3.112000000000000099e+01,8.444258753496196312e-02
3.116000000000000014e+01,7.852112863681985633e-02
3.119999999999999929e+01,8.206136572412751906e-02
3.123999999999999844e+01,1.179612547885145607e-01
3.128000000000000114e+01,1.360723761082495431e-01
3.132000000000000028e+01,1.240941730255187281e-01
3.135999999999999943e+01,1.109802596221786675e-01
3.139999999999999858e+01,9.067497664596220475e-02
3.144000000000000128e+01,5.579798963736484069e-02
3.148000000000000043e+01,3.587063062420185744e-02
3.151999999999999957e+01,4.395041120148444197e-02
3.155999999999999872e+01,5.221915085519259619e-02
3.160000000000000142e+01,4.440226730580123377e-02
3.164000000000000057e+01,4.642554559005351855e-02
3.167999999999999972e+01,8.762107842044522532e-02
3.171999999999999886e+01,1.286270870484615414e-01
3.176000000000000156e+01,1.624417156452370170e-01
3.180000000000000071e+01,2.163154244547520755e-01
3.183999999999999986e+01,2.083075887815844240e-01
3.187999999999999901e+01,1.707781303833431352e-01
3.192000000000000171e+01,1.148921677018435172e-01
3.196000000000000085e+01,6.846787892702466127e-02
3.200000000000000000e+01,6.670377554628947880e-02
3.203999999999999915e+01,7.331340625045404402e-02
3.207999999999999829e+01,6.486905293193992450e-02
3.211999999999999744e+01,5.990519708229809920e-02
3.215999999999999659e+01,5.802931247596050668e-02
3.220000000000000284e+01,9.396536204023848982e-02
3.224000000000000199e+01,3.010187706955869125e-02
3.228000000000000114e+01,9.911098781551040682e-02
3.232000000000000028e+01,9.097729808482238334e-02
3.235999999999999943e+01,1.025544832840247361e-01
3.239999999999999858e+01,5.435693822139463921e-02
3.243999999999999773e+01,1.043280047398126298e-01
3.247999999999999687e+01,1.015068202726126939e-01
3.252000000000000313e+01,8.223787621675968107e-02
3.256000000000000227e+01,1.057747384783978284e-01
3.260000000000000142e+01,5.109299974366747488e-02
3.264000000000000057e+01,6.396325641830549746e-02
3.267999999999999972e+01,1.136310502241884429e-01
3.271999999999999886e+01,1.370462116388585228e-01
3.275999999999999801e+01,8.955857881780056318e-03
3.279999999999999716e+01,9.927845185545131068e-02
3.284000000000000341e+01,2.253805677041138822e-02
3.288000000000000256e+01,7.387199082046468079e-02
3.292000000000000171e+01,4.596814621771251608e-02
3.296000000000000085e+01,7.371109377490783765e-02
3.300000000000000000e+01,5.609432717415677172e-02
3.303999999999999915e+01,8.029680887909815268e-02
3.307999999999999829e+01,8.923479865486574902e-02
3.311999999999999744e+01,5.434927707253261325e-02
3.315999999999999659e+01,8.989268022603079389e-02
3.320000000000000284e+01,5.646709491291909688e-02
3.324000000000000199e+01,9.046097451726464733e-02
3.328000000000000114e+01,1.076829586939908323e-01
3.332000000000000028e+01,7.229162338963336654e-02
3.335999999999999943e+01,7.466979299580275842e-02
3.339999999999999858e+01,3.499215910020989084e-03
3.343999999999999773e+01,3.953597191232345598e-02
3.347999999999999687e+01,4.475302752053314514e-02
3.352000000000000313e+01,6.125353050888905637e-02
3.356000000000000227e+01,1.757714278993153384e-02
3.360000000000000142e+01,2.103656569275103722e-02
3.364000000000000057e+01,9.459498125637658128e-02
3.367999999999999972e+01,7.162271834105764234e-02
3.371999999999999886e+01,8.706569344653584952e-02
3.375999999999999801e+01,1.076177859145230620e-01
3.379999999999999716e+01,1.270340971774323036e-01
3.384000000000000341e+01,1.648062755511409405e-01
3.388000000000000256e+01,1.967116875127010722e-01
3.392000000000000171e+01,2.183978276477216984e-01
3.396000000000000085e+01,2.156717461451931328e-01
3.400000000000000000e+01,2.146484673571782409e-01
3.403999999999999915e+01,1.753984945892033132e-01
3.407999999999999829e+01,1.724821169151457279e-01
3.411999999999999744e+01,1.228232737476657593e-01
3.415999999999999659e+01,8.792474140358906565e-02
3.420000000000000284e+01,7.781620243281349436e-02
3.424000000000000199e+01,7.395220277197882275e-02
3.428000000000000114e+01,6.459990370923017478e-02
3.432000000000000028e+01,4.351440667698054654e-02
3.435999999999999943e+01,3.624301808133403163e-02
3.439999999999999858e+01,2.802507016532213707e-02
3.443999999999999773e+01,2.699785232564682821e-02
3.447999999999999687e+01,2.691646599472106646e-02
3.452000000000000313e+01,2.172525192027775082e-02
3.456000000000000227e+01,3.110509773351339408e-02
3.460000000000000142e+01,2.723782292040817510e-02
3.464000000000000057e+01,1.258353741807617318e-02
3.467999999999999972e+01,1.647433393901324636e-02
3.471999999999999886e+01,2.206791225773542184e-02
3.475999999999999801e+01,2.482252764453218852e-02
3.479999999999999716e+01,1.754708495521870720e-02
3.484000000000000341e+01,2.881671964101235189e-02
3.488000000000000256e+01,1.699878116956317353e-02
3.492000000000000171e+01,2.202276391126390884e-02
3.496000000000000085e+01,1.966603434316669535e-02
3.500000000000000000e+01,7.846958834715690029e-03
3.503999999999999915e+01,2.365644202650965533e-02
3.507999999999999829e+01,2.546183338619877057e-02
3.511999999999999744e+01,2.537444793219612374e-02
3.515999999999999659e+01,1.828482298883241444e-02
3.520000000000000284e+01,1.024861548429401720e-02
3.524000000000000199e+01,1.375561906763328283e-02
3.528000000000000114e+01,1.499136255847974275e-02
3.532000000000000028e+01,8.278665335205312448e-03
3.535999999999999943e+01,1.651548338943970018e-02
3.539999999999999858e+01,2.323799512633832609e-02
3.543999999999999773e+01,2.503989170810800094e-02
3.547999999999999687e+01,2.740911211697639668e-02
3.552000000000000313e+01,2.258684326279988136e-02
3.556000000000000227e+01,1.322243439801228104e-02
3.560000000000000142e+01,5.371542450799923415e-03
3.564000000000000057e+01,1.625494395320481456e-02
3.567999999999999972e+01,3.716762923848557221e-02
3.571999999999999886e+01,1.360867433256009347e-02
3.575999999999999801e+01,1.200107775056353729e-02
3.579999999999999716e+01,1.985504351936262166e-02
3.584000000000000341e+01,1.824663894495796509e-02
3.588000000000000256e+01,2.761370891982468587e-02
3.592000000000000171e+01,2.146274813717993779e-02
3.596000000000000085e+01,2.515182368780806074e-02
3.600000000000000000e+01,1.540449862535927909e-02
3.603999999999999915e+01,2.041742977041174564e-02
3.607999999999999829e+01,1.729265880725473423e-02
3.611999999999999744e+01,1.454595376322937589e-02
3.615999999999999659e+01,3.110124500825399776e-02
3.620000000000000284e+01,1.908098460443220096e-02
3.624000000000000199e+01,1.860390623747637875e-02
3.628000000000000114e+01,2.172195750192324956e-02
3.632000000000000028e+01,1.973012873103126980e-02
3.635999999999999943e+01,2.209038452873944569e-02
3.639999999999999858e+01,3.277674935471866502e-02
3.643999999999999773e+01,4.100914586392085705e-03
3.647999999999999687e+01,1.440795560402899009e-02
3.652000000000000313e+01,3.474425600169181449e-02
3.656000000000000227e+01,2.347716524703060206e-02
3.660000000000000142e+01,2.810575032322161146e-02
3.664000000000000057e+01,2.478585633795618581e-02
3.667999999999999972e+01,3.698315722882282441e-02
3.671999999999999886e+01,4.009654084223465004e-02
3.675999999999999801e+01,3.545068122338825706e-02
3.679999999999999716e+01,3.591385065197512383e-02
3.684000000000000341e+01,4.072909070467652104e-02
3.688000000000000256e+01,5.633053694031799757e-02
3.692000000000000171e+01,7.155306859300328282e-02
3.696000000000000085e+01,6.463416323893923787e-02
3.700000000000000000e+01,5.695786234719898283e-02
3.703999999999999915e+01,8.958909618009265607e-02
3.707999999999999829e+01,1.070807441869404547e-01
3.711999999999999744e+01,1.103790017822996877e-01
3.715999999999999659e+01,9.853767122753209762e-02
3.720000000000000284e+01,9.748253755938078580e-02
3.724000000000000199e+01,1.155401294898671660e-01
3.728000000000000114e+01,1.243245485590125238e-01
3.732000000000000028e+01,1.346224345779928888e-01
3.735999999999999943e+01,1.189940856634275207e-01
3.739999999999999858e+01,1.062038765818533320e-01
3.743999999999999773e+01,7.922026779246688077e-02
3.747999999999999687e+01,5.337164267411444868e-02
3.752000000000000313e+01,4.625725638947723872e-02
3.756000000000000227e+01,3.573610788412300704e-02
3.760000000000000142e+01,3.808277711349575961e-02
3.764000000000000057e+01,2.793919466273026009e-02
3.767999999999999972e+01,2.839255583877578482e-02
3.771999999999999886e+01,3.395491933532385903e-02
3.775999999999999801e+01,3.365040370179783052e-02
3.779999999999999716e+01,3.258846928978614138e-02
3.784000000000000341e+01,4.060955933386690975e-02
3.788000000000000256e+01,4.427768128430888128e-02
3.792000000000000171e+01,5.948893646591704720e-02
3.796000000000000085e+01,7.526744342811475530e-02
3.800000000000000000e+01,7.401394468413988181e-02
3.803999999999999915e+01,6.878595182900350269e-02
3.807999999999999829e+01,7.037010467388166157e-02
3.811999999999999744e+01,4.602800050644515611e-02
3.815999999999999659e+01,5.272067207584958670e-02
3.820000000000000284e+01,3.537947746205431093e-02
3.824000000000000199e+01,2.806749226054471372e-02
3.828000000000000114e+01,4.251755285909486481e-02
3.832000000000000028e+01,3.255526515768464996e-02
3.835999999999999943e+01,3.754240558074805473e-02
3.839999999999999858e+01,1.187229797422371773e-02
3.843999999999999773e+01,9.288906726834409919e-03
3.847999999999999687e+01,2.051950422587975331e-02
3.852000000000000313e+01,6.959268984123183344e-03
3.856000000000000227e+01,1.535031072346267067e-02
3.860000000000000142e+01,1.352194467752766520e-02
3.864000000000000057e+01,8.476024351102420112e-03
3.867999999999999972e+01,1.327006133919819870e-02
3.871999999999999886e+01,1.882056734443415119e-02
3.875999999999999801e+01,1.566557543879049455e-02
3.879999999999999716e+01,1.743031516323703331e-02
3.884000000000000341e+01,1.730217000422818591e-02
3.888000000000000256e+01,2.701397634953790761e-02
3.892000000000000171e+01,2.820951945112572939e-02
3.896000000000000085e+01,2.656597760653876122e-02
3.900000000000000000e+01,3.059911884311801097e-02
3.903999999999999915e+01,3.046849760220444320e-02
3.907999999999999829e+01,2.598487340643797563e-02
3.911999999999999744e+01,4.364174923852057186e-02
3.915999999999999659e+01,4.880832923292700160e-02
3.920000000000000284e+01,6.722115911108091091e-02
3.924000000000000199e+01,1.212104769186532205e-01
3.928000000000000114e+01,2.310248882327994580e-01
3.932000000000000028e+01,2.810391702312105555e-01
3.935999999999999943e+01,2.237542536066292886e-01
3.939999999999999858e+01,2.111293073986447444e-01
3.943999999999999773e+01,1.945298264080823347e-01
3.947999999999999687e+01,2.095328007529841385e-01
3.952000000000000313e+01,2.423237592529798035e-01
3.956000000000000227e+01,2.232626327084201168e-01
3.960000000000000142e+01,1.947390265888525873e-01
3.964000000000000057e+01,1.554282645249996098e-01
3.967999999999999972e+01,1.055195846701402485e-01
3.971999999999999886e+01,7.907606261975999584e-02
3.975999999999999801e+01,5.490289389602445724e-02
3.979999999999999716e+01,4.794998324714067062e-02
3.984000000000000341e+01,4.856612442976916688e-02
3.988000000000000256e+01,5.315576929079726676e-02
3.992000000000000171e+01,7.818273710098870566e-02
3.996000000000000085e+01,1.450310693294165343e-01
4.000000000000000000e+01,2.355337905433597945e-01
4.003999999999999915e+01,3.230081561207159835e-01
4.007999999999999829e+01,2.923966611851347985e-01
4.011999999999999744e+01,2.515657143067412949e-01
4.015999999999999659e+01,1.810236648455773034e-01
4.020000000000000284e+01,1.233493575865098613e-01
4.024000000000000199e+01,8.119214178197271814e-02
4.028000000000000114e+01,4.149450351287378019e-02
4.032000000000000028e+01,3.358853549170876668e-02
4.035999999999999943e+01,3.495475803340620385e-02
4.039999999999999858e+01,3.026478543503897251e-02
4.043999999999999773e+01,4.657983862526776653e-02
4.047999999999999687e+01,6.667913874796949081e-02
4.052000000000000313e+01,5.555341130697982049e-02
4.056000000000000227e+01,8.927685989873292149e-02
4.060000000000000142e+01,1.561166458113738553e-01
4.064000000000000057e+01,2.732935455769446853e-01
4.067999999999999972e+01,3.677611823200436780e-01
4.071999999999999886e+01,3.789629739763620275e-01
4.075999999999999801e+01,3.000863040323542008e-01
4.079999999999999716e+01,2.346450768057946890e-01
4.084000000000000341e+01,1.854778808644367005e-01
4.088000000000000256e+01,1.257127322708582184e-01
4.092000000000000171e+01,1.221511081708336055e-01
4.096000000000000085e+01,1.062883752566312623e-01
4.100000000000000000e+01,1.017794467811593828e-01
4.103999999999999915e+01,9.216050114957320682e-02
4.107999999999999829e+01,6.267087060490435235e-02
4.111999999999999744e+01,3.923634018389608735e-02
4.115999999999999659e+01,3.075115654452853509e-02
4.120000000000000284e+01,2.756411344346215014e-02
4.124000000000000199e+01,1.661769696160494275e-02
4.128000000000000114e+01,3.840911941530831403e-02
4.132000000000000028e+01,2.216287571300582654e-02
4.135999999999999943e+01,2.313684476597666073e-02
4.139999999999999858e+01,3.224753827684023050e-02
4.143999999999999773e+01,2.243373299285484831e-02
4.147999999999999687e+01,3.097557286993909975e-02
4.152000000000000313e+01,2.021443299745416880e-02
4.156000000000000227e+01,1.002044032191663596e-02
4.160000000000000142e+01,1.704665342940963821e-02
4.164000000000000057e+01,1.442108838251123480e-02
4.167999999999999972e+01,2.579865843412948445e-02
4.171999999999999886e+01,2.960608047579080943e-02
4.175999999999999801e+01,4.837789344980456853e-03
4.179999999999999716e+01,1.356427930448293913e-02
4.184000000000000341e+01,2.512878011048449989e-02
4.188000000000000256e+01,3.120476072688272567e-02
4.192000000000000171e+01,3.008906615376091484e-02
4.196000000000000085e+01,4.789672074318172129e-02
4.200000000000000000e+01,7.327336441392943989e-02
4.203999999999999915e+01,8.918745762520062514e-02
4.207999999999999829e+01,9.242193085452177215e-02
4.211999999999999744e+01,1.019007144718112878e-01
4.215999999999999659e+01,8.904867070177083233e-02
4.220000000000000284e+01,8.017006321178270223e-02
4.224000000000000199e+01,4.914986532570320144e-02
4.228000000000000114e+01,4.045931498159531514e-02
4.232000000000000028e+01,3.309284701694403807e-02
4.235999999999999943e+01,2.667198163906984998e-02
4.239999999999999858e+01,2.119671768593229047e-02
4.243999999999999773e+01,2.650749839210942219e-02
4.247999999999999687e+01,2.935757052318960919e-02
4.252000000000000313e+01,1.896029194391584891e-02
4.256000000000000227e+01,1.651046480804157016e-02
4.260000000000000142e+01,2.465743836800055391e-02
4.264000000000000057e+01,1.387987827189652613e-02
4.267999999999999972e+01,1.729466353861695144e-02
4.271999999999999886e+01,3.244168190696677251e-02
4.275999999999999801e+01,2.374394093482283530e-02
4.279999999999999716e+01,2.034429401936142801e-02
4.284000000000000341e+01,1.618708190831503677e-02
4.288000000000000256e+01,1.373241453879795078e-02
4.292000000000000171e+01,1.165561554153264796e-02
4.296000000000000085e+01,2.055408541237550499e-02
4.300000000000000000e+01,1.677290857433752502e-02
4.303999999999999915e+01,1.999297265861551751e-02
4.307999999999999829e+01,1.337197743972546801e-02
4.311999999999999744e+01,1.602309260290552331e-02
4.315999999999999659e+01,3.723684625207769345e-03
4.320000000000000284e+01,2.416205980512810964e-02
4.324000000000000199e+01,2.397273006050204894e-02
4.328000000000000114e+01,1.999799329273253823e-02
4.332000000000000028e+01,1.621187396149042018e-02
4.335999999999999943e+01,1.791307173368378997e-02
4.339999999999999858e+01,1.299026926681842373e-02
4.343999999999999773e+01,1.790728583165809157e-02
4.347999999999999687e+01,1.563258188739938964e-02
4.352000000000000313e+01,1.468192546138331889e-02
4.356000000000000227e+01,2.016477690519824853e-02
4.360000000000000142e+01,5.587630912061328919e-03
4.364000000000000057e+01,1.277237500556118767e-02
4.367999999999999972e+01,1.749637566274999875e-02
4.371999999999999886e+01,2.203050350542236357e-02
4.375999999999999801e+01,2.031909928131097470e-02
4.379999999999999716e+01,7.441939630066055598e-03
4.384000000000000341e+01,2.673482659783298770e-02
4.388000000000000256e+01,2.293987894925130638e-02
4.392000000000000171e+01,1.668418089211574223e-02
4.396000000000000085e+01,1.175251757077768432e-02
4.400000000000000000e+01,2.467708363608923233e-03
4.403999999999999915e+01,1.456629899203306169e-02
4.407999999999999829e+01,2.079782688798881285e-02
4.411999999999999744e+01,1.832370115964198493e-02
4.415999999999999659e+01,2.474317696967379826e-02
4.420000000000000284e+01,1.223807380406422701e-02
4.424000000000000199e+01,2.376571507831942362e-02
4.428000000000000114e+01,2.261367245839879594e-02
4.432000000000000028e+01,2.959826946741654988e-02
4.435999999999999943e+01,1.822600079858983924e-02
4.439999999999999858e+01,2.199222410144534637e-02
4.443999999999999773e+01,2.064833147474662636e-02
4.447999999999999687e+01,2.990118492797918387e-02
4.452000000000000313e+01,3.158380902842183174e-02
4.456000000000000227e+01,3.061642481234356367e-02
4.460000000000000142e+01,3.097305673941518761e-02
4.464000000000000057e+01,3.151826775567873745e-02
4.467999999999999972e+01,3.944315068123812468e-02
4.471999999999999886e+01,6.402043080471271630e-02
4.475999999999999801e+01,1.173614231445156281e-01
4.479999999999999716e+01,1.915180752951838039e-01
4.484000000000000341e+01,2.024681300927793637e-01
4.488000000000000256e+01,1.640260563935918292e-01
4.492000000000000171e+01,1.384515877757253044e-01
4.496000000000000085e+01,1.223384154013868463e-01
4.500000000000000000e+01,7.518932463014391110e-02
4.503999999999999915e+01,4.544957902177079734e-02
4.507999999999999829e+01,3.709320303593838936e-02
4.511999999999999744e+01,3.838735796079167234e-02
4.515999999999999659e+01,2.246005985890858064e-02
4.520000000000000284e+01,1.599405102831070319e-02
4.524000000000000199e+01,1.917856962227711820e-02
4.528000000000000114e+01,2.955350337961271112e-02
4.532000000000000028e+01,3.973851784081309374e-02
4.535999999999999943e+01,3.856849223998199544e-02
4.539999999999999858e+01,5.764639107345030655e-02
4.543999999999999773e+01,5.571804243950720381e-02
4.547999999999999687e+01,4.716563314040096710e-02
4.552000000000000313e+01,2.896133296897771339e-02
4.556000000000000227e+01,3.024799532241359903e-02
4.560000000000000142e+01,3.096625161479179406e-02
4.564000000000000057e+01,2.316804944064908625e-02
4.567999999999999972e+01,1.404448162008939925e-02
4.571999999999999886e+01,0.000000000000000000e+00
4.575999999999999801e+01,1.774703059034067956e-02
4.579999999999999716e+01,1.429856393958618861e-02
4.584000000000000341e+01,2.296071838194350956e-02
4.588000000000000256e+01,1.326596298891859899e-02
4.592000000000000171e+01,1.624954431088337925e-02
4.596000000000000085e+01,1.866470911342619360e-02
4.600000000000000000e+01,1.483427677491903560e-02
4.603999999999999915e+01,1.308477600738313859e-02
4.607999999999999829e+01,1.966110305432458918e-02
4.611999999999999744e+01,2.150574399665129699e-02
4.615999999999999659e+01,2.164652671743615489e-02
4.620000000000000284e+01,2.481443293762845836e-02
4.624000000000000199e+01,3.063098286454852062e-02
4.628000000000000114e+01,2.338931216463000992e-02
4.632000000000000028e+01,1.993171873927594359e-02
4.635999999999999943e+01,2.479994499411585993e-02
4.639999999999999858e+01,2.285484454154223383e-02
4.643999999999999773e+01,3.510198021998894857e-02
4.647999999999999687e+01,5.416101756995162636e-02
4.652000000000000313e+01,4.880746840165756800e-02
4.656000000000000227e+01,4.780570748164381795e-02
4.660000000000000142e+01,9.184218644158151368e-02
4.664000000000000057e+01,1.037072634690379275e-01
4.667999999999999972e+01,1.167070568982202655e-01
4.671999999999999886e+01,1.096467622512941331e-01
4.675999999999999801e+01,1.058028141505283765e-01
4.679999999999999716e+01,9.287465593810939612e-02
4.684000000000000341e+01,8.808306414607917911e-02
4.688000000000000256e+01,8.291226842301582800e-02
4.692000000000000171e+01,5.408583182256943012e-02
4.696000000000000085e+01,4.967053927387506118e-02
4.700000000000000000e+01,4.203744957823227907e-02
4.703999999999999915e+01,3.989157007830167190e-02
4.707999999999999829e+01,3.093234411626960209e-02
4.711999999999999744e+01,3.294826617013684594e-02
4.715999999999999659e+01,3.363877958208967567e-02
4.720000000000000284e+01,3.281464387476809574e-02
4.724000000000000199e+01,3.198977240868829813e-02
4.728000000000000114e+01,2.586546319286133974e-02
4.732000000000000028e+01,2.390368083122620599e-02
4.735999999999999943e+01,3.234932156728875796e-02
4.739999999999999858e+01,4.552520477942101351e-02
4.743999999999999773e+01,3.807326105275751077e-02
4.747999999999999687e+01,4.519200187470126528e-02
4.752000000000000313e+01,3.792781083931484609e-02
4.756000000000000227e+01,3.880016530758872983e-02
4.760000000000000142e+01,4.686286754088456880e-02
4.764000000000000057e+01,5.587101897161544928e-02
4.767999999999999972e+01,5.295634499600886114e-02
4.771999999999999886e+01,4.871624610992127818e-02
4.775999999999999801e+01,5.923606295347733086e-02
4.779999999999999716e+01,7.335067476078074855e-02
4.784000000000000341e+01,7.838104624337866033e-02
4.788000000000000256e+01,7.546261213114811850e-02
4.792000000000000171e+01,7.197570455951263213e-02
4.796000000000000085e+01,7.397598045665849942e-02
4.800000000000000000e+01,7.219071220988552973e-02
4.803999999999999915e+01,6.340283029672011406e-02
4.807999999999999829e+01,6.331919672664772236e-02
4.811999999999999744e+01,5.698990442738037510e-02
4.815999999999999659e+01,5.501235389477452525e-02
4.820000000000000284e+01,4.281511668718140234e-02
4.824000000000000199e+01,4.689169578730294219e-02
4.828000000000000114e+01,3.772075684324285860e-02
4.832000000000000028e+01,3.555090543215666532e-02
4.835999999999999943e+01,3.773278997752962244e-02
4.839999999999999858e+01,3.593987944325940931e-02
4.843999999999999773e+01,2.506271115367661798e-02
4.847999999999999687e+01,2.686380520849348738e-02
4.852000000000000313e+01,2.866412631925713272e-02
4.856000000000000227e+01,2.724660496349403521e-02
4.860000000000000142e+01,2.734222286215346256e-02
4.864000000000000057e+01,2.686934638467946071e-02
4.867999999999999972e+01,2.677417094562949823e-02
4.871999999999999886e+01,3.273387484255082386e-02
4.875999999999999801e+01,2.771691853463991231e-02
4.879999999999999716e+01,2.232070251775327210e-02
4.884000000000000341e+01,2.203316577411855090e-02
4.888000000000000256e+01,2.193408494338591752e-02
4.892000000000000171e+01,3.583792888184492154e-02
4.896000000000000085e+01,4.273913242698069992e-02
4.900000000000000000e+01,5.985847211083542008e-02
4.903999999999999915e+01,6.751505797813130150e-02
4.907999999999999829e+01,9.030999985837445676e-02
4.911999999999999744e+01,8.944923694900878963e-02
4.915999999999999659e+01,7.155614412417937720e-02
4.920000000000000284e+01,7.107227561001085159e-02
4.924000000000000199e+01,6.055792952312241684e-02
4.928000000000000114e+01,4.796115594489636091e-02
4.932000000000000028e+01,3.801293659628191685e-02
4.935999999999999943e+01,4.036447539653757743e-02
4.939999999999999858e+01,2.927922430015885910e-02
4.943999999999999773e+01,2.046404531663115894e-02
4.947999999999999687e+01,1.524361249115113032e-02
4.952000000000000313e+01,2.724315536468867663e-02
4.956000000000000227e+01,2.921221136918257175e-02
4.960000000000000142e+01,2.701719811749956138e-02
4.964000000000000057e+01,2.898464432166110438e-02
4.967999999999999972e+01,1.846148907150292964e-02
4.971999999999999886e+01,1.985960288121151052e-02
4.975999999999999801e+01,2.806952307511743211e-02
4.979999999999999716e+01,3.173688957200495458e-02
4.984000000000000341e+01,2.764463284940059731e-02
4.988000000000000256e+01,2.657939271848044210e-02
4.992000000000000171e+01,2.967660390912151697e-02
4.996000000000000085e+01,3.636854731332465201e-02
5.000000000000000000e+01,3.776097394902864363e-02
5.003999999999999915e+01,3.782790827590444549e-02
5.007999999999999829e+01,2.956749446508672580e-02
5.011999999999999744e+01,3.549920987756615548e-02
5.015999999999999659e+01,3.461748935082785417e-02
5.020000000000000284e+01,3.751973338072833730e-02
5.024000000000000199e+01,3.285158188605184770e-02
5.028000000000000114e+01,4.445718743502607290e-02
5.032000000000000028e+01,4.811391650470314696e-02
5.035999999999999943e+01,4.382176793304266849e-02
5.039999999999999858e+01,5.939891990998362459e-02
5.043999999999999773e+01,5.056337148870183873e-02
5.047999999999999687e+01,7.314071952643554086e-02
5.052000000000000313e+01,9.060777500446359767e-02
5.056000000000000227e+01,9.747659661647749274e-02
5.060000000000000142e+01,1.187267728226223951e-01
5.064000000000000057e+01,1.492488409472290112e-01
5.067999999999999972e+01,1.669017999358649862e-01
5.071999999999999886e+01,1.646837939596650646e-01
5.075999999999999801e+01,1.880122575332900670e-01
5.079999999999999716e+01,1.736812581779568765e-01
5.084000000000000341e+01,1.701360594534397919e-01
5.088000000000000256e+01,1.482338056384815694e-01
5.092000000000000171e+01,1.350357176617429655e-01
5.096000000000000085e+01,1.072653585768742202e-01
5.100000000000000000e+01,8.687448779890702411e-02
5.103999999999999915e+01,6.894288196749158437e-02
5.107999999999999829e+01,6.539261678572159953e-02
5.111999999999999744e+01,5.805671682087604896e-02
5.115999999999999659e+01,4.277191597388354388e-02
5.120000000000000284e+01,5.208737531767277523e-02
5.124000000000000199e+01,4.039641869818245967e-02
5.128000000000000114e+01,4.062668581898060821e-02
5.132000000000000028e+01,2.969097904903688495e-02
5.135999999999999943e+01,3.521823726297074186e-02
5.139999999999999858e+01,4.888192942467985136e-02
5.143999999999999773e+01,4.910877242569056111e-02
5.147999999999999687e+01,4.119746593291102182e-02
5.152000000000000313e+01,5.523705992011523208e-02
5.156000000000000227e+01,5.565056194518008120e-02
5.160000000000000142e+01,6.855299636016841391e-02
5.164000000000000057e+01,7.691282362427662167e-02
5.167999999999999972e+01,8.659646135037166181e-02
5.171999999999999886e+01,1.104721818181450127e-01
5.175999999999999801e+01,1.212895224595354204e-01
5.179999999999999716e+01,1.364584991219045806e-01
5.184000000000000341e+01,1.472741021385109983e-01
5.188000000000000256e+01,1.391649030677057919e-01
5.192000000000000171e+01,1.380566869462321877e-01
5.196000000000000085e+01,1.174559484673072807e-01
5.200000000000000000e+01,1.167244640553651291e-01
5.203999999999999915e+01,9.744665153848856842e-02
5.207999999999999829e+01,7.305850114232814718e-02
5.211999999999999744e+01,7.289210557937950141e-02
5.215999999999999659e+01,5.285470321813806605e-02
5.220000000000000284e+01,4.341382266301706955e-02
5.224000000000000199e+01,5.251751399539885540e-02
5.228000000000000114e+01,4.421030614252106222e-02
5.232000000000000028e+01,4.763505250155986026e-02
5.235999999999999943e+01,4.897728189214482775e-02
5.239999999999999858e+01,3.442252313390557067e-02
5.243999999999999773e+01,3.424906551593570603e-02
5.247999999999999687e+01,3.729178827233906729e-02
5.252000000000000313e+01,4.771395517810618492e-02
5.256000000000000227e+01,4.943022326903150770e-02
5.260000000000000142e+01,5.019940331117769133e-02
5.264000000000000057e+01,4.699366509739091868e-02
5.267999999999999972e+01,4.870725528565129220e-02
5.271999999999999886e+01,3.698395912791829776e-02
5.275999999999999801e+01,3.945271549881136652e-02
5.279999999999999716e+01,3.340480539793951043e-02
5.284000000000000341e+01,2.754523616796317187e-02
5.288000000000000256e+01,3.322836556601729829e-02
5.292000000000000171e+01,3.815363693428815151e-02
5.296000000000000085e+01,2.188320305621964043e-02
5.300000000000000000e+01,2.775286597795714391e-02
5.303999999999999915e+01,2.264574435653216727e-02
5.307999999999999829e+01,3.286610185932701406e-02
5.311999999999999744e+01,2.359390330549699863e-02
5.315999999999999659e+01,3.324472854287808393e-02
5.320000000000000284e+01,2.756626033658423486e-02
5.324000000000000199e+01,2.775330084036895656e-02
5.328000000000000114e+01,3.645519930666601960e-02
5.332000000000000028e+01,2.926008289720798822e-02
5.335999999999999943e+01,2.282101019807820930e-02
5.339999999999999858e+01,2.149048429958673456e-02
5.343999999999999773e+01,1.713121348095084789e-02
5.347999999999999687e+01,2.563929906697543296e-02
5.352000000000000313e+01,2.260286821939311644e-02
5.356000000000000227e+01,2.126867184853468290e-02
5.360000000000000142e+01,2.598921304471012855e-02
5.364000000000000057e+01,1.689436253732223142e-02
5.367999999999999972e+01,2.142381988567083201e-02
5.371999999999999886e+01,1.913973787319996067e-02
5.375999999999999801e+01,2.215343151832272622e-02
5.379999999999999716e+01,2.213836978493680108e-02
5.384000000000000341e+01,2.761032070038323474e-02
5.388000000000000256e+01,1.945611225534305683e-02
5.392000000000000171e+01,2.114141838740476315e-02
5.396000000000000085e+01,1.639165681704339919e-02
5.400000000000000000e+01,3.132185189632154254e-02
5.403999999999999915e+01,1.691901979542536141e-02
5.407999999999999829e+01,2.522397106520125540e-02
5.411999999999999744e+01,2.576917477715503710e-02
5.415999999999999659e+01,2.593496306671011498e-02
5.420000000000000284e+01,2.420742024926928956e-02
5.424000000000000199e+01,2.607448530706031956e-02
5.428000000000000114e+01,2.169571268142393358e-02
5.432000000000000028e+01,3.075199000355693588e-02
5.435999999999999943e+01,1.482773510154245487e-02
5.439999999999999858e+01,2.312516879643294887e-02
5.443999999999999773e+01,2.650143536697134594e-02
5.447999999999999687e+01,2.438881570515841549e-02
5.452000000000000313e+01,2.303220605450014002e-02
5.456000000000000227e+01,2.243160525295601754e-02
5.460000000000000142e+01,3.848311462533098720e-02
5.464000000000000057e+01,3.258191268438857119e-02
5.467999999999999972e+01,4.408977585456266834e-02
5.471999999999999886e+01,4.575624156779212193e-02
5.475999999999999801e+01,4.552935990545911582e-02
5.479999999999999716e+01,4.151673655232730742e-02
5.484000000000000341e+01,4.620816515744907704e-02
5.488000000000000256e+01,4.276134549534061496e-02
5.492000000000000171e+01,4.442302847633258778e-02
5.496000000000000085e+01,4.192048648772467995e-02
5.500000000000000000e+01,4.149861577302291216e-02
5.503999999999999915e+01,2.574739816078462293e-02
5.507999999999999829e+01,3.232545623756748199e-02
5.511999999999999744e+01,2.830514797572259572e-02
5.515999999999999659e+01,2.485159181706526194e-02
5.520000000000000284e+01,2.612805153658590007e-02
5.524000000000000199e+01,1.888777389987283603e-02
5.528000000000000114e+01,2.659643284451464890e-02
5.532000000000000028e+01,2.427443758628513790e-02
5.535999999999999943e+01,2.762865013466966196e-02
5.539999999999999858e+01,3.438819754379268678e-02
5.543999999999999773e+01,2.865697616476839751e-02
5.547999999999999687e+01,1.611216429514386594e-02
5.552000000000000313e+01,2.267954697166230452e-02
5.556000000000000227e+01,2.527192656329348489e-02
5.560000000000000142e+01,2.597093437651231199e-02
5.564000000000000057e+01,2.155950088884533294e-02
5.567999999999999972e+01,2.320274454210793924e-02
5.571999999999999886e+01,2.068174114700166780e-02
5.575999999999999801e+01,2.383693393810479288e-02
5.579999999999999716e+01,2.718038160910869055e-02
5.584000000000000341e+01,2.692729669158124353e-02
5.588000000000000256e+01,2.667322501455405073e-02
5.592000000000000171e+01,1.865935348788354264e-02
5.596000000000000085e+01,6.920503694985513654e-02
5.600000000000000000e+01,7.641383309405734570e-02
5.603999999999999915e+01,9.610664051740498703e-02
5.607999999999999829e+01,1.074046381654773508e-01
5.611999999999999744e+01,8.452080609586018478e-02
5.615999999999999659e+01,6.185221290589013043e-02
5.620000000000000284e+01,8.865641003756513649e-02
5.624000000000000199e+01,5.095764270644598248e-02
5.628000000000000114e+01,7.656544255907227203e-02
5.632000000000000028e+01,1.164423052200664055e-01
5.635999999999999943e+01,1.084373226134955348e-01
5.639999999999999858e+01,6.350548368512173858e-02
5.643999999999999773e+01,9.570608465103627727e-02
5.647999999999999687e+01,6.134153047940769932e-02
5.652000000000000313e+01,5.559364036684116828e-02
5.656000000000000227e+01,3.043954908844926505e-02
5.660000000000000142e+01,8.473918751415214501e-02
5.664000000000000057e+01,7.889615941432548407e-02
5.667999999999999972e+01,9.606358210159407496e-02
5.671999999999999886e+01,9.154570698334903167e-02
5.675999999999999801e+01,6.357797002549253618e-02
5.679999999999999716e+01,9.299234956208375646e-02
5.684000000000000341e+01,1.187384057577225566e-01
5.688000000000000256e+01,1.293784128887206231e-01
5.692000000000000171e+01,9.069900723171037127e-02
5.696000000000000085e+01,7.845429688161796589e-02
5.700000000000000000e+01,8.098906213112327945e-02
5.703999999999999915e+01,7.326560769974030385e-02
5.707999999999999829e+01,5.659393119022876339e-02
5.711999999999999744e+01,1.110613785542933774e-01
5.715999999999999659e+01,9.044728868692895885e-02
5.720000000000000284e+01,7.486221799328249271e-02
5.724000000000000199e+01,1.087927131646188594e-01
5.728000000000000114e+01,9.240108427209089981e-02
5.732000000000000028e+01,3.937195919681046180e-02
5.735999999999999943e+01,1.024428538848367043e-01
5.739999999999999858e+01,6.079721935132754995e-02
5.743999999999999773e+01,3.782097005791308642e-02
5.747999999999999687e+01,7.848929981906387077e-02
5.752000000000000313e+01,6.330785248592275816e-02
5.756000000000000227e+01,1.297748057708641711e-01
5.760000000000000142e+01,1.188798024871681042e-01
5.764000000000000057e+01,1.322063936750990376e-01
5.767999999999999972e+01,1.264187749644306302e-01
5.771999999999999886e+01,9.886759477864820456e-02
5.775999999999999801e+01,8.664375775835066185e-02
5.779999999999999716e+01,8.936878411085838469e-02
5.784000000000000341e+01,7.335807454724406484e-02
5.788000000000000256e+01,6.226654232041584081e-02
5.792000000000000171e+01,6.290680161983851215e-02
5.796000000000000085e+01,5.521948385959508238e-02
5.800000000000000000e+01,5.907471598620189779e-02
5.803999999999999915e+01,5.554856530565974171e-02
5.807999999999999829e+01,4.558722723252605497e-02
5.811999999999999744e+01,3.940962363201806762e-02
5.815999999999999659e+01,4.080053964848714271e-02
5.820000000000000284e+01,4.105496561519174359e-02
5.824000000000000199e+01,3.222484912666865459e-02
5.828000000000000114e+01,3.512651370603211975e-02
5.832000000000000028e+01,2.705124035289114756e-02
5.835999999999999943e+01,3.354633547334957833e-02
5.839999999999999858e+01,2.906449033722261627e-02
5.843999999999999773e+01,2.628473790888211439e-02
5.847999999999999687e+01,2.691023086416403226e-02
5.852000000000000313e+01,2.772389968059476781e-02
5.856000000000000227e+01,2.210236715994829543e-02
5.860000000000000142e+01,2.499553805043171553e-02
5.864000000000000057e+01,2.239970185635487693e-02
5.867999999999999972e+01,3.040019921784239271e-02
5.871999999999999886e+01,3.499331963920428168e-02
5.875999999999999801e+01,2.898796797625564914e-02
5.879999999999999716e+01,2.809100623848188524e-02
5.884000000000000341e+01,4.271059560641991826e-02
5.888000000000000256e+01,5.316584612479206134e-02
5.892000000000000171e+01,7.005415828945477097e-02
5.896000000000000085e+01,6.839594131618192963e-02
5.900000000000000000e+01,5.348989487188156311e-02
5.903999999999999915e+01,5.258647920053388658e-02
5.907999999999999829e+01,4.108458214855193608e-02
5.911999999999999744e+01,4.737009985183360944e-02
5.915999999999999659e+01,3.813691165209071726e-02
5.920000000000000284e+01,3.249818723456131958e-02
5.924000000000000199e+01,2.799381433805029837e-02
5.928000000000000114e+01,1.837889439497067748e-02
5.932000000000000028e+01,1.841409283820999443e-02
5.935999999999999943e+01,2.809940850572774027e-02
5.939999999999999858e+01,2.396916513585447064e-02
5.943999999999999773e+01,1.927011363892088686e-02
5.947999999999999687e+01,1.400225285288651984e-02
5.952000000000000313e+01,1.232884655274194344e-02
5.956000000000000227e+01,1.973783372071461970e-02
5.960000000000000142e+01,1.730528166280530938e-02
5.964000000000000057e+01,1.165456525315913643e-02
5.967999999999999972e+01,1.546471745614799199e-02
5.971999999999999886e+01,2.249083970418504913e-02
5.975999999999999801e+01,1.399823861859057252e-02
5.979999999999999716e+01,1.288487019099429642e-02
5.984000000000000341e+01,2.444943408830419634e-02
5.988000000000000256e+01,1.141178403052092727e-02
5.992000000000000171e+01,1.654000411783101629e-02
5.996000000000000085e+01,7.852648899183462330e-03
