2.003999999999999915e+01,3.761673941831576023e-02
2.007999999999999829e+01,2.611209352621507787e-02
2.012000000000000099e+01,2.504530691808874027e-02
2.016000000000000014e+01,2.983397789574327233e-02
2.019999999999999929e+01,3.220432642407439205e-02
2.023999999999999844e+01,2.553732827417895535e-02
2.028000000000000114e+01,3.809112005557011016e-02
2.032000000000000028e+01,3.498853992573807553e-02
2.035999999999999943e+01,3.086781132007000369e-02
2.039999999999999858e+01,2.560164432630247094e-02
2.044000000000000128e+01,2.339057190993183710e-02
2.048000000000000043e+01,2.385272634235596420e-02
2.051999999999999957e+01,1.082241528196696036e-02
2.055999999999999872e+01,2.248631017549110669e-02
2.060000000000000142e+01,2.142147101703066950e-02
2.064000000000000057e+01,3.932283493667241420e-02
2.067999999999999972e+01,4.665937423502149184e-02
2.071999999999999886e+01,4.215819882628994014e-02
2.076000000000000156e+01,4.363975485009990996e-02
2.080000000000000071e+01,4.079363974063592024e-02
2.083999999999999986e+01,1.503567190107161361e-02
2.087999999999999901e+01,1.639039123788748123e-02
2.092000000000000171e+01,2.092748201114224757e-02
2.096000000000000085e+01,3.284747718633226898e-02
2.100000000000000000e+01,2.249206015589312949e-02
2.103999999999999915e+01,2.422923512146906225e-02
2.107999999999999829e+01,2.354806554765448076e-02
2.112000000000000099e+01,2.744944037967247258e-02
2.116000000000000014e+01,1.684002238801897075e-02
2.119999999999999929e+01,1.857777019234364835e-02
2.123999999999999844e+01,2.324330358401684171e-02
2.128000000000000114e+01,2.179910907891705399e-02
2.132000000000000028e+01,1.462705239745875144e-02
2.135999999999999943e+01,1.929300186292513472e-02
2.139999999999999858e+01,2.217704329709644512e-02
2.144000000000000128e+01,1.360521867500418848e-02
2.148000000000000043e+01,2.425415386138014828e-02
2.151999999999999957e+01,1.580988649314060690e-02
2.155999999999999872e+01,3.027775526209400270e-02
2.160000000000000142e+01,2.170646331499262102e-02
2.164000000000000057e+01,2.395485922080303060e-02
2.167999999999999972e+01,2.302116207679741691e-02
2.171999999999999886e+01,2.399692720565773166e-02
2.176000000000000156e+01,2.153601946017514104e-02
2.180000000000000071e+01,2.302119451008105555e-02
2.183999999999999986e+01,2.896160698395911642e-02
2.187999999999999901e+01,3.031974339768781293e-02
2.192000000000000171e+01,1.678520118545188955e-02
2.196000000000000085e+01,2.221682891621791847e-02
2.200000000000000000e+01,2.752128936048182234e-02
2.203999999999999915e+01,2.785688094340479579e-03
2.207999999999999829e+01,1.585501216799066124e-02
2.212000000000000099e+01,2.166898708537041626e-02
2.216000000000000014e+01,1.770720157822719453e-03
2.219999999999999929e+01,2.120484245581738536e-02
2.223999999999999844e+01,2.409152228889362840e-02
2.228000000000000114e+01,1.259467009183716339e-02
2.232000000000000028e+01,2.133686788263121706e-02
2.235999999999999943e+01,2.244184376808290582e-02
2.239999999999999858e+01,1.909181944833348785e-02
2.244000000000000128e+01,2.541586272609239194e-02
2.248000000000000043e+01,2.550285907609049080e-02
2.251999999999999957e+01,2.558996399453472570e-02
2.255999999999999872e+01,1.727610853815041841e-02
2.260000000000000142e+01,1.736342758120472743e-02
2.264000000000000057e+01,8.540628608565109525e-03
2.267999999999999972e+01,2.008415949509981951e-02
2.271999999999999886e+01,2.182654800056683941e-02
2.276000000000000156e+01,2.191428324371396535e-02
2.280000000000000071e+01,1.767429714888982262e-02
2.283999999999999986e+01,6.942677273120638481e-03
2.287999999999999901e+01,2.205080528734027975e-02
2.292000000000000171e+01,2.672134135917560854e-02
2.296000000000000085e+01,1.688103942311182729e-02
2.300000000000000000e+01,1.480545740469994993e-02
2.303999999999999915e+01,2.405868372858951248e-02
2.307999999999999829e+01,2.312889191005770492e-02
2.312000000000000099e+01,1.570745928192327640e-02
2.316000000000000014e+01,2.317892141255148072e-02
2.319999999999999929e+01,2.046736238847656972e-02
2.323999999999999844e+01,1.291891534871925790e-02
2.328000000000000114e+01,2.217269367798391927e-02
2.332000000000000028e+01,1.666104714616499852e-02
2.335999999999999943e+01,1.305882171936033689e-02
2.339999999999999858e+01,2.918813827378438793e-04
2.344000000000000128e+01,2.202032063430816450e-02
2.348000000000000043e+01,2.198244105910218335e-02
2.351999999999999957e+01,2.385397857253451423e-02
2.355999999999999872e+01,1.643350825160396281e-02
2.360000000000000142e+01,1.690503169508563233e-02
2.364000000000000057e+01,1.279423489828429746e-02
2.367999999999999972e+01,1.721187439855433737e-02
2.371999999999999886e+01,1.348310222161032065e-02
2.376000000000000156e+01,2.171956485412357071e-02
2.380000000000000071e+01,3.873903858776506226e-02
2.383999999999999986e+01,1.438969259969707752e-02
2.387999999999999901e+01,2.377198170577206338e-02
2.392000000000000171e+01,1.647949726681331370e-02
2.396000000000000085e+01,2.891686601517558242e-02
2.400000000000000000e+01,2.289741449594464087e-02
2.403999999999999915e+01,1.535056649155693183e-02
2.407999999999999829e+01,1.544112238611522990e-02
2.412000000000000099e+01,3.347948273724712931e-02
2.416000000000000014e+01,2.695115121227874624e-02
2.419999999999999929e+01,2.844208729848284392e-02
2.423999999999999844e+01,2.598713262384184930e-02
2.428000000000000114e+01,1.894984164341462912e-02
2.432000000000000028e+01,2.273217124160476291e-02
2.435999999999999943e+01,1.429482803565684974e-02
2.439999999999999858e+01,1.629523667563029243e-02
2.444000000000000128e+01,1.002192665652913012e-02
2.448000000000000043e+01,9.222099056554789592e-03
2.451999999999999957e+01,2.446073224967352730e-02
2.455999999999999872e+01,2.595222072015160655e-02
2.460000000000000142e+01,1.980643105602640161e-02
2.464000000000000057e+01,1.760665289661937985e-02
2.467999999999999972e+01,2.164408558488575482e-02
2.471999999999999886e+01,2.020814856514678917e-02
2.476000000000000156e+01,2.055430859896434717e-02
2.480000000000000071e+01,2.102780887604225463e-02
2.483999999999999986e+01,1.411860281029193517e-02
2.487999999999999901e+01,1.561051401062517850e-02
2.492000000000000171e+01,1.506585100305711349e-02
2.496000000000000085e+01,2.190399198802945799e-02
2.500000000000000000e+01,2.110484479745903044e-02
2.503999999999999915e+01,1.610520894782562981e-02
2.507999999999999829e+01,1.479699574153817317e-02
2.512000000000000099e+01,2.061700469507657743e-02
2.516000000000000014e+01,7.980164262297258226e-03
2.519999999999999929e+01,1.570959043077365877e-02
2.523999999999999844e+01,1.300136641941665797e-02
2.528000000000000114e+01,9.020292612329203902e-03
2.532000000000000028e+01,1.267659157727552346e-02
2.535999999999999943e+01,1.709666126901391442e-02
2.539999999999999858e+01,2.037116706090943280e-02
2.544000000000000128e+01,1.689939598941458607e-02
2.548000000000000043e+01,1.419139263242995101e-02
2.551999999999999957e+01,1.988449047602571657e-02
2.555999999999999872e+01,1.921317516845741716e-02
2.560000000000000142e+01,2.897958158399198750e-02
2.564000000000000057e+01,1.443383678828904192e-02
2.567999999999999972e+01,6.252566646080253733e-03
2.571999999999999886e+01,2.352910637868180568e-02
2.576000000000000156e+01,2.298522620440349509e-02
2.580000000000000071e+01,1.480403777270336042e-02
2.583999999999999986e+01,2.902572240746619653e-02
2.587999999999999901e+01,1.664404945937855707e-02
2.592000000000000171e+01,1.979164652841826702e-02
2.596000000000000085e+01,1.466548678281344789e-02
2.600000000000000000e+01,2.188637234191303030e-02
2.603999999999999915e+01,2.172452143536595520e-02
2.607999999999999829e+01,2.321744553910572509e-02
2.612000000000000099e+01,2.547412129185260346e-02
2.616000000000000014e+01,1.805685721962177817e-02
2.619999999999999929e+01,3.036939010545082820e-02
2.623999999999999844e+01,3.593562604601057558e-02
2.628000000000000114e+01,2.368142902646904954e-02
2.632000000000000028e+01,4.401320567781512316e-02
2.635999999999999943e+01,3.685059033999762979e-02
2.639999999999999858e+01,4.228958808228387017e-02
2.644000000000000128e+01,4.620112909377642463e-02
2.648000000000000043e+01,7.353383837158393443e-02
2.651999999999999957e+01,7.986388596049145971e-02
2.655999999999999872e+01,1.255262133287011472e-01
2.660000000000000142e+01,1.613873009187302698e-01
2.664000000000000057e+01,1.889746146245177283e-01
2.667999999999999972e+01,2.164346435648112077e-01
2.671999999999999886e+01,1.975615130700243138e-01
2.676000000000000156e+01,1.427929126059539477e-01
2.680000000000000071e+01,1.181917845084251573e-01
2.683999999999999986e+01,7.678852065883508271e-02
2.687999999999999901e+01,6.593459389210687416e-02
2.692000000000000171e+01,6.399088881534854834e-02
2.696000000000000085e+01,6.930264861826376799e-02
2.700000000000000000e+01,5.641209066287861118e-02
2.703999999999999915e+01,5.115886230348733882e-02
2.707999999999999829e+01,3.368589286156954687e-02
2.712000000000000099e+01,2.245007301759437482e-02
2.716000000000000014e+01,2.432500280861557909e-02
2.719999999999999929e+01,1.856258919892684114e-02
2.723999999999999844e+01,2.221954487913398169e-02
2.728000000000000114e+01,1.594795480339399052e-02
2.732000000000000028e+01,2.698764431586481508e-02
2.735999999999999943e+01,2.542571899264327306e-02
2.739999999999999858e+01,2.042697921783230564e-02
2.744000000000000128e+01,2.357471463075338017e-02
2.748000000000000043e+01,3.474163531914319092e-02
2.751999999999999957e+01,3.483440405349771951e-02
2.755999999999999872e+01,2.652608690128035324e-02
2.760000000000000142e+01,2.891001908380726529e-02
2.764000000000000057e+01,2.034708520818636832e-02
2.767999999999999972e+01,2.082164285291972575e-02
2.771999999999999886e+01,1.213137714568897178e-02
2.776000000000000156e+01,1.209673422611636483e-02
2.780000000000000071e+01,1.066188934472525260e-02
2.783999999999999986e+01,1.495502035490811100e-02
2.787999999999999901e+01,2.077559228298075239e-02
2.792000000000000171e+01,9.030267899439167051e-03
2.796000000000000085e+01,1.841487428368717913e-02
2.800000000000000000e+01,1.328851614419874691e-02
2.803999999999999915e+01,2.470968607021354138e-02
2.807999999999999829e+01,2.047428929077935514e-02
2.812000000000000099e+01,2.171228355792267570e-02
2.816000000000000014e+01,2.435042280612881305e-02
2.819999999999999929e+01,2.520648332706873149e-02
2.823999999999999844e+01,2.249841940227699164e-02
2.828000000000000114e+01,2.590018704853385909e-02
2.832000000000000028e+01,1.275435960759231831e-02
2.835999999999999943e+01,1.488316311770852829e-02
2.839999999999999858e+01,1.828481667615433626e-02
2.844000000000000128e+01,1.964980766643154367e-02
2.848000000000000043e+01,1.172266731879018087e-02
2.851999999999999957e+01,2.416171023260688111e-02
2.855999999999999872e+01,2.870879779018059921e-02
2.860000000000000142e+01,2.078152829331899112e-02
2.864000000000000057e+01,1.794577006530542751e-02
2.867999999999999972e+01,1.854676629584368214e-02
2.871999999999999886e+01,3.009456156283456252e-02
2.876000000000000156e+01,2.509475069759351321e-02
2.880000000000000071e+01,3.027800341160065412e-02
2.883999999999999986e+01,3.278813897565265728e-02
2.887999999999999901e+01,2.651528879352436224e-02
2.892000000000000171e+01,3.055278808653189709e-02
2.896000000000000085e+01,2.860765560489798159e-02
2.900000000000000000e+01,2.869909155920096974e-02
2.903999999999999915e+01,4.062834087439073233e-02
2.907999999999999829e+01,5.013904483140041446e-02
2.912000000000000099e+01,4.933929011963338052e-02
2.916000000000000014e+01,4.993965528658031450e-02
2.919999999999999929e+01,7.497943170680901326e-02
2.923999999999999844e+01,6.921523223070544240e-02
2.928000000000000114e+01,6.803337232526920908e-02
2.932000000000000028e+01,8.619936433405667175e-02
2.935999999999999943e+01,1.125117833340668061e-01
2.939999999999999858e+01,1.446794279741563383e-01
2.944000000000000128e+01,1.597902937797392176e-01
2.948000000000000043e+01,1.687912258492900164e-01
2.951999999999999957e+01,1.847929807201629526e-01
2.955999999999999872e+01,2.164512031437833550e-01
2.960000000000000142e+01,2.574014467075873558e-01
2.964000000000000057e+01,3.137535779996121210e-01
2.967999999999999972e+01,4.070194214963923640e-01
2.971999999999999886e+01,5.159417285295443412e-01
2.976000000000000156e+01,6.284280518188809506e-01
2.980000000000000071e+01,7.692997274533416308e-01
2.983999999999999986e+01,8.894232358754434742e-01
2.987999999999999901e+01,1.000000000000000000e+00
2.992000000000000171e+01,9.920707134299099339e-01
2.996000000000000085e+01,9.066224035916264912e-01
3.000000000000000000e+01,7.897336542383790459e-01
3.003999999999999915e+01,6.200199277936141451e-01
3.007999999999999829e+01,4.902748373087308376e-01
3.012000000000000099e+01,3.545470859304816202e-01
3.016000000000000014e+01,2.788996159946916520e-01
3.019999999999999929e+01,2.012154393105992645e-01
3.023999999999999844e+01,1.747013184889200099e-01
3.028000000000000114e+01,1.414407993084827453e-01
3.032000000000000028e+01,9.888810260180534717e-02
3.035999999999999943e+01,8.713923343815524469e-02
3.039999999999999858e+01,8.060912027138882052e-02
3.044000000000000128e+01,5.994984805566327263e-02
3.048000000000000043e+01,7.365848979942640762e-02
3.051999999999999957e+01,6.432774691418439994e-02
3.055999999999999872e+01,6.581646796890397444e-02
3.060000000000000142e+01,8.512554190880823601e-02
3.064000000000000057e+01,1.422393263123990781e-01
3.067999999999999972e+01,2.319389749406372825e-01
3.071999999999999886e+01,2.399190472533068164e-01
3.076000000000000156e+01,1.800540332367786267e-01
3.080000000000000071e+01,1.340634109317139222e-01
3.083999999999999986e+01,7.623481988379984808e-02
3.087999999999999901e+01,5.366515511162067015e-02
3.092000000000000171e+01,2.867689879293987276e-02
3.096000000000000085e+01,3.334685478235249745e-02
3.100000000000000000e+01,3.559821721707560893e-02
3.103999999999999915e+01,3.988609687894423272e-02
3.107999999999999829e+01,2.584426745676037321e-02
3.112000000000000099e+01,2.898633332569287499e-02
3.116000000000000014e+01,3.874731410358748379e-02
3.119999999999999929e+01,3.259707204036634692e-02
3.123999999999999844e+01,3.497507650046045163e-02
3.128000000000000114e+01,4.613590429611474919e-02
3.132000000000000028e+01,4.418586221809820552e-02
3.135999999999999943e+01,5.190966382463966383e-02
3.139999999999999858e+01,2.730196841574302619e-02
3.144000000000000128e+01,1.529575957111268397e-02
3.148000000000000043e+01,1.920054789905914494e-02
3.151999999999999957e+01,2.399624123149918936e-02
3.155999999999999872e+01,2.293652643136059530e-02
3.160000000000000142e+01,1.996735864780093545e-02
3.164000000000000057e+01,2.030758211167157934e-02
3.167999999999999972e+01,3.566777537046348506e-02
3.171999999999999886e+01,3.040704313265050335e-02
3.176000000000000156e+01,5.353161403935797341e-02
3.180000000000000071e+01,6.481819210496130024e-02
3.183999999999999986e+01,7.024935500932842636e-02
3.187999999999999901e+01,5.696892202325586768e-02
3.192000000000000171e+01,4.992551814385221692e-02
3.196000000000000085e+01,3.919060752981033680e-02
3.200000000000000000e+01,4.233005850441348694e-02
3.203999999999999915e+01,7.729160611545332626e-02
3.207999999999999829e+01,1.043611100099827715e-01
3.211999999999999744e+01,8.675207472295115574e-02
3.215999999999999659e+01,7.321615107914493381e-02
3.220000000000000284e+01,3.447688919550804393e-02
3.224000000000000199e+01,2.234087369289263977e-02
3.228000000000000114e+01,2.191530131138486048e-02
3.232000000000000028e+01,2.874505926096174863e-02
3.235999999999999943e+01,2.106374324056179900e-02
3.239999999999999858e+01,2.216522244109146722e-02
3.243999999999999773e+01,2.975829551140751067e-02
3.247999999999999687e+01,2.665895884454693929e-02
3.252000000000000313e+01,2.394134644715363927e-02
3.256000000000000227e+01,2.313292421316648362e-02
3.260000000000000142e+01,2.168791297510350505e-02
3.264000000000000057e+01,2.406142351479977418e-02
3.267999999999999972e+01,6.705006816822241256e-03
3.271999999999999886e+01,1.416977973636722107e-02
3.275999999999999801e+01,2.430747124786497224e-02
3.279999999999999716e+01,3.126279057142919426e-02
3.284000000000000341e+01,2.243413479419518325e-02
3.288000000000000256e+01,2.226097328059396807e-02
3.292000000000000171e+01,2.616090433243319774e-02
3.296000000000000085e+01,3.209730441490851044e-02
3.300000000000000000e+01,3.816083890138492057e-02
3.303999999999999915e+01,3.442297195055522840e-02
3.307999999999999829e+01,3.768583843668641548e-02
3.311999999999999744e+01,5.698694983571191836e-02
3.315999999999999659e+01,6.343172298908390794e-02
3.320000000000000284e+01,8.655118358800940881e-02
3.324000000000000199e+01,1.272363529855801423e-01
3.328000000000000114e+01,2.031803884132489801e-01
3.332000000000000028e+01,2.802698614775225860e-01
3.335999999999999943e+01,3.064436077330220387e-01
3.339999999999999858e+01,3.071594078095336577e-01
3.343999999999999773e+01,2.782167267333730543e-01
3.347999999999999687e+01,2.119782290102825151e-01
3.352000000000000313e+01,1.318650727393376187e-01
3.356000000000000227e+01,1.114502458383580946e-01
3.360000000000000142e+01,8.187044798360423870e-02
3.364000000000000057e+01,6.629225945781301588e-02
3.367999999999999972e+01,7.031639121634405964e-02
3.371999999999999886e+01,6.453910446797195277e-02
3.375999999999999801e+01,7.658209128136266031e-02
3.379999999999999716e+01,6.698578911990797635e-02
3.384000000000000341e+01,9.672158399265691486e-02
3.388000000000000256e+01,1.178015565156515232e-01
3.392000000000000171e+01,1.300984167766283395e-01
3.396000000000000085e+01,1.234290511179414185e-01
3.400000000000000000e+01,1.265607517817813887e-01
3.403999999999999915e+01,1.085623130788899160e-01
3.407999999999999829e+01,9.514609345539197516e-02
3.411999999999999744e+01,6.963724493700214346e-02
3.415999999999999659e+01,6.462172701099302974e-02
3.420000000000000284e+01,4.598611128387140173e-02
3.424000000000000199e+01,4.033377855894795111e-02
3.428000000000000114e+01,3.849992644393188113e-02
3.432000000000000028e+01,3.259264162822642780e-02
3.435999999999999943e+01,2.223005638322944968e-02
3.439999999999999858e+01,2.205039414432806433e-02
3.443999999999999773e+01,1.206929532483243771e-02
3.447999999999999687e+01,2.550916395286220023e-02
3.452000000000000313e+01,1.972821478757411789e-02
3.456000000000000227e+01,2.018422845875446348e-02
3.460000000000000142e+01,1.707595803326536141e-02
3.464000000000000057e+01,1.384020302758676157e-02
3.467999999999999972e+01,1.378647405002902948e-02
3.471999999999999886e+01,2.544312694384817317e-02
3.475999999999999801e+01,2.476998131288291657e-03
3.479999999999999716e+01,1.146018558085208985e-02
3.484000000000000341e+01,1.140565985789858405e-02
3.488000000000000256e+01,3.331731223688950711e-03
3.492000000000000171e+01,1.753315881844670285e-02
3.496000000000000085e+01,1.821489288623525825e-03
3.500000000000000000e+01,2.060490916384232624e-02
3.503999999999999915e+01,1.825816456998095166e-02
3.507999999999999829e+01,6.109967330022177123e-03
3.511999999999999744e+01,6.817742094025349038e-03
3.515999999999999659e+01,1.172584210237729609e-02
3.520000000000000284e+01,3.650263748114946239e-03
3.524000000000000199e+01,1.084914364075134294e-02
3.528000000000000114e+01,1.333812219359659448e-02
3.532000000000000028e+01,2.079685922529314179e-03
3.535999999999999943e+01,9.787083222991557752e-03
3.539999999999999858e+01,5.656397313894350257e-03
3.543999999999999773e+01,1.018114140641735409e-02
3.547999999999999687e+01,9.868690230510049691e-03
3.552000000000000313e+01,1.019246583336277587e-02
3.556000000000000227e+01,4.278866169733910180e-03
3.560000000000000142e+01,3.074736338098012483e-03
3.564000000000000057e+01,1.103518712029015296e-02
3.567999999999999972e+01,8.812303470467403380e-03
3.571999999999999886e+01,9.898708650492365688e-03
3.575999999999999801e+01,1.480355728894870021e-02
3.579999999999999716e+01,1.347102463635972344e-02
3.584000000000000341e+01,2.464309168057770422e-03
3.588000000000000256e+01,2.276924095222332672e-03
3.592000000000000171e+01,1.545464657714751104e-02
3.596000000000000085e+01,1.323018236345480103e-02
3.600000000000000000e+01,1.635162248166254981e-02
3.603999999999999915e+01,1.399940873327779056e-02
3.607999999999999829e+01,1.406545242070934149e-02
3.611999999999999744e+01,1.451313000915290322e-02
3.615999999999999659e+01,8.341550545197501387e-03
3.620000000000000284e+01,9.170626198875007906e-03
3.624000000000000199e+01,2.196462338469815784e-02
3.628000000000000114e+01,1.706522549510259418e-02
3.632000000000000028e+01,1.140185631252473020e-02
3.635999999999999943e+01,1.872171691516579667e-02
3.639999999999999858e+01,7.711734889259359328e-03
3.643999999999999773e+01,1.986809329393605938e-02
3.647999999999999687e+01,1.369460706187731157e-02
3.652000000000000313e+01,1.350345664934474339e-02
3.656000000000000227e+01,2.222228594014058825e-02
3.660000000000000142e+01,2.101233552109958019e-02
3.664000000000000057e+01,3.011254078706252293e-02
3.667999999999999972e+01,2.699276398795153256e-02
3.671999999999999886e+01,2.972802907972753317e-02
3.675999999999999801e+01,2.749877786389758050e-02
3.679999999999999716e+01,3.201558888795254937e-02
3.684000000000000341e+01,3.525925993312623019e-02
3.688000000000000256e+01,4.575814684267454774e-02
3.692000000000000171e+01,5.587491412233950433e-02
3.696000000000000085e+01,5.351711449193406744e-02
3.700000000000000000e+01,7.177986307140854505e-02
3.703999999999999915e+01,7.680430928360833243e-02
3.707999999999999829e+01,9.404823375831965204e-02
3.711999999999999744e+01,9.869029839841535201e-02
3.715999999999999659e+01,9.022134656712399448e-02
3.720000000000000284e+01,7.907906773024243885e-02
3.724000000000000199e+01,8.499324164993379838e-02
3.728000000000000114e+01,7.563248464707643393e-02
3.732000000000000028e+01,7.276319901454382510e-02
3.735999999999999943e+01,6.620227109469004056e-02
3.739999999999999858e+01,5.531325534257412052e-02
3.743999999999999773e+01,4.836992978511314017e-02
3.747999999999999687e+01,2.666082391731122367e-02
3.752000000000000313e+01,4.059234437015715735e-02
3.756000000000000227e+01,1.506403431961056243e-02
3.760000000000000142e+01,2.492177076518509865e-02
3.764000000000000057e+01,2.077745633305935757e-02
3.767999999999999972e+01,2.452478222427624879e-02
3.771999999999999886e+01,1.796143356651764417e-02
3.775999999999999801e+01,1.687123396869518246e-02
3.779999999999999716e+01,1.336227012021210317e-02
3.784000000000000341e+01,2.652787724238455519e-02
3.788000000000000256e+01,1.970884877833123730e-02
3.792000000000000171e+01,2.905523364406793416e-02
3.796000000000000085e+01,3.356436098754960601e-02
3.800000000000000000e+01,2.610805094719588493e-02
3.803999999999999915e+01,3.328968432631756319e-02
3.807999999999999829e+01,3.677965734442695256e-02
3.811999999999999744e+01,3.772356917095478351e-02
3.815999999999999659e+01,3.090257356686160195e-02
3.820000000000000284e+01,2.344484838553997225e-02
3.824000000000000199e+01,1.713243733726750942e-02
3.828000000000000114e+01,2.367591896953514033e-02
3.832000000000000028e+01,1.621733265450538836e-02
3.835999999999999943e+01,1.588663614420476530e-02
3.839999999999999858e+01,1.835600555677978363e-02
3.843999999999999773e+01,6.059570560759152888e-03
3.847999999999999687e+01,0.000000000000000000e+00
3.852000000000000313e+01,7.687338452403128138e-03
3.856000000000000227e+01,6.846025984229347702e-03
3.860000000000000142e+01,1.376904183706807901e-02
3.864000000000000057e+01,5.798959352672055853e-03
3.867999999999999972e+01,1.323053767126462256e-02
3.871999999999999886e+01,1.849790646137460318e-02
3.875999999999999801e+01,6.453684646749312422e-03
3.879999999999999716e+01,1.350249895974347386e-02
3.884000000000000341e+01,1.291367768068893938e-02
3.888000000000000256e+01,9.778776132267770829e-03
3.892000000000000171e+01,1.109868325970314075e-02
3.896000000000000085e+01,2.043748748764424167e-02
3.900000000000000000e+01,1.501047324967445459e-02
3.903999999999999915e+01,1.454742030795689277e-02
3.907999999999999829e+01,1.866646093388942343e-02
3.911999999999999744e+01,2.584012722534531972e-02
3.915999999999999659e+01,2.372139408579874639e-02
3.920000000000000284e+01,3.216733018558225882e-02
3.924000000000000199e+01,4.074024405071104138e-02
3.928000000000000114e+01,6.471480365741925922e-02
3.932000000000000028e+01,6.552246882628455504e-02
3.935999999999999943e+01,6.887559800343186212e-02
3.939999999999999858e+01,6.700956678643385511e-02
3.943999999999999773e+01,6.616153067149720124e-02
3.947999999999999687e+01,5.971246542971910681e-02
3.952000000000000313e+01,7.031979571115894168e-02
3.956000000000000227e+01,7.812645083729630180e-02
3.960000000000000142e+01,6.314807122144125429e-02
3.964000000000000057e+01,4.511443662575703728e-02
3.967999999999999972e+01,4.324617117972913427e-02
3.971999999999999886e+01,2.686664701043806405e-02
3.975999999999999801e+01,2.181551147217827141e-02
3.979999999999999716e+01,1.472742820306862342e-02
3.984000000000000341e+01,1.642195339341432150e-02
3.988000000000000256e+01,2.028006281431254942e-02
3.992000000000000171e+01,2.744735563519398042e-02
3.996000000000000085e+01,4.505200970945106437e-02
4.000000000000000000e+01,7.207571276763473367e-02
4.003999999999999915e+01,9.820806224392948647e-02
4.007999999999999829e+01,9.811856440853070072e-02
4.011999999999999744e+01,8.759104287035010539e-02
4.015999999999999659e+01,7.260807530925553199e-02
4.020000000000000284e+01,5.164219382312028317e-02
4.024000000000000199e+01,3.258530971435323609e-02
4.028000000000000114e+01,2.511137899973490961e-02
4.032000000000000028e+01,1.903728802161927178e-02
4.035999999999999943e+01,1.678152503113103031e-02
4.039999999999999858e+01,1.605288867712697382e-02
4.043999999999999773e+01,2.856195750709805692e-02
4.047999999999999687e+01,1.510374680077491288e-02
4.052000000000000313e+01,3.028519715873648557e-02
4.056000000000000227e+01,3.770167984044021231e-02
4.060000000000000142e+01,6.421115346553575576e-02
4.064000000000000057e+01,1.066313943256940594e-01
4.067999999999999972e+01,1.221933282719026015e-01
4.071999999999999886e+01,1.150974882696576135e-01
4.075999999999999801e+01,1.083831656935267534e-01
4.079999999999999716e+01,8.066582296695666565e-02
4.084000000000000341e+01,5.332999565831275657e-02
4.088000000000000256e+01,4.661461916243583165e-02
4.092000000000000171e+01,3.977160044361956193e-02
4.096000000000000085e+01,3.865622827356242353e-02
4.100000000000000000e+01,3.855881204590275863e-02
4.103999999999999915e+01,3.744272822583606664e-02
4.107999999999999829e+01,2.385197407402242856e-02
4.111999999999999744e+01,1.166103957683253291e-02
4.115999999999999659e+01,1.665374834317814856e-02
4.120000000000000284e+01,2.253711912328202130e-02
4.124000000000000199e+01,1.607310446343252278e-02
4.128000000000000114e+01,1.826437320748680246e-02
4.132000000000000028e+01,1.421812209553108795e-02
4.135999999999999943e+01,1.895444128746065146e-02
4.139999999999999858e+01,1.745323861519233397e-02
4.143999999999999773e+01,1.824286992198197871e-02
4.147999999999999687e+01,1.559533333611259030e-02
4.152000000000000313e+01,1.702067343548494330e-02
4.156000000000000227e+01,1.348137673597756166e-02
4.160000000000000142e+01,1.630615506057319503e-02
4.164000000000000057e+01,2.307651814995929224e-02
4.167999999999999972e+01,2.335477453015101512e-02
4.171999999999999886e+01,2.681488021792888601e-02
4.175999999999999801e+01,3.014732259679456586e-02
4.179999999999999716e+01,2.584205508065941584e-02
4.184000000000000341e+01,2.026352207389956611e-02
4.188000000000000256e+01,2.066719033807687400e-02
4.192000000000000171e+01,2.756221450177503279e-02
4.196000000000000085e+01,2.172796842732055422e-02
4.200000000000000000e+01,3.409565579578385797e-02
4.203999999999999915e+01,3.297033746889028311e-02
4.207999999999999829e+01,3.057174762680826136e-02
4.211999999999999744e+01,3.606468665364076509e-02
4.215999999999999659e+01,3.722941836103133700e-02
4.220000000000000284e+01,3.215660812234504007e-02
4.224000000000000199e+01,2.186456619884313141e-02
4.228000000000000114e+01,2.595578344451937233e-02
4.232000000000000028e+01,2.635523389522489990e-02
4.235999999999999943e+01,1.733491567924277249e-02
4.239999999999999858e+01,2.257056471198754660e-02
4.243999999999999773e+01,1.774999852900970357e-02
4.247999999999999687e+01,2.463961942318288259e-02
4.252000000000000313e+01,1.676333349117774610e-02
4.256000000000000227e+01,2.212469952616852656e-02
4.260000000000000142e+01,2.150309139048171142e-02
4.264000000000000057e+01,1.999006440679947788e-02
4.267999999999999972e+01,1.924037337723002311e-02
4.271999999999999886e+01,2.307268454276145339e-02
4.275999999999999801e+01,1.493943883727768922e-02
4.279999999999999716e+01,1.826179435985453986e-02
4.284000000000000341e+01,2.043814819762742110e-02
4.288000000000000256e+01,1.103080887661143927e-02
4.292000000000000171e+01,1.740689064913386944e-02
4.296000000000000085e+01,1.881830047948844509e-02
4.300000000000000000e+01,1.424672609822595810e-02
4.303999999999999915e+01,1.731207967537840009e-02
4.307999999999999829e+01,1.083035760398269598e-02
4.311999999999999744e+01,1.287658383999982364e-02
4.315999999999999659e+01,1.810462323622094929e-02
4.320000000000000284e+01,2.384140771699480577e-02
4.324000000000000199e+01,2.041297925735287289e-02
4.328000000000000114e+01,1.392920444533253532e-02
4.332000000000000028e+01,1.966475125716786107e-02
4.335999999999999943e+01,4.142635840212616043e-03
4.339999999999999858e+01,1.331415303952640343e-02
4.343999999999999773e+01,9.501785032872684181e-03
4.347999999999999687e+01,8.998511061840854322e-03
4.352000000000000313e+01,1.396824156121668180e-02
4.356000000000000227e+01,9.518173271086482687e-03
4.360000000000000142e+01,2.012750595826226247e-03
4.364000000000000057e+01,1.003615312407447717e-02
4.367999999999999972e+01,1.296757672829442626e-02
4.371999999999999886e+01,4.697152812260876192e-03
4.375999999999999801e+01,3.936349872781763105e-03
4.379999999999999716e+01,1.004872236491612461e-02
4.384000000000000341e+01,2.413466161127137202e-03
4.388000000000000256e+01,1.921725270814105338e-02
4.392000000000000171e+01,3.334754356178156603e-02
4.396000000000000085e+01,2.800220183959383977e-02
4.400000000000000000e+01,1.807402879330377229e-02
4.403999999999999915e+01,3.105742758340804613e-02
4.407999999999999829e+01,3.092963619387224458e-02
4.411999999999999744e+01,1.412656419185922239e-02
4.415999999999999659e+01,1.310688215647223993e-02
4.420000000000000284e+01,1.094116429708702661e-02
4.424000000000000199e+01,2.074016715105790956e-02
4.428000000000000114e+01,1.513677445786978069e-02
4.432000000000000028e+01,2.149810046984989079e-02
4.435999999999999943e+01,1.347534019183824726e-02
4.439999999999999858e+01,1.398049609023314585e-02
4.443999999999999773e+01,1.117569870118632208e-02
4.447999999999999687e+01,1.957188255191549819e-02
4.452000000000000313e+01,1.765722115769803244e-02
4.456000000000000227e+01,1.752415979053298725e-02
4.460000000000000142e+01,2.057287543618990105e-02
4.464000000000000057e+01,2.260283312098456190e-02
4.467999999999999972e+01,1.941349787123280643e-02
4.471999999999999886e+01,2.946176036740374635e-02
4.475999999999999801e+01,4.460112948256186871e-02
4.479999999999999716e+01,6.801382691684820792e-02
4.484000000000000341e+01,6.545913536859999937e-02
4.488000000000000256e+01,5.284816735489840378e-02
4.492000000000000171e+01,7.053150576134951943e-02
4.496000000000000085e+01,9.928852445027987195e-02
4.500000000000000000e+01,6.389147768947968375e-02
4.503999999999999915e+01,4.427779880523867451e-02
4.507999999999999829e+01,3.968375334444648739e-02
4.511999999999999744e+01,2.668818119983943499e-02
4.515999999999999659e+01,1.738352764341661791e-02
4.520000000000000284e+01,1.431556983447213396e-02
4.524000000000000199e+01,7.301194115360004969e-03
4.528000000000000114e+01,2.039800312600296983e-02
4.532000000000000028e+01,1.872883502389128749e-02
4.535999999999999943e+01,2.431466991823737211e-02
4.539999999999999858e+01,2.111710437560271325e-02
4.543999999999999773e+01,2.428351746405214492e-02
4.547999999999999687e+01,2.350350661777017569e-02
4.552000000000000313e+01,2.412320497577773518e-02
4.556000000000000227e+01,2.270581101340703525e-02
4.560000000000000142e+01,1.606910102232915472e-02
4.564000000000000057e+01,1.261414193763053630e-02
4.567999999999999972e+01,1.094075476535382764e-02
4.571999999999999886e+01,6.848404531814924340e-03
4.575999999999999801e+01,7.719846906745034786e-03
4.579999999999999716e+01,6.554190936733224511e-03
4.584000000000000341e+01,1.722592660815021326e-02
4.588000000000000256e+01,1.173149311963388522e-02
4.592000000000000171e+01,1.209187058039662942e-02
4.596000000000000085e+01,8.633100965470052318e-03
4.600000000000000000e+01,1.472051862854722656e-02
4.603999999999999915e+01,9.478741625752540659e-03
4.607999999999999829e+01,9.837193739522378383e-03
4.611999999999999744e+01,4.212583322347245897e-03
4.615999999999999659e+01,1.042535651384930533e-02
4.620000000000000284e+01,6.836397921136555186e-03
4.624000000000000199e+01,9.229531153120654197e-03
4.628000000000000114e+01,1.773204411387709067e-02
4.632000000000000028e+01,1.337788848207124674e-02
4.635999999999999943e+01,1.347835476464760013e-02
4.639999999999999858e+01,3.013350793523003526e-03
4.643999999999999773e+01,7.313368290314167450e-03
4.647999999999999687e+01,1.275849307680131453e-02
4.652000000000000313e+01,1.883956851621289980e-02
4.656000000000000227e+01,2.466557124726912603e-02
4.660000000000000142e+01,2.590867738811648141e-02
4.664000000000000057e+01,2.511466409804898048e-02
4.667999999999999972e+01,3.246664302652477879e-02
4.671999999999999886e+01,3.650861143420382204e-02
4.675999999999999801e+01,3.965905757221079714e-02
4.679999999999999716e+01,4.433646969167034241e-02
4.684000000000000341e+01,3.959400068592011657e-02
4.688000000000000256e+01,2.823200553059294210e-02
4.692000000000000171e+01,3.418079795744217303e-02
4.696000000000000085e+01,2.854579480791995250e-02
4.700000000000000000e+01,2.660166405826043176e-02
4.703999999999999915e+01,1.803800314264814367e-02
4.707999999999999829e+01,1.749303549647025779e-02
4.711999999999999744e+01,1.274702493137035673e-02
4.715999999999999659e+01,1.882006160724376126e-02
4.720000000000000284e+01,1.483676358021485293e-02
4.724000000000000199e+01,1.721739900004231813e-02
4.728000000000000114e+01,3.067165646490005448e-02
4.732000000000000028e+01,2.452290810186858599e-02
4.735999999999999943e+01,2.766573506130784801e-02
4.739999999999999858e+01,2.686208988950626250e-02
4.743999999999999773e+01,3.178592860324438302e-02
4.747999999999999687e+01,4.498302836181616859e-02
4.752000000000000313e+01,3.908627290470662041e-02
4.756000000000000227e+01,4.922739988257630872e-02
4.760000000000000142e+01,4.714827067772436875e-02
4.764000000000000057e+01,5.499715430753260303e-02
4.767999999999999972e+01,5.508089153236031543e-02
4.771999999999999886e+01,6.381975050196628252e-02
4.775999999999999801e+01,6.390243870121800618e-02
4.779999999999999716e+01,5.825660001391783083e-02
4.784000000000000341e+01,6.610285856955125383e-02
4.788000000000000256e+01,7.254841110820449412e-02
4.792000000000000171e+01,6.715556615589271527e-02
4.796000000000000085e+01,6.889037002576266222e-02
4.800000000000000000e+01,5.471352933505889415e-02
4.803999999999999915e+01,6.128424863247485671e-02
4.807999999999999829e+01,5.830776676959922855e-02
4.811999999999999744e+01,4.832986090572605892e-02
4.815999999999999659e+01,4.586146556807312036e-02
4.820000000000000284e+01,4.033760037448619329e-02
4.824000000000000199e+01,3.048537523917728073e-02
4.828000000000000114e+01,2.865181325048438143e-02
4.832000000000000028e+01,3.547335794516046775e-02
4.835999999999999943e+01,2.969276065482174404e-02
4.839999999999999858e+01,2.747571171288811301e-02
4.843999999999999773e+01,2.003927545157698983e-02
4.847999999999999687e+01,2.494932019417170008e-02
4.852000000000000313e+01,2.387624216018465265e-02
4.856000000000000227e+01,2.165701885595909537e-02
4.860000000000000142e+01,2.109200525712785421e-02
4.864000000000000057e+01,2.052644455339483476e-02
4.867999999999999972e+01,1.996033574066603811e-02
4.871999999999999886e+01,1.862994436583116989e-02
4.875999999999999801e+01,1.768086959832084956e-02
4.879999999999999716e+01,2.004075532193733827e-02
4.884000000000000341e+01,7.889153388870620912e-03
4.888000000000000256e+01,2.297682467459017178e-02
4.892000000000000171e+01,2.037078359120356175e-02
4.896000000000000085e+01,2.680169985019103737e-02
4.900000000000000000e+01,2.737677019163874820e-02
4.903999999999999915e+01,2.896959465260040209e-02
4.907999999999999829e+01,3.845377327012964447e-02
4.911999999999999744e+01,3.699054663106127183e-02
4.915999999999999659e+01,2.674382517018110417e-02
4.920000000000000284e+01,4.322721326265804853e-02
4.924000000000000199e+01,2.865154559549016808e-02
4.928000000000000114e+01,2.591318321767162661e-02
4.932000000000000028e+01,1.426403309349608996e-02
4.935999999999999943e+01,1.063351900539996446e-02
4.939999999999999858e+01,1.654910684732206066e-02
4.943999999999999773e+01,2.551906129852905131e-02
4.947999999999999687e+01,2.557822398700325406e-02
4.952000000000000313e+01,2.360019494979841495e-02
4.956000000000000227e+01,1.334781668251990537e-02
4.960000000000000142e+01,2.015158090678457678e-02
4.964000000000000057e+01,1.740810481109370672e-02
4.967999999999999972e+01,1.848272274914038865e-02
4.971999999999999886e+01,1.828387739005470081e-02
4.975999999999999801e+01,1.910276807679186714e-02
4.979999999999999716e+01,2.450348323400118600e-02
4.984000000000000341e+01,2.252086448966501842e-02
4.988000000000000256e+01,2.346531240141090310e-02
4.992000000000000171e+01,2.733682596514486543e-02
4.996000000000000085e+01,1.924260192095309657e-02
5.000000000000000000e+01,2.667704342933218883e-02
5.003999999999999915e+01,2.138201187258123928e-02
5.007999999999999829e+01,2.245084247201640376e-02
5.011999999999999744e+01,3.001082313171315324e-02
5.015999999999999659e+01,3.209679547965384877e-02
5.020000000000000284e+01,3.494591501204518530e-02
5.024000000000000199e+01,3.473951347971122872e-02
5.028000000000000114e+01,4.038781345041599080e-02
5.032000000000000028e+01,4.629010196061203453e-02
5.035999999999999943e+01,5.779251214932009523e-02
5.039999999999999858e+01,5.414695098083399660e-02
5.043999999999999773e+01,6.717564449340993060e-02
5.047999999999999687e+01,7.854898890656028532e-02
5.052000000000000313e+01,9.259480609395071005e-02
5.056000000000000227e+01,1.126226066638916501e-01
5.060000000000000142e+01,1.354501669080542259e-01
5.064000000000000057e+01,1.456755279338469156e-01
5.067999999999999972e+01,1.634103362279410998e-01
5.071999999999999886e+01,1.640878315095485596e-01
5.075999999999999801e+01,1.930228640828819398e-01
5.079999999999999716e+01,1.728237767768516231e-01
5.084000000000000341e+01,1.522422204162441894e-01
5.088000000000000256e+01,1.490986411406818313e-01
5.092000000000000171e+01,1.277521436586382675e-01
5.096000000000000085e+01,1.015680623238068292e-01
5.100000000000000000e+01,8.352986476537226090e-02
5.103999999999999915e+01,6.536377094822962142e-02
5.107999999999999829e+01,6.374462683847650912e-02
5.111999999999999744e+01,5.385109433898575132e-02
5.115999999999999659e+01,5.032139688514457310e-02
5.120000000000000284e+01,4.679108806438891238e-02
5.124000000000000199e+01,3.931421071937343803e-02
5.128000000000000114e+01,3.209129781559444394e-02
5.132000000000000028e+01,3.543274991067937862e-02
5.135999999999999943e+01,3.877358662247411963e-02
5.139999999999999858e+01,2.798473814008116053e-02
5.143999999999999773e+01,3.285180797104635814e-02
5.147999999999999687e+01,2.906261365092023194e-02
5.152000000000000313e+01,3.494675695200252091e-02
5.156000000000000227e+01,3.357481208366899783e-02
5.160000000000000142e+01,4.022144702215380008e-02
5.164000000000000057e+01,4.292150339543927828e-02
5.167999999999999972e+01,5.249453739383058704e-02
5.171999999999999886e+01,5.939387990052875932e-02
5.175999999999999801e+01,6.743819715652174529e-02
5.179999999999999716e+01,7.369984326981951495e-02
5.184000000000000341e+01,7.856068396083625005e-02
5.188000000000000256e+01,8.049325132744518385e-02
5.192000000000000171e+01,7.771549965118082492e-02
5.196000000000000085e+01,7.811934023445199493e-02
5.200000000000000000e+01,6.732112545002251480e-02
5.203999999999999915e+01,5.932263419243252733e-02
5.207999999999999829e+01,5.081435384518359633e-02
5.211999999999999744e+01,3.975966087347142242e-02
5.215999999999999659e+01,3.786913382478690471e-02
5.220000000000000284e+01,3.343219214345124340e-02
5.224000000000000199e+01,2.504865683550707225e-02
5.228000000000000114e+01,3.346661892847278830e-02
5.232000000000000028e+01,3.004607308013920383e-02
5.235999999999999943e+01,2.280621950108468327e-02
5.239999999999999858e+01,1.989354731005693253e-02
5.243999999999999773e+01,2.156263331930075369e-02
5.247999999999999687e+01,1.966698640188058525e-02
5.252000000000000313e+01,2.044376205400313257e-02
5.256000000000000227e+01,2.860264887384222215e-02
5.260000000000000142e+01,2.352284273386104699e-02
5.264000000000000057e+01,1.284167712012966936e-02
5.267999999999999972e+01,1.590706507030304265e-02
5.271999999999999886e+01,2.737287143717241980e-02
5.275999999999999801e+01,2.674558100137030756e-02
5.279999999999999716e+01,2.751781702475930569e-02
5.284000000000000341e+01,1.925188803335450144e-02
5.288000000000000256e+01,1.785890654423708673e-02
5.292000000000000171e+01,2.002935994090872251e-02
5.296000000000000085e+01,1.914422399446656653e-02
5.300000000000000000e+01,2.144065420111734149e-02
5.303999999999999915e+01,2.055420414829709289e-02
5.307999999999999829e+01,1.457553920937079174e-02
5.311999999999999744e+01,1.763372718704801431e-02
5.315999999999999659e+01,1.763632080114175410e-02
5.320000000000000284e+01,2.158420899687506916e-02
5.324000000000000199e+01,2.502227898422499860e-02
5.328000000000000114e+01,2.362270688133800284e-02
5.332000000000000028e+01,2.222247019455732275e-02
5.335999999999999943e+01,1.560272268484358231e-02
5.339999999999999858e+01,1.878355451209213697e-02
5.343999999999999773e+01,1.139873936510492347e-02
5.347999999999999687e+01,1.483281281224727889e-02
5.352000000000000313e+01,1.813892774685684633e-02
5.356000000000000227e+01,2.068063862399266428e-02
5.360000000000000142e+01,1.698452138827651059e-02
5.364000000000000057e+01,1.863386567902995672e-02
5.367999999999999972e+01,1.264520185888013196e-02
5.371999999999999886e+01,1.811186514914326154e-02
5.375999999999999801e+01,1.632238504482343491e-02
5.379999999999999716e+01,1.313205031761915074e-02
5.384000000000000341e+01,1.503259428007593101e-02
5.388000000000000256e+01,1.260463672356411553e-02
5.392000000000000171e+01,1.794062292008286735e-02
5.396000000000000085e+01,1.347468253816094287e-02
5.400000000000000000e+01,1.982761769714729005e-02
5.403999999999999915e+01,1.866982461655424322e-02
5.407999999999999829e+01,1.903881477231533434e-02
5.411999999999999744e+01,2.042543152765903189e-02
5.415999999999999659e+01,1.442860593931090223e-02
5.420000000000000284e+01,2.205100685112813125e-02
5.424000000000000199e+01,1.579822909442623463e-02
5.428000000000000114e+01,1.489089679869072189e-02
5.432000000000000028e+01,1.741967533728666986e-02
5.435999999999999943e+01,2.363914152245894656e-02
5.439999999999999858e+01,1.712902519626087125e-02
5.443999999999999773e+01,1.876470629438024146e-02
5.447999999999999687e+01,1.696289316930763361e-02
5.452000000000000313e+01,1.528767424569234257e-02
5.456000000000000227e+01,1.883060484621642758e-02
5.460000000000000142e+01,1.499008205801526626e-02
5.464000000000000057e+01,1.814975150013722199e-02
5.467999999999999972e+01,2.461823383157567963e-02
5.471999999999999886e+01,2.153934832312727476e-02
5.475999999999999801e+01,2.507878530821193441e-02
5.479999999999999716e+01,3.001769854779022875e-02
5.484000000000000341e+01,2.642755220055498580e-02
5.488000000000000256e+01,3.021945878358738707e-02
5.492000000000000171e+01,2.700977066965114942e-02
5.496000000000000085e+01,2.621786605918800112e-02
5.500000000000000000e+01,2.733458831542640022e-02
5.503999999999999915e+01,2.412277993397175802e-02
5.507999999999999829e+01,2.740199710512918746e-02
5.511999999999999744e+01,1.476939098699019993e-02
5.515999999999999659e+01,1.944736560767443972e-02
5.520000000000000284e+01,1.712373850273247664e-02
5.524000000000000199e+01,1.314464281118510151e-02
5.528000000000000114e+01,1.909336817235390144e-02
5.532000000000000028e+01,2.020440023449440736e-02
5.535999999999999943e+01,1.876893834056189356e-02
5.539999999999999858e+01,2.611569431353908538e-02
5.543999999999999773e+01,2.009639712785631083e-02
5.547999999999999687e+01,1.445824786171490475e-02
5.552000000000000313e+01,2.091182506260575238e-02
5.556000000000000227e+01,2.112752495004125222e-02
5.560000000000000142e+01,2.223352537741387150e-02
5.564000000000000057e+01,1.570146849327979863e-02
5.567999999999999972e+01,1.273277721245239663e-02
5.571999999999999886e+01,1.421847288802345101e-02
5.575999999999999801e+01,1.392139801559843550e-02
5.579999999999999716e+01,1.667853010152060833e-02
5.584000000000000341e+01,1.752560072308938233e-02
5.588000000000000256e+01,1.977212048861526003e-02
5.592000000000000171e+01,1.488973154665444373e-02
5.596000000000000085e+01,1.509816807737545535e-02
5.600000000000000000e+01,1.950640671949847166e-02
5.603999999999999915e+01,1.767675599903876724e-02
5.607999999999999829e+01,1.635552704488065986e-02
5.611999999999999744e+01,1.274236287320328065e-02
5.615999999999999659e+01,1.905699766417520008e-02
5.620000000000000284e+01,1.709711654547822410e-02
5.624000000000000199e+01,1.971889823812778345e-02
5.628000000000000114e+01,1.992145178871292110e-02
5.632000000000000028e+01,1.795935400947853283e-02
5.635999999999999943e+01,1.395989280450005664e-02
5.639999999999999858e+01,1.797889091506615911e-02
5.643999999999999773e+01,1.525083398943244233e-02
5.647999999999999687e+01,1.786816729959804159e-02
5.652000000000000313e+01,1.793897753496611833e-02
5.656000000000000227e+01,2.297330927343739157e-02
5.660000000000000142e+01,2.584298265343150033e-02
5.664000000000000057e+01,1.700132855814942209e-02
5.667999999999999972e+01,2.623395049513696856e-02
5.671999999999999886e+01,2.719204346923423388e-02
5.675999999999999801e+01,2.522174061946215462e-02
5.679999999999999716e+01,2.745121979921314598e-02
5.684000000000000341e+01,3.197114638185231256e-02
5.688000000000000256e+01,2.796196216888661989e-02
5.692000000000000171e+01,3.553531364698740008e-02
5.696000000000000085e+01,4.132586445427368499e-02
5.700000000000000000e+01,3.527778984126887091e-02
5.703999999999999915e+01,4.259429262142030992e-02
5.707999999999999829e+01,4.672781372861199711e-02
5.711999999999999744e+01,4.869666342410516185e-02
5.715999999999999659e+01,6.059328697989897067e-02
5.720000000000000284e+01,6.714301441157136119e-02
5.724000000000000199e+01,7.929269081759680871e-02
5.728000000000000114e+01,8.329511311158616094e-02
5.732000000000000028e+01,9.378850472892648338e-02
5.735999999999999943e+01,1.068269085122724588e-01
5.739999999999999858e+01,1.166823225899070865e-01
5.743999999999999773e+01,1.255186573966162455e-01
5.747999999999999687e+01,1.180612429479778597e-01
5.752000000000000313e+01,1.198951487819475692e-01
5.756000000000000227e+01,1.236376172206061497e-01
5.760000000000000142e+01,1.124865113814988021e-01
5.764000000000000057e+01,1.074445001084827073e-01
5.767999999999999972e+01,9.514624703967676511e-02
5.771999999999999886e+01,8.271993002847354004e-02
5.775999999999999801e+01,6.851079226457681970e-02
5.779999999999999716e+01,7.008470207127000251e-02
5.784000000000000341e+01,4.874583036096129945e-02
5.788000000000000256e+01,4.828156053983062579e-02
5.792000000000000171e+01,4.692548830681649713e-02
5.796000000000000085e+01,3.653112253498329992e-02
5.800000000000000000e+01,3.644637626198603264e-02
5.803999999999999915e+01,3.521524674848467568e-02
5.807999999999999829e+01,2.901906574530324981e-02
5.811999999999999744e+01,3.173232323881249733e-02
5.815999999999999659e+01,2.820763815275976680e-02
5.820000000000000284e+01,2.213638781996375704e-02
5.824000000000000199e+01,2.573830642059296223e-02
5.828000000000000114e+01,2.373872397022533734e-02
5.832000000000000028e+01,2.682990775099666769e-02
5.835999999999999943e+01,2.241025485004225284e-02
5.839999999999999858e+01,2.282678835570004644e-02
5.843999999999999773e+01,1.751452788581584624e-02
5.847999999999999687e+01,1.996609670225219652e-02
5.852000000000000313e+01,1.783446970848323598e-02
5.856000000000000227e+01,2.002986947227308745e-02
5.860000000000000142e+01,2.247904992810701233e-02
5.864000000000000057e+01,2.543658788822980577e-02
5.867999999999999972e+01,1.871936969499552253e-02
5.871999999999999886e+01,2.333006419226129127e-02
5.875999999999999801e+01,2.323026794658867092e-02
5.879999999999999716e+01,2.134762484177994343e-02
5.884000000000000341e+01,2.290097910868662059e-02
5.888000000000000256e+01,2.508997376348790637e-02
5.892000000000000171e+01,3.020580814913906981e-02
5.896000000000000085e+01,2.653790170996128336e-02
5.900000000000000000e+01,2.643327753429250762e-02
5.903999999999999915e+01,2.556411174027913014e-02
5.907999999999999829e+01,2.634889257904583434e-02
5.911999999999999744e+01,2.153215128084286223e-02
5.915999999999999659e+01,1.989682150526489099e-02
5.920000000000000284e+01,2.246121351357310489e-02
5.924000000000000199e+01,1.140487915795758249e-02
5.928000000000000114e+01,1.485866613976185267e-02
5.932000000000000028e+01,1.220177033144909107e-02
5.935999999999999943e+01,1.030779177007294309e-02
5.939999999999999858e+01,8.667573818861930984e-03
5.943999999999999773e+01,1.288182743317566568e-02
5.947999999999999687e+01,1.391303912889278391e-02
5.952000000000000313e+01,1.061560772839473428e-02
5.956000000000000227e+01,1.648215649354403331e-02
5.960000000000000142e+01,1.165561474582023707e-02
5.964000000000000057e+01,1.446558425752310535e-02
5.967999999999999972e+01,1.192859539127975356e-02
5.971999999999999886e+01,1.588251560275057150e-02
5.975999999999999801e+01,1.219827508103810999e-02
5.979999999999999716e+01,1.564138616969891829e-02
5.984000000000000341e+01,1.501042394573175696e-02
5.988000000000000256e+01,1.272387666026130598e-02
5.992000000000000171e+01,1.540076653400248088e-02
5.996000000000000085e+01,1.387629117466443636e-02
