2.003999999999999915e+01,4.798741056973172131e-02
2.007999999999999829e+01,5.981941316794128077e-02
2.012000000000000099e+01,4.908167227579434549e-02
2.016000000000000014e+01,5.231562768469787128e-02
2.019999999999999929e+01,4.292125800558940080e-02
2.023999999999999844e+01,5.932081251184652404e-02
2.028000000000000114e+01,5.933041982092862598e-02
2.032000000000000028e+01,3.865108525857684912e-02
2.035999999999999943e+01,5.102022102279366034e-02
2.039999999999999858e+01,7.386811175731207435e-02
2.044000000000000128e+01,3.706743091887291369e-02
2.048000000000000043e+01,5.964654843677265339e-02
2.051999999999999957e+01,7.523975673169527867e-02
2.055999999999999872e+01,6.235208872278581033e-02
2.060000000000000142e+01,5.510680058177309937e-02
2.064000000000000057e+01,5.377257780490041217e-02
2.067999999999999972e+01,6.802215329826849510e-02
2.071999999999999886e+01,8.522723325317281551e-02
2.076000000000000156e+01,7.663829972972627247e-02
2.080000000000000071e+01,5.810788821764961004e-02
2.083999999999999986e+01,5.623601696078590201e-02
2.087999999999999901e+01,1.674789647820689245e-02
2.092000000000000171e+01,5.867189669920908068e-02
2.096000000000000085e+01,6.539782816895352291e-02
2.100000000000000000e+01,5.412166172142646864e-02
2.103999999999999915e+01,4.499492594799761602e-02
2.107999999999999829e+01,3.156912962358350561e-02
2.112000000000000099e+01,3.453317547726025144e-02
2.116000000000000014e+01,5.200625245444630285e-02
2.119999999999999929e+01,3.831155727751114209e-02
2.123999999999999844e+01,4.826125041986972786e-02
2.128000000000000114e+01,3.402903205306705148e-02
2.132000000000000028e+01,6.708566091940786069e-02
2.135999999999999943e+01,4.640479755753054020e-02
2.139999999999999858e+01,5.393599639500940707e-02
2.144000000000000128e+01,5.797418173457319357e-02
2.148000000000000043e+01,5.314561062655079327e-02
2.151999999999999957e+01,5.019776425245470880e-02
2.155999999999999872e+01,4.268215138720158480e-02
2.160000000000000142e+01,4.860080407133674646e-02
2.164000000000000057e+01,5.720623797812760675e-02
2.167999999999999972e+01,4.351055413162978336e-02
2.171999999999999886e+01,5.265317852654762681e-02
2.176000000000000156e+01,5.669065442955267126e-02
2.180000000000000071e+01,4.245731389423527957e-02
2.183999999999999986e+01,2.311882172178536532e-02
2.187999999999999901e+01,5.133784183479338237e-02
2.192000000000000171e+01,4.355269424734671546e-02
2.196000000000000085e+01,4.785836271153403459e-02
2.200000000000000000e+01,4.893968273012083703e-02
2.203999999999999915e+01,2.745118377307653387e-02
2.207999999999999829e+01,2.853229183510583647e-02
2.212000000000000099e+01,4.358501914030076668e-02
2.216000000000000014e+01,4.896490205698198622e-02
2.219999999999999929e+01,6.777902693390304434e-02
2.223999999999999844e+01,4.628997842784125794e-02
2.228000000000000114e+01,4.871396442206915589e-02
2.232000000000000028e+01,4.146509973734351789e-02
2.235999999999999943e+01,2.830500176499765874e-02
2.239999999999999858e+01,7.130038183747887393e-02
2.244000000000000128e+01,7.426126773278107773e-02
2.248000000000000043e+01,2.375330443564134530e-02
2.251999999999999957e+01,4.202910670159293316e-02
2.255999999999999872e+01,3.316738937748266169e-02
2.260000000000000142e+01,3.397827932357039976e-02
2.264000000000000057e+01,3.640116290165423818e-02
2.267999999999999972e+01,4.527240577847925496e-02
2.271999999999999886e+01,2.996168053218678171e-02
2.276000000000000156e+01,4.313165108536703984e-02
2.280000000000000071e+01,2.540247364888319204e-02
2.283999999999999986e+01,4.958834230930504045e-02
2.287999999999999901e+01,3.159020294301473353e-02
2.292000000000000171e+01,4.449093670543511486e-02
2.296000000000000085e+01,3.159757049595977862e-02
2.300000000000000000e+01,4.449801996176730445e-02
2.303999999999999915e+01,4.503871975311267428e-02
2.307999999999999829e+01,3.644391312362278007e-02
2.312000000000000099e+01,4.450755711058160952e-02
2.316000000000000014e+01,4.639124928886916022e-02
2.319999999999999929e+01,4.263236222358162547e-02
2.323999999999999844e+01,2.651371762078237604e-02
2.328000000000000114e+01,6.950607422277615965e-02
2.332000000000000028e+01,5.473055550587101886e-02
2.335999999999999943e+01,4.801549176645730083e-02
2.339999999999999858e+01,3.780733747124354754e-02
2.344000000000000128e+01,6.575258671984432479e-02
2.348000000000000043e+01,5.070774314602494171e-02
2.351999999999999957e+01,4.237991291499222657e-02
2.355999999999999872e+01,1.390038756882974388e-02
2.360000000000000142e+01,2.572375602686695698e-02
2.364000000000000057e+01,3.808433052624043275e-02
2.367999999999999972e+01,4.130937501563018699e-02
2.371999999999999886e+01,4.319081291916501003e-02
2.376000000000000156e+01,5.823774438230057415e-02
2.380000000000000071e+01,3.083194457984285777e-02
2.383999999999999986e+01,3.136942397868460602e-02
2.387999999999999901e+01,3.862390256682353418e-02
2.392000000000000171e+01,4.426607963720504552e-02
2.396000000000000085e+01,4.937070189263177006e-02
2.400000000000000000e+01,5.366908069164020439e-02
2.403999999999999915e+01,5.044403774029444787e-02
2.407999999999999829e+01,5.044305422010663537e-02
2.412000000000000099e+01,4.291864580434454068e-02
2.416000000000000014e+01,5.151527297946777162e-02
2.419999999999999929e+01,4.721473073673585624e-02
2.423999999999999844e+01,3.082307871009779335e-02
2.428000000000000114e+01,2.894033514339690999e-02
2.432000000000000028e+01,1.308566916559891595e-02
2.435999999999999943e+01,4.371366969603256158e-02
2.439999999999999858e+01,5.902630932588409651e-02
2.444000000000000128e+01,3.591649856117987150e-02
2.448000000000000043e+01,3.940650649175115455e-02
2.451999999999999957e+01,4.934480138100860724e-02
2.455999999999999872e+01,5.605864717763177352e-02
2.460000000000000142e+01,5.256217851883123598e-02
2.464000000000000057e+01,3.912408090085026796e-02
2.467999999999999972e+01,5.980903204298098491e-02
2.471999999999999886e+01,6.061092953314815152e-02
2.476000000000000156e+01,4.959038386433371054e-02
2.480000000000000071e+01,2.809082880819308362e-02
2.483999999999999986e+01,5.522341793978985391e-02
2.487999999999999901e+01,3.452949196826502615e-02
2.492000000000000171e+01,6.381114238352338097e-02
2.496000000000000085e+01,6.622386592097885549e-02
2.500000000000000000e+01,5.950100755232408389e-02
2.503999999999999915e+01,5.009105535742258697e-02
2.507999999999999829e+01,5.599604137681934990e-02
2.512000000000000099e+01,5.706443387392503425e-02
2.516000000000000014e+01,3.798106835150514421e-02
2.519999999999999929e+01,5.570760183379900449e-02
2.523999999999999844e+01,4.763994570543328422e-02
2.528000000000000114e+01,5.784277768569996703e-02
2.532000000000000028e+01,6.213426000521411752e-02
2.535999999999999943e+01,5.057296954380188087e-02
2.539999999999999858e+01,4.142962541086211287e-02
2.544000000000000128e+01,4.867595361414404909e-02
2.548000000000000043e+01,5.592204138100071581e-02
2.551999999999999957e+01,5.537596214208357487e-02
2.555999999999999872e+01,4.408215656739918054e-02
2.560000000000000142e+01,3.493760238928440842e-02
2.564000000000000057e+01,4.352614802860706872e-02
2.567999999999999972e+01,3.196291520447542417e-02
2.571999999999999886e+01,6.527017300672072198e-02
2.576000000000000156e+01,6.902160179043480281e-02
2.580000000000000071e+01,5.960711118304452133e-02
2.583999999999999986e+01,7.652369873334022299e-02
2.587999999999999901e+01,6.254101720300980771e-02
2.592000000000000171e+01,8.859245119665136448e-02
2.596000000000000085e+01,6.090621211193692625e-02
2.600000000000000000e+01,7.943388798959519215e-02
2.603999999999999915e+01,7.055522039127753997e-02
2.607999999999999829e+01,1.033227844396109457e-01
2.612000000000000099e+01,9.148802946015247017e-02
2.616000000000000014e+01,9.013180299517012384e-02
2.619999999999999929e+01,9.979147760975995429e-02
2.623999999999999844e+01,1.177801810427816648e-01
2.628000000000000114e+01,1.379181091380047020e-01
2.632000000000000028e+01,1.376355465391620736e-01
2.635999999999999943e+01,1.824921364737911167e-01
2.639999999999999858e+01,2.480373541036529073e-01
2.644000000000000128e+01,2.751600427084645029e-01
2.648000000000000043e+01,3.917552454896729985e-01
2.651999999999999957e+01,5.341441255564929325e-01
2.655999999999999872e+01,7.063569873691104561e-01
2.660000000000000142e+01,9.024827138401481097e-01
2.664000000000000057e+01,1.000000000000000000e+00
2.667999999999999972e+01,9.435593080923252440e-01
2.671999999999999886e+01,7.839424925577428427e-01
2.676000000000000156e+01,5.670950405975161424e-01
2.680000000000000071e+01,4.467059540229871839e-01
2.683999999999999986e+01,3.577529605991047190e-01
2.687999999999999901e+01,3.308663846025078903e-01
2.692000000000000171e+01,3.004865796604399009e-01
2.696000000000000085e+01,2.367892795576009568e-01
2.700000000000000000e+01,2.096331206231770994e-01
2.703999999999999915e+01,1.534584564844114485e-01
2.707999999999999829e+01,1.314067467491635000e-01
2.712000000000000099e+01,1.158032217529582214e-01
2.716000000000000014e+01,1.130963695756591197e-01
2.719999999999999929e+01,7.653463866422331729e-02
2.723999999999999844e+01,8.054434551833927758e-02
2.728000000000000114e+01,7.488100668987446307e-02
2.732000000000000028e+01,6.599311025869239455e-02
2.735999999999999943e+01,4.770085206856284482e-02
2.739999999999999858e+01,5.359011415350871388e-02
2.744000000000000128e+01,7.049522856711988583e-02
2.748000000000000043e+01,6.268081357932933639e-02
2.751999999999999957e+01,4.358122106018016972e-02
2.755999999999999872e+01,5.994799941749550526e-02
2.760000000000000142e+01,4.917706003590176927e-02
2.764000000000000057e+01,4.888459098221770160e-02
2.767999999999999972e+01,5.477159758218466679e-02
2.771999999999999886e+01,4.238755499756399758e-02
2.776000000000000156e+01,5.499107974108869562e-02
2.780000000000000071e+01,4.583062025971612607e-02
2.783999999999999986e+01,3.855063703990589674e-02
2.787999999999999901e+01,4.685416902055423299e-02
2.792000000000000171e+01,4.172301119292042004e-02
2.796000000000000085e+01,6.023597748611748959e-02
2.800000000000000000e+01,4.516272066183274481e-02
2.803999999999999915e+01,2.740225206555899073e-02
2.807999999999999829e+01,5.451218131167787084e-02
2.812000000000000099e+01,5.340962409954706086e-02
2.816000000000000014e+01,7.004006763042990025e-02
2.819999999999999929e+01,6.759338189884701864e-02
2.823999999999999844e+01,3.731528650276759451e-02
2.828000000000000114e+01,4.311395753085928151e-02
2.832000000000000028e+01,5.590229471356302632e-02
2.835999999999999943e+01,5.855529061968024057e-02
2.839999999999999858e+01,4.791062227422938913e-02
2.844000000000000128e+01,4.665343081032815448e-02
2.848000000000000043e+01,4.959343664995703727e-02
2.851999999999999957e+01,4.865473707166088208e-02
2.855999999999999872e+01,5.986123972515187269e-02
2.860000000000000142e+01,4.116223240309656306e-02
2.864000000000000057e+01,3.729663347439186177e-02
2.867999999999999972e+01,4.268329010304719451e-02
2.871999999999999886e+01,3.905709373177071453e-02
2.876000000000000156e+01,4.760331948605030228e-02
2.880000000000000071e+01,4.727545978266004673e-02
2.883999999999999986e+01,3.839508971103182400e-02
2.887999999999999901e+01,4.676379220075243398e-02
2.892000000000000171e+01,4.526902911504947918e-02
2.896000000000000085e+01,4.832719929872748843e-02
2.900000000000000000e+01,4.327956221645144763e-02
2.903999999999999915e+01,4.465739090161378877e-02
2.907999999999999829e+01,4.530283337831484541e-02
2.912000000000000099e+01,5.456814724238191749e-02
2.916000000000000014e+01,4.044791275330657937e-02
2.919999999999999929e+01,4.361448563317461141e-02
2.923999999999999844e+01,4.732415637685156301e-02
2.928000000000000114e+01,4.653640899751070037e-02
2.932000000000000028e+01,5.357912773138975154e-02
2.935999999999999943e+01,4.521426227340913373e-02
2.939999999999999858e+01,4.893815024583179213e-02
2.944000000000000128e+01,4.714029919000937985e-02
2.948000000000000043e+01,4.205924979609970693e-02
2.951999999999999957e+01,4.519099751004602289e-02
2.955999999999999872e+01,4.678784836415417897e-02
2.960000000000000142e+01,4.237355030870196271e-02
2.964000000000000057e+01,6.183087858921675062e-02
2.967999999999999972e+01,4.823307261071597962e-02
2.971999999999999886e+01,5.294438714619864594e-02
2.976000000000000156e+01,5.649857243320035444e-02
2.980000000000000071e+01,5.843901907086884728e-02
2.983999999999999986e+01,3.413253761208213943e-02
2.987999999999999901e+01,4.295469900186357770e-02
2.992000000000000171e+01,3.565522126433755268e-02
2.996000000000000085e+01,5.549272091223694803e-02
3.000000000000000000e+01,4.658028605151501300e-02
3.003999999999999915e+01,5.405734267687622302e-02
3.007999999999999829e+01,4.971174698613937959e-02
3.012000000000000099e+01,5.127684395099637443e-02
3.016000000000000014e+01,5.015464579553952085e-02
3.019999999999999929e+01,3.613504233074259914e-02
3.023999999999999844e+01,3.743017421356700791e-02
3.028000000000000114e+01,5.081579504516630513e-02
3.032000000000000028e+01,4.673632567909367236e-02
3.035999999999999943e+01,6.173320590675569763e-02
3.039999999999999858e+01,5.281650313905244393e-02
3.044000000000000128e+01,9.145697611828872142e-02
3.048000000000000043e+01,1.147818491602379670e-01
3.051999999999999957e+01,1.531527594726861674e-01
3.055999999999999872e+01,3.016849278570076787e-01
3.060000000000000142e+01,6.315804259866538706e-01
3.064000000000000057e+01,8.773764282621894228e-01
3.067999999999999972e+01,8.606647193925714978e-01
3.071999999999999886e+01,6.757544589726149908e-01
3.076000000000000156e+01,4.803649548464573038e-01
3.080000000000000071e+01,2.444032537299456465e-01
3.083999999999999986e+01,1.425159488049602130e-01
3.087999999999999901e+01,9.490297904953187702e-02
3.092000000000000171e+01,8.409968341560172811e-02
3.096000000000000085e+01,7.571411551736779988e-02
3.100000000000000000e+01,4.690787292971008993e-02
3.103999999999999915e+01,6.968908853263912351e-02
3.107999999999999829e+01,6.372032716647968442e-02
3.112000000000000099e+01,6.634908982919729414e-02
3.116000000000000014e+01,6.118546374814532590e-02
3.119999999999999929e+01,6.032036544910179127e-02
3.123999999999999844e+01,7.557602438899133079e-02
3.128000000000000114e+01,4.837865798523670324e-02
3.132000000000000028e+01,8.512834393104048991e-02
3.135999999999999943e+01,6.410983846335562009e-02
3.139999999999999858e+01,6.163026756384188537e-02
3.144000000000000128e+01,5.055223570573011416e-02
3.148000000000000043e+01,7.950810077881467763e-02
3.151999999999999957e+01,8.105740692836711780e-02
3.155999999999999872e+01,9.415977756547139199e-02
3.160000000000000142e+01,1.053808576748645615e-01
3.164000000000000057e+01,1.466944068774512222e-01
3.167999999999999972e+01,3.064984692532788380e-01
3.171999999999999886e+01,4.340595976031695336e-01
3.176000000000000156e+01,5.866081360202157757e-01
3.180000000000000071e+01,5.432833123345907067e-01
3.183999999999999986e+01,4.806125292101461333e-01
3.187999999999999901e+01,3.220199704511495509e-01
3.192000000000000171e+01,1.741744008196565163e-01
3.196000000000000085e+01,1.246678031891553934e-01
3.200000000000000000e+01,1.020294156721219675e-01
3.203999999999999915e+01,7.159860481390115106e-02
3.207999999999999829e+01,3.390130541698484212e-02
3.211999999999999744e+01,9.798356825346998811e-02
3.215999999999999659e+01,5.605983537913071524e-02
3.220000000000000284e+01,1.062755871865365964e-01
3.224000000000000199e+01,1.136694795399609270e-01
3.228000000000000114e+01,5.217148027167625712e-02
3.232000000000000028e+01,1.945600919425587716e-01
3.235999999999999943e+01,2.036268920193597398e-01
3.239999999999999858e+01,9.433285040627750750e-02
3.243999999999999773e+01,1.708575672149333369e-01
3.247999999999999687e+01,1.804274061652409999e-01
3.252000000000000313e+01,1.698124632502159836e-01
3.256000000000000227e+01,5.844053607391617999e-02
3.260000000000000142e+01,2.681795128179237375e-01
3.264000000000000057e+01,2.484289097691252390e-01
3.267999999999999972e+01,1.063532645982617486e-01
3.271999999999999886e+01,1.077898342492814160e-01
3.275999999999999801e+01,5.994774472049700653e-02
3.279999999999999716e+01,1.672361365463530536e-01
3.284000000000000341e+01,1.331555973515490543e-01
3.288000000000000256e+01,1.599113854361656206e-01
3.292000000000000171e+01,1.101104529773561103e-01
3.296000000000000085e+01,6.372082404017609392e-02
3.300000000000000000e+01,8.034268014037627970e-02
3.303999999999999915e+01,9.929265862829891875e-02
3.307999999999999829e+01,1.415606393447232103e-01
3.311999999999999744e+01,1.207830693327663074e-01
3.315999999999999659e+01,1.762847144146580947e-01
3.320000000000000284e+01,1.707282643561800761e-01
3.324000000000000199e+01,1.848373305681486889e-01
3.328000000000000114e+01,1.496881296686000673e-01
3.332000000000000028e+01,2.356772618584971890e-01
3.335999999999999943e+01,2.515595529146946174e-01
3.339999999999999858e+01,1.062343952825051951e-01
3.343999999999999773e+01,7.501086978392049187e-02
3.347999999999999687e+01,1.756242351122341283e-01
3.352000000000000313e+01,1.657200783309009662e-01
3.356000000000000227e+01,1.775861592096745489e-01
3.360000000000000142e+01,1.058829824451125862e-01
3.364000000000000057e+01,7.684765258253273279e-02
3.367999999999999972e+01,1.945969898350717320e-01
3.371999999999999886e+01,2.310469085876860895e-01
3.375999999999999801e+01,2.881851656753119939e-01
3.379999999999999716e+01,3.606380181482783942e-01
3.384000000000000341e+01,4.333589885782039852e-01
3.388000000000000256e+01,5.063480753924785027e-01
3.392000000000000171e+01,5.524678830643331429e-01
3.396000000000000085e+01,5.096516971161005882e-01
3.400000000000000000e+01,4.566248271491180621e-01
3.403999999999999915e+01,4.232115362334656905e-01
3.407999999999999829e+01,3.185955935241984172e-01
3.411999999999999744e+01,2.432659611997516347e-01
3.415999999999999659e+01,2.036711273399887945e-01
3.420000000000000284e+01,1.707928869361695356e-01
3.424000000000000199e+01,1.392574970386225852e-01
3.428000000000000114e+01,1.155134457272116166e-01
3.432000000000000028e+01,8.021526247190614856e-02
3.435999999999999943e+01,7.689025085429232464e-02
3.439999999999999858e+01,7.060909035086226915e-02
3.443999999999999773e+01,6.728289490377346860e-02
3.447999999999999687e+01,5.965711208138330807e-02
3.452000000000000313e+01,5.014992393075943383e-02
3.456000000000000227e+01,7.503408317445524334e-02
3.460000000000000142e+01,5.585296413476686928e-02
3.464000000000000057e+01,6.246520314088045700e-02
3.467999999999999972e+01,4.677581329548802930e-02
3.471999999999999886e+01,6.735857403594722181e-02
3.475999999999999801e+01,4.468211140914176566e-02
3.479999999999999716e+01,2.764747037371903873e-02
3.484000000000000341e+01,4.661628813746512834e-02
3.488000000000000256e+01,4.140265970468429146e-02
3.492000000000000171e+01,2.839649470280331336e-02
3.496000000000000085e+01,3.769074327075540992e-02
3.500000000000000000e+01,1.393586765219983689e-02
3.503999999999999915e+01,3.558849037962072415e-02
3.507999999999999829e+01,2.902835301466933499e-02
3.511999999999999744e+01,3.052820827989887603e-02
3.515999999999999659e+01,4.143148994696506382e-02
3.520000000000000284e+01,4.507959817436792832e-02
3.524000000000000199e+01,3.797959949440794791e-02
3.528000000000000114e+01,4.082039663616084807e-02
3.532000000000000028e+01,2.915146476138812462e-02
3.535999999999999943e+01,3.843949538608412014e-02
3.539999999999999858e+01,2.676930419656121246e-02
3.543999999999999773e+01,5.137123528591169830e-02
3.547999999999999687e+01,2.868360866822350363e-02
3.552000000000000313e+01,3.474486325630311151e-02
3.556000000000000227e+01,3.704386214632026525e-02
3.560000000000000142e+01,2.483312101154244722e-02
3.564000000000000057e+01,2.659346757778444093e-02
3.567999999999999972e+01,2.297943131501583788e-02
3.571999999999999886e+01,3.951628219166771622e-02
3.575999999999999801e+01,2.918378158584411172e-02
3.579999999999999716e+01,1.455164170859256541e-02
3.584000000000000341e+01,1.980169718407863433e-02
3.588000000000000256e+01,2.988747058392096992e-02
3.592000000000000171e+01,4.158471550927295840e-02
3.596000000000000085e+01,3.769745798092874467e-02
3.600000000000000000e+01,4.025803607222940006e-02
3.603999999999999915e+01,3.260784994167531536e-02
3.607999999999999829e+01,3.677923766260754457e-02
3.611999999999999744e+01,2.563480370825708607e-02
3.615999999999999659e+01,1.798264132572826093e-02
3.620000000000000284e+01,2.752578945391739862e-02
3.624000000000000199e+01,2.578341722178998513e-02
3.628000000000000114e+01,2.565250236168307302e-02
3.632000000000000028e+01,2.847647864525214637e-02
3.635999999999999943e+01,1.222300485393617263e-02
3.639999999999999858e+01,3.815273111362347397e-02
3.643999999999999773e+01,2.995852829743433920e-02
3.647999999999999687e+01,0.000000000000000000e+00
3.652000000000000313e+01,2.458427220297990448e-02
3.656000000000000227e+01,2.364259681555182582e-02
3.660000000000000142e+01,3.479116190453454549e-02
3.664000000000000057e+01,3.787843573333844749e-02
3.667999999999999972e+01,4.499533482774149828e-02
3.671999999999999886e+01,2.578021883473770315e-02
3.675999999999999801e+01,4.122505081136229599e-02
3.679999999999999716e+01,5.371363954557663994e-02
3.684000000000000341e+01,4.201970502537904356e-02
3.688000000000000256e+01,3.166851721920047047e-02
3.692000000000000171e+01,3.528836679052482078e-02
3.696000000000000085e+01,2.896610303881983969e-02
3.700000000000000000e+01,3.768962179481025188e-02
3.703999999999999915e+01,3.217203098090248153e-02
3.707999999999999829e+01,3.095273677534794363e-02
3.711999999999999744e+01,3.107617984815293222e-02
3.715999999999999659e+01,8.171209222681799500e-02
3.720000000000000284e+01,8.452100513851250330e-02
3.724000000000000199e+01,1.381110712797002649e-01
3.728000000000000114e+01,2.510802752810695204e-01
3.732000000000000028e+01,2.533497009860218863e-01
3.735999999999999943e+01,2.287497123041031255e-01
3.739999999999999858e+01,1.641146412889030182e-01
3.743999999999999773e+01,1.220485734105752479e-01
3.747999999999999687e+01,7.971310624399953471e-02
3.752000000000000313e+01,6.881331234122747831e-02
3.756000000000000227e+01,4.958350393939584683e-02
3.760000000000000142e+01,5.480350186596834317e-02
3.764000000000000057e+01,5.518641404335129785e-02
3.767999999999999972e+01,6.631608889241251414e-02
3.771999999999999886e+01,5.917432140441123561e-02
3.775999999999999801e+01,7.137729964616640332e-02
3.779999999999999716e+01,7.793712464173319088e-02
3.784000000000000341e+01,9.443764481197942928e-02
3.788000000000000256e+01,1.109374370367318813e-01
3.792000000000000171e+01,1.526930842155684032e-01
3.796000000000000085e+01,1.796702115167730096e-01
3.800000000000000000e+01,2.055718578792418150e-01
3.803999999999999915e+01,2.062161855335893634e-01
3.807999999999999829e+01,1.576900437792833343e-01
3.811999999999999744e+01,1.306581301520690630e-01
3.815999999999999659e+01,1.307628715252510121e-01
3.820000000000000284e+01,1.056102878998721045e-01
3.824000000000000199e+01,9.550343803128179265e-02
3.828000000000000114e+01,6.148269536317618050e-02
3.832000000000000028e+01,7.206326088047609879e-02
3.835999999999999943e+01,6.383498476124919996e-02
3.839999999999999858e+01,5.721808266571813684e-02
3.843999999999999773e+01,2.964283923761584436e-02
3.847999999999999687e+01,4.586283649792041728e-02
3.852000000000000313e+01,4.972247548373195242e-02
3.856000000000000227e+01,3.960963220932214868e-02
3.860000000000000142e+01,3.728795767917927190e-02
3.864000000000000057e+01,4.168270204528097544e-02
3.867999999999999972e+01,3.828476201695208553e-02
3.871999999999999886e+01,5.315678170032980820e-02
3.875999999999999801e+01,4.304014143746111298e-02
3.879999999999999716e+01,5.737326032469963061e-02
3.884000000000000341e+01,4.161266181226384864e-02
3.888000000000000256e+01,5.272000292439296687e-02
3.892000000000000171e+01,4.609322865886884835e-02
3.896000000000000085e+01,6.579701673498365710e-02
3.900000000000000000e+01,5.513839405213154937e-02
3.903999999999999915e+01,6.892952108372724096e-02
3.907999999999999829e+01,5.800066265705042245e-02
3.911999999999999744e+01,7.205892493730774173e-02
3.915999999999999659e+01,7.886185808952178578e-02
3.920000000000000284e+01,9.694886829194403199e-02
3.924000000000000199e+01,1.091239815653684969e-01
3.928000000000000114e+01,1.320457946060751842e-01
3.932000000000000028e+01,1.428759049889439525e-01
3.935999999999999943e+01,1.741254464725853213e-01
3.939999999999999858e+01,2.655601036746426669e-01
3.943999999999999773e+01,4.405556500127223996e-01
3.947999999999999687e+01,6.260292011861817718e-01
3.952000000000000313e+01,6.067624134711082640e-01
3.956000000000000227e+01,5.393998464362271816e-01
3.960000000000000142e+01,4.446304028106142225e-01
3.964000000000000057e+01,3.203045844708351519e-01
3.967999999999999972e+01,1.854991717328474121e-01
3.971999999999999886e+01,1.396283784996740218e-01
3.975999999999999801e+01,1.122961911592028905e-01
3.979999999999999716e+01,1.314460632995424760e-01
3.984000000000000341e+01,1.457587631971480890e-01
3.988000000000000256e+01,1.823716832335691707e-01
3.992000000000000171e+01,3.229656907675265698e-01
3.996000000000000085e+01,5.847367566330063937e-01
4.000000000000000000e+01,8.540302491325533207e-01
4.003999999999999915e+01,8.258863435453326352e-01
4.007999999999999829e+01,7.018203399385303243e-01
4.011999999999999744e+01,5.702302823921941988e-01
4.015999999999999659e+01,3.875888641795182665e-01
4.020000000000000284e+01,2.124698647378601701e-01
4.024000000000000199e+01,1.429440626259775027e-01
4.028000000000000114e+01,8.738916579236634397e-02
4.032000000000000028e+01,7.616681144481281251e-02
4.035999999999999943e+01,6.897393768274766301e-02
4.039999999999999858e+01,8.381257654671608881e-02
4.043999999999999773e+01,6.184025838528782459e-02
4.047999999999999687e+01,6.727319108173460127e-02
4.052000000000000313e+01,7.351135324699335782e-02
4.056000000000000227e+01,1.106476950199973275e-01
4.060000000000000142e+01,1.305872295034382902e-01
4.064000000000000057e+01,1.545562335640983942e-01
4.067999999999999972e+01,1.492375090915880609e-01
4.071999999999999886e+01,1.726674613855587181e-01
4.075999999999999801e+01,1.353732949453308188e-01
4.079999999999999716e+01,1.528904478051111016e-01
4.084000000000000341e+01,1.908269735790978083e-01
4.088000000000000256e+01,2.618111629307748878e-01
4.092000000000000171e+01,2.696530436381363582e-01
4.096000000000000085e+01,2.189202942990742529e-01
4.100000000000000000e+01,1.886069115837789023e-01
4.103999999999999915e+01,1.604421732376322129e-01
4.107999999999999829e+01,9.949675873712628127e-02
4.111999999999999744e+01,7.670405268685956401e-02
4.115999999999999659e+01,7.325595869450771125e-02
4.120000000000000284e+01,6.335851657756706723e-02
4.124000000000000199e+01,6.770062906511334355e-02
4.128000000000000114e+01,5.162166270249161915e-02
4.132000000000000028e+01,4.924487366143102257e-02
4.135999999999999943e+01,4.525509744469699558e-02
4.139999999999999858e+01,2.890484972555724258e-02
4.143999999999999773e+01,3.700425736427133405e-02
4.147999999999999687e+01,5.101391103736807597e-02
4.152000000000000313e+01,3.949742211642929407e-02
4.156000000000000227e+01,2.798006056988600748e-02
4.160000000000000142e+01,2.586587223498549790e-02
4.164000000000000057e+01,2.885586243746884536e-02
4.167999999999999972e+01,3.990558736210989693e-02
4.171999999999999886e+01,4.773018854447000359e-02
4.175999999999999801e+01,4.373167820864146821e-02
4.179999999999999716e+01,3.435854443448781853e-02
4.184000000000000341e+01,2.632796237072558901e-02
4.188000000000000256e+01,3.952277353987157515e-02
4.192000000000000171e+01,3.928234448727080386e-02
4.196000000000000085e+01,7.020872706992184464e-02
4.200000000000000000e+01,5.948772405603483526e-02
4.203999999999999915e+01,6.999210798461640015e-02
4.207999999999999829e+01,5.040264713212189163e-02
4.211999999999999744e+01,5.875574679820268903e-02
4.215999999999999659e+01,4.722510715440392248e-02
4.220000000000000284e+01,4.294812058227491514e-02
4.224000000000000199e+01,6.070257429612419681e-02
4.228000000000000114e+01,3.304801244122337195e-02
4.232000000000000028e+01,3.736630927464426599e-02
4.235999999999999943e+01,3.147359341384631942e-02
4.239999999999999858e+01,3.256583569281566032e-02
4.243999999999999773e+01,3.876222505697077270e-02
4.247999999999999687e+01,3.662840649104886354e-02
4.252000000000000313e+01,3.906135772738693335e-02
4.256000000000000227e+01,5.439037632782001835e-02
4.260000000000000142e+01,4.983563831966453944e-02
4.264000000000000057e+01,4.124967919264144883e-02
4.267999999999999972e+01,4.233553788564684700e-02
4.271999999999999886e+01,2.944875076700145811e-02
4.275999999999999801e+01,5.955097486094448195e-02
4.279999999999999716e+01,4.075123104711889793e-02
4.284000000000000341e+01,3.081723755632300929e-02
4.288000000000000256e+01,4.801971349795523814e-02
4.292000000000000171e+01,3.996467887305861499e-02
4.296000000000000085e+01,4.104407692221506698e-02
4.300000000000000000e+01,4.292860693836993841e-02
4.303999999999999915e+01,1.767481218819460381e-02
4.307999999999999829e+01,4.535143761729192036e-02
4.311999999999999744e+01,4.911397996107615127e-02
4.315999999999999659e+01,3.997860746991285102e-02
4.320000000000000284e+01,4.454533838764546116e-02
4.324000000000000199e+01,3.567677718750460886e-02
4.328000000000000114e+01,1.229817402146831697e-02
4.332000000000000028e+01,2.304188677933076412e-02
4.335999999999999943e+01,2.706747942281674882e-02
4.339999999999999858e+01,3.243556244490815310e-02
4.343999999999999773e+01,1.872591704016243752e-02
4.347999999999999687e+01,1.737492869177784463e-02
4.352000000000000313e+01,2.838259582714459592e-02
4.356000000000000227e+01,1.332666602766480884e-02
4.360000000000000142e+01,2.728798683560643493e-02
4.364000000000000057e+01,3.560592479631442819e-02
4.367999999999999972e+01,4.768452574703625768e-02
4.371999999999999886e+01,3.531164588559031203e-02
4.375999999999999801e+01,3.099841897058722151e-02
4.379999999999999716e+01,4.307414256386208479e-02
4.384000000000000341e+01,3.553474786649469391e-02
4.388000000000000256e+01,3.578631432888741692e-02
4.392000000000000171e+01,3.039448693577733590e-02
4.396000000000000085e+01,2.419563135390961212e-02
4.400000000000000000e+01,2.632510635167843727e-02
4.403999999999999915e+01,3.006573363514739028e-02
4.407999999999999829e+01,2.735689956611467993e-02
4.411999999999999744e+01,3.190164308347661487e-02
4.415999999999999659e+01,2.220499710637835467e-02
4.420000000000000284e+01,3.803264625246308844e-02
4.424000000000000199e+01,2.242293035227185469e-02
4.428000000000000114e+01,1.944052712509686948e-02
4.432000000000000028e+01,3.123493154915282441e-02
4.435999999999999943e+01,3.953542136982144545e-02
4.439999999999999858e+01,3.735613122431336725e-02
4.443999999999999773e+01,3.275767160561044583e-02
4.447999999999999687e+01,5.180268661984984563e-02
4.452000000000000313e+01,3.457395834018885811e-02
4.456000000000000227e+01,3.050990586298098564e-02
4.460000000000000142e+01,4.793982675006115690e-02
4.464000000000000057e+01,2.667781600573372949e-02
4.467999999999999972e+01,4.867342805757272212e-02
4.471999999999999886e+01,5.293469670332300037e-02
4.475999999999999801e+01,6.847982380650546874e-02
4.479999999999999716e+01,7.354515521741220030e-02
4.484000000000000341e+01,8.559534883888222923e-02
4.488000000000000256e+01,5.814754018672618069e-02
4.492000000000000171e+01,6.267248800324838609e-02
4.496000000000000085e+01,7.283885796823895420e-02
4.500000000000000000e+01,5.452339076474913698e-02
4.503999999999999915e+01,4.587964859730387507e-02
4.507999999999999829e+01,4.529550748017480838e-02
4.511999999999999744e+01,4.659116325713161949e-02
4.515999999999999659e+01,5.728985228345023772e-02
4.520000000000000284e+01,5.455317213401039006e-02
4.524000000000000199e+01,6.766801174118600160e-02
4.528000000000000114e+01,8.158789367659567693e-02
4.532000000000000028e+01,1.008804965381316227e-01
4.535999999999999943e+01,1.231276351335062191e-01
4.539999999999999858e+01,1.257595941064525713e-01
4.543999999999999773e+01,1.197925417073361504e-01
4.547999999999999687e+01,1.011961703307513033e-01
4.552000000000000313e+01,9.710787235824717978e-02
4.556000000000000227e+01,6.292559278760577468e-02
4.560000000000000142e+01,6.286553950209892994e-02
4.564000000000000057e+01,5.393777991262679872e-02
4.567999999999999972e+01,5.306959778432241565e-02
4.571999999999999886e+01,4.064683551830235858e-02
4.575999999999999801e+01,3.279071567314047891e-02
4.579999999999999716e+01,3.353154270902275469e-02
4.584000000000000341e+01,3.561476419430662649e-02
4.588000000000000256e+01,3.984643976294140189e-02
4.592000000000000171e+01,3.467302388163552573e-02
4.596000000000000085e+01,3.809654859093419832e-02
4.600000000000000000e+01,3.614528473786836338e-02
4.603999999999999915e+01,4.494045488101174740e-02
4.607999999999999829e+01,4.433052728377490787e-02
4.611999999999999744e+01,3.700237106207854287e-02
4.615999999999999659e+01,3.021053550234534257e-02
4.620000000000000284e+01,4.706210695332879723e-02
4.624000000000000199e+01,5.155301661610873359e-02
4.628000000000000114e+01,5.872973877384670555e-02
4.632000000000000028e+01,5.569529254898583637e-02
4.635999999999999943e+01,6.609413842798564365e-02
4.639999999999999858e+01,6.869999639884438736e-02
4.643999999999999773e+01,8.070883729554804986e-02
4.647999999999999687e+01,1.083004621291072667e-01
4.652000000000000313e+01,1.530869917400304592e-01
4.656000000000000227e+01,2.209795400704751278e-01
4.660000000000000142e+01,2.861841469379373670e-01
4.664000000000000057e+01,3.011431995828152131e-01
4.667999999999999972e+01,3.327597765769115257e-01
4.671999999999999886e+01,3.106378643081137980e-01
4.675999999999999801e+01,2.627209163645308210e-01
4.679999999999999716e+01,2.475827121835200428e-01
4.684000000000000341e+01,2.002009795300307149e-01
4.688000000000000256e+01,1.404585599265793794e-01
4.692000000000000171e+01,1.159130629875482627e-01
4.696000000000000085e+01,7.927556302218845274e-02
4.700000000000000000e+01,7.890973085144116494e-02
4.703999999999999915e+01,5.167410372222713127e-02
4.707999999999999829e+01,5.641114814075681022e-02
4.711999999999999744e+01,4.905618324251824480e-02
4.715999999999999659e+01,5.191023416970564491e-02
4.720000000000000284e+01,4.885207521852544948e-02
4.724000000000000199e+01,4.283726257375135293e-02
4.728000000000000114e+01,6.019712741037356457e-02
4.732000000000000028e+01,5.337405696879031491e-02
4.735999999999999943e+01,6.267111000435084123e-02
4.739999999999999858e+01,5.289027892469422981e-02
4.743999999999999773e+01,5.143764318022286952e-02
4.747999999999999687e+01,4.675965723764517051e-02
4.752000000000000313e+01,5.014117641617988480e-02
4.756000000000000227e+01,5.244683880221300692e-02
4.760000000000000142e+01,4.695946610180801867e-02
4.764000000000000057e+01,4.227704294565308440e-02
4.767999999999999972e+01,5.290866947920363356e-02
4.771999999999999886e+01,3.425229070024141120e-02
4.775999999999999801e+01,3.789582225594453208e-02
4.779999999999999716e+01,3.858267810151518734e-02
4.784000000000000341e+01,3.550679545778433199e-02
4.788000000000000256e+01,3.887828136855837197e-02
4.792000000000000171e+01,5.192137908746424779e-02
4.796000000000000085e+01,4.051282929755304490e-02
4.800000000000000000e+01,3.689507868858244582e-02
4.803999999999999915e+01,3.166407827808530306e-02
4.807999999999999829e+01,3.932892821151710155e-02
4.811999999999999744e+01,3.785728727031681395e-02
4.815999999999999659e+01,3.423501767205416185e-02
4.820000000000000284e+01,4.109041008021323965e-02
4.824000000000000199e+01,4.525779654838404248e-02
4.828000000000000114e+01,3.706444102524639878e-02
4.832000000000000028e+01,4.203561347923136238e-02
4.835999999999999943e+01,5.022989079016573766e-02
4.839999999999999858e+01,5.681090414608452877e-02
4.843999999999999773e+01,3.168570026283481361e-02
4.847999999999999687e+01,4.551897667616198323e-02
4.852000000000000313e+01,4.591675338710923815e-02
4.856000000000000227e+01,3.959620554439303303e-02
4.860000000000000142e+01,4.429067811970563429e-02
4.864000000000000057e+01,3.662439455022074158e-02
4.867999999999999972e+01,3.191251618795300227e-02
4.871999999999999886e+01,3.472272163079458129e-02
4.875999999999999801e+01,4.021864206678042730e-02
4.879999999999999716e+01,6.290937764136601829e-02
4.884000000000000341e+01,6.598479834907190755e-02
4.888000000000000256e+01,6.798431036814955863e-02
4.892000000000000171e+01,7.938670781125838072e-02
4.896000000000000085e+01,1.324344373681560771e-01
4.900000000000000000e+01,1.857496888628610565e-01
4.903999999999999915e+01,2.514233788211512333e-01
4.907999999999999829e+01,2.394453376046409565e-01
4.911999999999999744e+01,1.992539843096838015e-01
4.915999999999999659e+01,1.722271259670413723e-01
4.920000000000000284e+01,1.430495980794791178e-01
4.924000000000000199e+01,1.203193852776853756e-01
4.928000000000000114e+01,7.743646617259677956e-02
4.932000000000000028e+01,7.297462020157126361e-02
4.935999999999999943e+01,5.480855443450474707e-02
4.939999999999999858e+01,5.947970866280371388e-02
4.943999999999999773e+01,5.286482356951947847e-02
4.947999999999999687e+01,5.619017602143404344e-02
4.952000000000000313e+01,4.393049290489661751e-02
4.956000000000000227e+01,3.919286056866057993e-02
4.960000000000000142e+01,4.681364467947111280e-02
4.964000000000000057e+01,3.750595315973476868e-02
4.967999999999999972e+01,5.103547062709457016e-02
4.971999999999999886e+01,4.306882914818555008e-02
4.975999999999999801e+01,5.256565213409173515e-02
4.979999999999999716e+01,5.158248285148474277e-02
4.984000000000000341e+01,4.522437403596295258e-02
4.988000000000000256e+01,6.197215341334098154e-02
4.992000000000000171e+01,3.169849444035972158e-02
4.996000000000000085e+01,4.683174722986267746e-02
5.000000000000000000e+01,5.497793178289274441e-02
5.003999999999999915e+01,4.404612842845238851e-02
5.007999999999999829e+01,4.493534851203370706e-02
5.011999999999999744e+01,4.501729822493292371e-02
5.015999999999999659e+01,5.288996219783815428e-02
5.020000000000000284e+01,5.377555007122106212e-02
5.024000000000000199e+01,4.713668613476566793e-02
5.028000000000000114e+01,4.237741622571916666e-02
5.032000000000000028e+01,4.514016721738602078e-02
5.035999999999999943e+01,4.682695133385835623e-02
5.039999999999999858e+01,5.066201182876291925e-02
5.043999999999999773e+01,4.912210920160417493e-02
5.047999999999999687e+01,4.623754791256815683e-02
5.052000000000000313e+01,3.475377553001222919e-02
5.056000000000000227e+01,3.025464047480413629e-02
5.060000000000000142e+01,5.208561013175441040e-02
5.064000000000000057e+01,4.865876570846528609e-02
5.067999999999999972e+01,5.221655389469424813e-02
5.071999999999999886e+01,5.577310932765182361e-02
5.075999999999999801e+01,5.180519250684245680e-02
5.079999999999999716e+01,5.912089667937039938e-02
5.084000000000000341e+01,6.858485993162181937e-02
5.088000000000000256e+01,4.284957812041111785e-02
5.092000000000000171e+01,5.687874188313266077e-02
5.096000000000000085e+01,4.403795657161728438e-02
5.100000000000000000e+01,5.295958007565922804e-02
5.103999999999999915e+01,6.967188324228933138e-02
5.107999999999999829e+01,5.655867485946916573e-02
5.111999999999999744e+01,5.929675505960917831e-02
5.115999999999999659e+01,5.612246969300163646e-02
5.120000000000000284e+01,4.273682408538750921e-02
5.124000000000000199e+01,4.815802010028764901e-02
5.128000000000000114e+01,5.868301565358605143e-02
5.132000000000000028e+01,7.377443503496652899e-02
5.135999999999999943e+01,7.059387581930910704e-02
5.139999999999999858e+01,8.272722004063648438e-02
5.143999999999999773e+01,7.846939200167750428e-02
5.147999999999999687e+01,9.892951166434078847e-02
5.152000000000000313e+01,1.072974490231468903e-01
5.156000000000000227e+01,1.288297869776738047e-01
5.160000000000000142e+01,1.409568101716544009e-01
5.164000000000000057e+01,1.767270265014052599e-01
5.167999999999999972e+01,2.116899111286880408e-01
5.171999999999999886e+01,2.770131624678479620e-01
5.175999999999999801e+01,3.023007669067728775e-01
5.179999999999999716e+01,3.353790211286979406e-01
5.184000000000000341e+01,3.587832640855642685e-01
5.188000000000000256e+01,3.343599304276270168e-01
5.192000000000000171e+01,3.120848133889458365e-01
5.196000000000000085e+01,2.664326398558700681e-01
5.200000000000000000e+01,2.323327272066878779e-01
5.203999999999999915e+01,1.858719247408666675e-01
5.207999999999999829e+01,1.713835972465518886e-01
5.211999999999999744e+01,1.305626492100192826e-01
5.215999999999999659e+01,1.063990100751486673e-01
5.220000000000000284e+01,1.066846032660690585e-01
5.224000000000000199e+01,8.735474791826843000e-02
5.228000000000000114e+01,7.715895882641440884e-02
5.232000000000000028e+01,9.356189389334615414e-02
5.235999999999999943e+01,9.034937570372712778e-02
5.239999999999999858e+01,1.000325380161679739e-01
5.243999999999999773e+01,8.660731203174838744e-02
5.247999999999999687e+01,1.062292935681484751e-01
5.252000000000000313e+01,1.231631008953011364e-01
5.256000000000000227e+01,1.177945764143228657e-01
5.260000000000000142e+01,1.019459495821385536e-01
5.264000000000000057e+01,9.576874899011798836e-02
5.267999999999999972e+01,1.019498437541817432e-01
5.271999999999999886e+01,6.890131508193209076e-02
5.275999999999999801e+01,6.675048637140837404e-02
5.279999999999999716e+01,7.024077157781283276e-02
5.284000000000000341e+01,4.739840793502118205e-02
5.288000000000000256e+01,6.002141970662774190e-02
5.292000000000000171e+01,5.141683379202658527e-02
5.296000000000000085e+01,5.060285205473846748e-02
5.300000000000000000e+01,4.307037120408813841e-02
5.303999999999999915e+01,4.520930086750259147e-02
5.307999999999999829e+01,4.197316361660032025e-02
5.311999999999999744e+01,4.679631132142454686e-02
5.315999999999999659e+01,5.994742947821855156e-02
5.320000000000000284e+01,5.993155100612732045e-02
5.324000000000000199e+01,6.045171484404718298e-02
5.328000000000000114e+01,4.726750477015598251e-02
5.332000000000000028e+01,4.214257178894182526e-02
5.335999999999999943e+01,3.943448588188049053e-02
5.339999999999999858e+01,4.693517047310082763e-02
5.343999999999999773e+01,4.798602572110322040e-02
5.347999999999999687e+01,4.339311125983685152e-02
5.352000000000000313e+01,4.605340482163881172e-02
5.356000000000000227e+01,5.811640138472381339e-02
5.360000000000000142e+01,3.874166491081636882e-02
5.364000000000000057e+01,3.736761449627005321e-02
5.367999999999999972e+01,4.485888822747082644e-02
5.371999999999999886e+01,4.912456643342111295e-02
5.375999999999999801e+01,4.882121219724565309e-02
5.379999999999999716e+01,4.985993946110179459e-02
5.384000000000000341e+01,3.665689665890223964e-02
5.388000000000000256e+01,4.790302013287781741e-02
5.392000000000000171e+01,4.759424108410841708e-02
5.396000000000000085e+01,5.346390448428631204e-02
5.400000000000000000e+01,3.864330187549528534e-02
5.403999999999999915e+01,4.961529459670512010e-02
5.407999999999999829e+01,5.171924919326105485e-02
5.411999999999999744e+01,4.092485805975727697e-02
5.415999999999999659e+01,5.323618684989402799e-02
5.420000000000000284e+01,5.184310555819200000e-02
5.424000000000000199e+01,5.635976863831496791e-02
5.428000000000000114e+01,4.985888917990984742e-02
5.432000000000000028e+01,4.201320008907718367e-02
5.435999999999999943e+01,5.539241357686420369e-02
5.439999999999999858e+01,5.023084188040778664e-02
5.443999999999999773e+01,5.285981617469823202e-02
5.447999999999999687e+01,5.441266161497447518e-02
5.452000000000000313e+01,6.912979127783901168e-02
5.456000000000000227e+01,6.315663291519602041e-02
5.460000000000000142e+01,6.927300735450926672e-02
5.464000000000000057e+01,7.646274320019327830e-02
5.467999999999999972e+01,9.090564146325851025e-02
5.471999999999999886e+01,9.621178937105838436e-02
5.475999999999999801e+01,1.028599810362524070e-01
5.479999999999999716e+01,1.140744597124673104e-01
5.484000000000000341e+01,9.895621090899117678e-02
5.488000000000000256e+01,9.673354510576114007e-02
5.492000000000000171e+01,1.049882771104897194e-01
5.496000000000000085e+01,9.147795708819957128e-02
5.500000000000000000e+01,8.092179380076251760e-02
5.503999999999999915e+01,7.305109860671567257e-02
5.507999999999999829e+01,6.034263200556324452e-02
5.511999999999999744e+01,6.563479327720567191e-02
5.515999999999999659e+01,5.641644551781262867e-02
5.520000000000000284e+01,5.660073628269666340e-02
5.524000000000000199e+01,4.818563038609271348e-02
5.528000000000000114e+01,5.696508486528489151e-02
5.532000000000000028e+01,5.284614643612026152e-02
5.535999999999999943e+01,5.974196265391150396e-02
5.539999999999999858e+01,5.105251212959553697e-02
5.543999999999999773e+01,5.257175190045652174e-02
5.547999999999999687e+01,5.301482350205583005e-02
5.552000000000000313e+01,4.458980036504482658e-02
5.556000000000000227e+01,6.088256452344639053e-02
5.560000000000000142e+01,5.003651011600959014e-02
5.564000000000000057e+01,3.811428124887154129e-02
5.567999999999999972e+01,4.849165133963886931e-02
5.571999999999999886e+01,5.268778951727688675e-02
5.575999999999999801e+01,4.049258559275947106e-02
5.579999999999999716e+01,5.032828883946460080e-02
5.584000000000000341e+01,4.538476925191286399e-02
5.588000000000000256e+01,4.635092955918008323e-02
5.592000000000000171e+01,3.200048974926449075e-02
5.596000000000000085e+01,4.774156288572375256e-02
5.600000000000000000e+01,4.279229138271910954e-02
5.603999999999999915e+01,3.676682969391425332e-02
5.607999999999999829e+01,3.369548227949525909e-02
5.611999999999999744e+01,4.969947169803588111e-02
5.615999999999999659e+01,5.146159983914656150e-02
5.620000000000000284e+01,4.408691943842564520e-02
5.624000000000000199e+01,3.456129271344265258e-02
5.628000000000000114e+01,4.303624825556749689e-02
5.632000000000000028e+01,4.076226812491257762e-02
5.635999999999999943e+01,3.768077229643140846e-02
5.639999999999999858e+01,3.486650747292616148e-02
5.643999999999999773e+01,3.876796173426051012e-02
5.647999999999999687e+01,3.836896368484908615e-02
5.652000000000000313e+01,4.387962036849824693e-02
5.656000000000000227e+01,3.783527073714904043e-02
5.660000000000000142e+01,3.931269510675909629e-02
5.664000000000000057e+01,3.863915742600814579e-02
5.667999999999999972e+01,5.354800266658849006e-02
5.671999999999999886e+01,3.782505341316347997e-02
5.675999999999999801e+01,4.950671496538472383e-02
5.679999999999999716e+01,3.324344956691134556e-02
5.684000000000000341e+01,4.169792114033379904e-02
5.688000000000000256e+01,4.988223070970738277e-02
5.692000000000000171e+01,4.140646550238530343e-02
5.696000000000000085e+01,4.824438513927216399e-02
5.700000000000000000e+01,4.836364840180694402e-02
5.703999999999999915e+01,4.095819251082052220e-02
5.707999999999999829e+01,4.564217191997654854e-02
5.711999999999999744e+01,3.715900058447725585e-02
5.715999999999999659e+01,3.969051312848848739e-02
5.720000000000000284e+01,3.765285798592257066e-02
5.724000000000000199e+01,4.824200599076561291e-02
5.728000000000000114e+01,5.479935730151792861e-02
5.732000000000000028e+01,5.195116896850831417e-02
5.735999999999999943e+01,6.361058854704934595e-02
5.739999999999999858e+01,5.189273775624961282e-02
5.743999999999999773e+01,7.671483137773174588e-02
5.747999999999999687e+01,9.078794372074712460e-02
5.752000000000000313e+01,1.233989637176695769e-01
5.756000000000000227e+01,1.218852243006889602e-01
5.760000000000000142e+01,1.295053419825384633e-01
5.764000000000000057e+01,1.244956626135101246e-01
5.767999999999999972e+01,1.149167966865859425e-01
5.771999999999999886e+01,1.136657219341028896e-01
5.775999999999999801e+01,1.011282807571776549e-01
5.779999999999999716e+01,8.697720606191056136e-02
5.784000000000000341e+01,9.190140057737737622e-02
5.788000000000000256e+01,8.742003343254371728e-02
5.792000000000000171e+01,8.589270822204057854e-02
5.796000000000000085e+01,8.302043027160896371e-02
5.800000000000000000e+01,8.149006869716962642e-02
5.803999999999999915e+01,9.366122709335350516e-02
5.807999999999999829e+01,7.842478235303233791e-02
5.811999999999999744e+01,8.414440529714725669e-02
5.815999999999999659e+01,7.750289781530872446e-02
5.820000000000000284e+01,7.489016953494359585e-02
5.824000000000000199e+01,6.905166802440929064e-02
5.828000000000000114e+01,6.804800377668777933e-02
5.832000000000000028e+01,6.623674677325495919e-02
5.835999999999999943e+01,5.770677992673343276e-02
5.839999999999999858e+01,4.030860511368881266e-02
5.843999999999999773e+01,3.795536988943377238e-02
5.847999999999999687e+01,4.043696406494207835e-02
5.852000000000000313e+01,3.673721624462819579e-02
5.856000000000000227e+01,3.088643088867825889e-02
5.860000000000000142e+01,5.432099348029065244e-02
5.864000000000000057e+01,3.557014213194079760e-02
5.867999999999999972e+01,5.201575110070079389e-02
5.871999999999999886e+01,4.374060245972791888e-02
5.875999999999999801e+01,3.841946272827759939e-02
5.879999999999999716e+01,5.351698980918899451e-02
5.884000000000000341e+01,4.604325111336224352e-02
5.888000000000000256e+01,5.253968643220400386e-02
5.892000000000000171e+01,4.425677782582657788e-02
5.896000000000000085e+01,3.973393147248147766e-02
5.900000000000000000e+01,5.159943803565267967e-02
5.903999999999999915e+01,4.062498389018316669e-02
5.907999999999999829e+01,5.033787261765915871e-02
5.911999999999999744e+01,3.479261387159720414e-02
5.915999999999999659e+01,3.429226640734654025e-02
5.920000000000000284e+01,4.426914848179529932e-02
5.924000000000000199e+01,2.979393957143561950e-02
5.928000000000000114e+01,4.191718118573921348e-02
5.932000000000000028e+01,4.167924676840226161e-02
5.935999999999999943e+01,3.714074681240675524e-02
5.939999999999999858e+01,4.549765215173878774e-02
5.943999999999999773e+01,3.182064226289028214e-02
5.947999999999999687e+01,3.587540176350461490e-02
5.952000000000000313e+01,3.831646012355144348e-02
5.956000000000000227e+01,3.081451663597581728e-02
5.960000000000000142e+01,4.399989557741705581e-02
5.964000000000000057e+01,3.649478677189366138e-02
5.967999999999999972e+01,4.134769811572225340e-02
5.971999999999999886e+01,2.604749270507254744e-02
5.975999999999999801e+01,4.298814739368170962e-02
5.979999999999999716e+01,2.526658046452744458e-02
5.984000000000000341e+01,4.112930583367745141e-02
5.988000000000000256e+01,3.871971763988110021e-02
5.992000000000000171e+01,2.771054878923860654e-02
5.996000000000000085e+01,3.900081062724206071e-02
