2.003999999999999915e+01,7.467410687734313268e-02
2.007999999999999829e+01,6.828517828610507212e-02
2.012000000000000099e+01,4.883614656777332530e-02
2.016000000000000014e+01,7.952302198069688410e-02
2.019999999999999929e+01,6.344524703026586943e-02
2.023999999999999844e+01,5.916445764514077776e-02
2.028000000000000114e+01,6.162496941004146078e-02
2.032000000000000028e+01,6.366456412346478688e-02
2.035999999999999943e+01,7.960766820338448235e-02
2.039999999999999858e+01,2.729946065875082581e-02
2.044000000000000128e+01,4.998423562439866658e-02
2.048000000000000043e+01,4.444183424704545998e-02
2.051999999999999957e+01,6.670605191188504202e-02
2.055999999999999872e+01,8.265103795375711160e-02
2.060000000000000142e+01,8.764241471462612398e-02
2.064000000000000057e+01,3.954950314168369230e-02
2.067999999999999972e+01,6.307910005099981454e-02
2.071999999999999886e+01,7.860422499499289395e-02
2.076000000000000156e+01,8.233311383011639173e-02
2.080000000000000071e+01,7.805752404322874316e-02
2.083999999999999986e+01,8.937063071168500905e-02
2.087999999999999901e+01,7.793351559787871363e-02
2.092000000000000171e+01,5.975583214876196980e-02
2.096000000000000085e+01,9.466313656472999383e-02
2.100000000000000000e+01,8.154180377872434493e-02
2.103999999999999915e+01,6.462903997308790116e-02
2.107999999999999829e+01,8.563421078669633535e-02
2.112000000000000099e+01,4.681414521044818811e-02
2.116000000000000014e+01,3.748587245186377204e-02
2.119999999999999929e+01,9.051131624768037065e-02
2.123999999999999844e+01,7.233623122300261721e-02
2.128000000000000114e+01,3.646657221955564715e-02
2.132000000000000028e+01,3.935744137977752188e-02
2.135999999999999943e+01,8.058752861807920442e-02
2.139999999999999858e+01,3.839917776241460329e-02
2.144000000000000128e+01,4.845316131721452702e-02
2.148000000000000043e+01,6.145658535651189053e-02
2.151999999999999957e+01,6.771939113533523291e-02
2.155999999999999872e+01,2.089783202842984342e-02
2.160000000000000142e+01,4.906915890982285061e-02
2.164000000000000057e+01,9.831684502480684054e-03
2.167999999999999972e+01,4.221663536879147888e-02
2.171999999999999886e+01,3.056341651954244730e-05
2.176000000000000156e+01,1.472117357764953123e-02
2.180000000000000071e+01,5.763960303120127526e-02
2.183999999999999986e+01,4.747364430061498664e-02
2.187999999999999901e+01,6.764203199198495775e-02
2.192000000000000171e+01,9.202374382779936191e-02
2.196000000000000085e+01,5.278838856332696700e-02
2.200000000000000000e+01,4.767913055098006031e-02
2.203999999999999915e+01,2.740307586479135554e-02
2.207999999999999829e+01,6.358236990800625321e-02
2.212000000000000099e+01,6.521474978743739548e-02
2.216000000000000014e+01,7.948656898614038513e-02
2.219999999999999929e+01,4.994271870498907806e-02
2.223999999999999844e+01,5.283971867691961144e-02
2.228000000000000114e+01,9.660370071848042861e-02
2.232000000000000028e+01,4.810172621202002397e-02
2.235999999999999943e+01,9.944967313275185350e-02
2.239999999999999858e+01,5.431858927632802342e-02
2.244000000000000128e+01,2.224822819801077975e-02
2.248000000000000043e+01,4.789710283738873864e-02
2.251999999999999957e+01,6.933311655115485805e-02
2.255999999999999872e+01,2.925854702569342936e-02
2.260000000000000142e+01,7.218160866757307448e-02
2.264000000000000057e+01,6.159890880118495254e-02
2.267999999999999972e+01,5.438685632621153426e-02
2.271999999999999886e+01,3.790624519696936257e-02
2.276000000000000156e+01,2.437496804520937824e-02
2.280000000000000071e+01,3.106659858961710943e-02
2.283999999999999986e+01,2.048483210707510715e-02
2.287999999999999901e+01,8.110408429061431723e-02
2.292000000000000171e+01,5.661954487412818038e-02
2.296000000000000085e+01,7.637238500337760472e-02
2.300000000000000000e+01,6.536999856047213953e-02
2.303999999999999915e+01,6.532175118428651395e-02
2.307999999999999829e+01,5.853275574220233313e-02
2.312000000000000099e+01,3.994732781893925444e-02
2.316000000000000014e+01,6.265011549897818444e-02
2.319999999999999929e+01,7.229254376941614268e-02
2.323999999999999844e+01,4.780927143967626108e-02
2.328000000000000114e+01,4.776193443841975778e-02
2.332000000000000028e+01,9.574370784300278991e-02
2.335999999999999943e+01,4.556114356118966952e-02
2.339999999999999858e+01,2.149973165180615875e-02
2.344000000000000128e+01,2.145293500028447667e-02
2.348000000000000043e+01,5.426819218041785409e-02
2.351999999999999957e+01,5.548556600543222417e-02
2.355999999999999872e+01,2.215590584627043572e-02
2.360000000000000142e+01,3.811925306627230586e-02
2.364000000000000057e+01,3.385998939172750466e-02
2.367999999999999972e+01,4.392526558835226080e-02
2.371999999999999886e+01,6.368070399811158466e-02
2.376000000000000156e+01,9.101976750643807346e-02
2.380000000000000071e+01,4.125979457881404078e-02
2.383999999999999986e+01,5.680246583558459100e-02
2.387999999999999901e+01,6.476170894508262443e-02
2.392000000000000171e+01,3.016905972765806729e-02
2.396000000000000085e+01,4.823984199225617858e-02
2.400000000000000000e+01,2.712917933120075412e-02
2.403999999999999915e+01,1.012339239771882504e-01
2.407999999999999829e+01,2.366831285651412736e-02
2.412000000000000099e+01,1.182662937906969747e-02
2.416000000000000014e+01,4.843529316948021191e-02
2.419999999999999929e+01,3.954289403384630280e-02
2.423999999999999844e+01,4.529539477077230113e-03
2.428000000000000114e+01,7.947730876084839469e-02
2.432000000000000028e+01,3.098225504328347424e-02
2.435999999999999943e+01,3.683582655327739819e-02
2.439999999999999858e+01,1.151274824182367366e-02
2.444000000000000128e+01,3.885306147226156442e-02
2.448000000000000043e+01,3.291018443834034524e-02
2.451999999999999957e+01,1.854121248914922249e-02
2.455999999999999872e+01,5.683562209681718852e-02
2.460000000000000142e+01,2.982751790450025031e-02
2.464000000000000057e+01,5.801062915582187729e-02
2.467999999999999972e+01,5.712360107350935440e-02
2.471999999999999886e+01,7.351017362612874417e-02
2.476000000000000156e+01,4.818739747108667648e-02
2.480000000000000071e+01,5.741179234131855991e-02
2.483999999999999986e+01,7.169188190135521166e-02
2.487999999999999901e+01,2.066943436299729583e-02
2.492000000000000171e+01,3.579215465822947057e-02
2.496000000000000085e+01,2.774300692284236564e-02
2.500000000000000000e+01,3.191175543704253409e-02
2.503999999999999915e+01,2.933959279647645191e-02
2.507999999999999829e+01,2.129043594453349300e-02
2.512000000000000099e+01,3.051484644408080510e-02
2.516000000000000014e+01,3.257702904658456300e-02
2.519999999999999929e+01,7.002896290540945590e-02
2.523999999999999844e+01,4.428486349696479640e-02
2.528000000000000114e+01,3.876346542734544764e-02
2.532000000000000028e+01,6.484004781381315363e-02
2.535999999999999943e+01,2.940581397695697652e-02
2.539999999999999858e+01,4.663489180173107512e-02
2.544000000000000128e+01,6.091478600349865824e-02
2.548000000000000043e+01,5.665714323586336365e-02
2.551999999999999957e+01,1.448184933722745059e-02
2.555999999999999872e+01,2.623377405857939271e-02
2.560000000000000142e+01,3.798564914425966998e-02
2.564000000000000057e+01,6.574712804122076482e-02
2.567999999999999972e+01,6.696622493941009613e-02
2.571999999999999886e+01,3.953640272425985869e-02
2.576000000000000156e+01,5.887156761421664247e-02
2.580000000000000071e+01,4.618735267618843260e-02
2.583999999999999986e+01,4.277181679180593055e-02
2.587999999999999901e+01,7.938034991158345044e-02
2.592000000000000171e+01,4.394535128010228220e-02
2.596000000000000085e+01,1.482987441652137278e-02
2.600000000000000000e+01,5.270208903572493747e-02
2.603999999999999915e+01,6.234666467208018620e-02
2.607999999999999829e+01,7.409768451885645479e-02
2.612000000000000099e+01,4.961623033844711483e-02
2.616000000000000014e+01,9.802074892887076285e-02
2.619999999999999929e+01,5.837205569432951657e-02
2.623999999999999844e+01,3.894598391835223106e-02
2.628000000000000114e+01,5.364565326166766818e-02
2.632000000000000028e+01,6.708129278738210466e-02
2.635999999999999943e+01,6.113670860563123061e-02
2.639999999999999858e+01,3.244144333011383941e-02
2.644000000000000128e+01,9.559093160302885306e-02
2.648000000000000043e+01,8.459030774164212618e-02
2.651999999999999957e+01,9.086313473969750976e-02
2.655999999999999872e+01,8.997361734866117511e-02
2.660000000000000142e+01,1.072001576748674995e-01
2.664000000000000057e+01,9.535639557857217286e-02
2.667999999999999972e+01,8.393380073855609413e-02
2.671999999999999886e+01,5.523748602220029252e-02
2.676000000000000156e+01,8.046829007550462820e-02
2.680000000000000071e+01,5.261429322998593255e-02
2.683999999999999986e+01,7.531695443948212276e-02
2.687999999999999901e+01,9.801945950629159521e-02
2.692000000000000171e+01,1.047121483267737380e-01
2.696000000000000085e+01,8.907541621391482090e-02
2.700000000000000000e+01,5.911408822701923194e-02
2.703999999999999915e+01,1.092008746605419023e-01
2.707999999999999829e+01,6.280824090063358289e-02
2.712000000000000099e+01,5.264781215101270451e-02
2.716000000000000014e+01,9.178009455791882876e-02
2.719999999999999929e+01,5.381305761961473200e-02
2.723999999999999844e+01,5.207821570656555321e-02
2.728000000000000114e+01,5.750539924054633850e-02
2.732000000000000028e+01,4.818665351649139422e-02
2.735999999999999943e+01,7.425747931816926994e-02
2.739999999999999858e+01,5.019260159657291248e-02
2.744000000000000128e+01,5.266984684188305565e-02
2.748000000000000043e+01,6.905000900841663791e-02
2.751999999999999957e+01,4.582712659775967090e-02
2.755999999999999872e+01,3.060885985021219100e-02
2.760000000000000142e+01,5.204406493006589335e-02
2.764000000000000057e+01,5.789070061064095080e-02
2.767999999999999972e+01,3.719478787523212981e-02
2.771999999999999886e+01,3.967052075036355679e-02
2.776000000000000156e+01,7.205880402360473336e-02
2.780000000000000071e+01,5.683919103359724029e-02
2.783999999999999986e+01,3.572104741921675736e-02
2.787999999999999901e+01,4.114499015995652653e-02
2.792000000000000171e+01,3.729994156167750624e-02
2.796000000000000085e+01,5.451998481764976090e-02
2.800000000000000000e+01,4.056307870119347375e-02
2.803999999999999915e+01,5.988915374239459771e-02
2.807999999999999829e+01,7.584451873262525179e-02
2.812000000000000099e+01,6.652121896681918722e-02
2.816000000000000014e+01,1.233428174387204701e-01
2.819999999999999929e+01,7.020308629172368475e-02
2.823999999999999844e+01,1.135423332473595032e-01
2.828000000000000114e+01,9.157876019534105794e-02
2.832000000000000028e+01,7.298536523820120525e-02
2.835999999999999943e+01,9.315191265614497507e-02
2.839999999999999858e+01,7.245142200159115919e-02
2.844000000000000128e+01,7.155206298942380638e-02
2.848000000000000043e+01,5.127230386754704633e-02
2.851999999999999957e+01,8.407690355369550061e-02
2.855999999999999872e+01,7.011615725254431719e-02
2.860000000000000142e+01,3.803892112838463957e-02
2.864000000000000057e+01,5.272643246854774590e-02
2.867999999999999972e+01,7.457585276369285698e-02
2.871999999999999886e+01,2.943718941041849682e-02
2.876000000000000156e+01,5.718428248560200600e-02
2.880000000000000071e+01,4.532822447657915838e-02
2.883999999999999986e+01,4.274059589538471010e-02
2.887999999999999901e+01,3.172650960939921161e-02
2.892000000000000171e+01,2.155471094966076445e-02
2.896000000000000085e+01,1.938741146098374446e-02
2.900000000000000000e+01,3.070159565920450515e-02
2.903999999999999915e+01,5.802510075944657814e-02
2.907999999999999829e+01,3.099969497351052691e-02
2.912000000000000099e+01,2.377536424810914456e-02
2.916000000000000014e+01,5.446829581641790541e-02
2.919999999999999929e+01,4.808588356054577934e-02
2.923999999999999844e+01,8.841191724595803478e-03
2.928000000000000114e+01,1.888903464292839007e-02
2.932000000000000028e+01,4.452486840762801684e-02
2.935999999999999943e+01,3.856233287895041023e-02
2.939999999999999858e+01,4.371878786508745333e-03
2.944000000000000128e+01,3.506229615302462743e-02
2.948000000000000043e+01,8.302591808150935893e-02
2.951999999999999957e+01,7.369144521131670844e-02
2.955999999999999872e+01,5.003216345305623591e-02
2.960000000000000142e+01,3.690516815581741661e-02
2.964000000000000057e+01,1.956471948769373040e-02
2.967999999999999972e+01,6.120682770703725351e-02
2.971999999999999886e+01,2.322156635201614791e-02
2.976000000000000156e+01,3.200095926767934640e-02
2.980000000000000071e+01,3.193251116938952000e-02
2.983999999999999986e+01,4.745201064899182142e-02
2.987999999999999901e+01,5.033190164275087169e-02
2.992000000000000171e+01,3.172473892018477792e-02
2.996000000000000085e+01,2.112199216007481020e-02
3.000000000000000000e+01,2.147280533478880191e-02
3.003999999999999915e+01,3.361978863047199867e-02
3.007999999999999829e+01,2.470101165369797264e-02
3.012000000000000099e+01,3.305538598538498157e-02
3.016000000000000014e+01,7.283483913342317026e-03
3.019999999999999929e+01,4.344324276100449550e-02
3.023999999999999844e+01,5.390285369314128106e-02
3.028000000000000114e+01,2.855095120753738114e-02
3.032000000000000028e+01,2.047218338867323392e-02
3.035999999999999943e+01,8.317250507827453343e-02
3.039999999999999858e+01,1.134317574230592901e-01
3.044000000000000128e+01,6.574880731226188935e-02
3.048000000000000043e+01,1.073824340436615316e-01
3.051999999999999957e+01,9.803748412644761046e-02
3.055999999999999872e+01,1.678977422208708103e-01
3.060000000000000142e+01,1.349586858689009738e-01
3.064000000000000057e+01,2.246194268680779260e-01
3.067999999999999972e+01,2.093743129779501999e-01
3.071999999999999886e+01,2.181432085870344817e-01
3.076000000000000156e+01,1.750908940629506139e-01
3.080000000000000071e+01,1.295102566749775364e-01
3.083999999999999986e+01,1.184762877322998315e-01
3.087999999999999901e+01,1.146040446856712719e-01
3.092000000000000171e+01,1.465423836993834661e-01
3.096000000000000085e+01,9.843194320281525855e-02
3.100000000000000000e+01,1.012991213707064714e-01
3.103999999999999915e+01,9.531835534597364601e-02
3.107999999999999829e+01,6.911435935466711533e-02
3.112000000000000099e+01,9.220274501380865129e-02
3.116000000000000014e+01,6.641903455705217008e-02
3.119999999999999929e+01,1.312157613040303150e-01
3.123999999999999844e+01,1.024818690104901536e-01
3.128000000000000114e+01,1.074519950359693471e-01
3.132000000000000028e+01,9.683324545450043563e-02
3.135999999999999943e+01,1.034875440028214522e-01
3.139999999999999858e+01,1.059282427331113136e-01
3.144000000000000128e+01,1.315402775379274358e-01
3.148000000000000043e+01,1.542026261397580755e-01
3.151999999999999957e+01,1.511647203190481792e-01
3.155999999999999872e+01,1.409640540662175368e-01
3.160000000000000142e+01,1.598330051759612735e-01
3.164000000000000057e+01,1.744883364976086426e-01
3.167999999999999972e+01,1.904070325469955638e-01
3.171999999999999886e+01,1.890515926770135191e-01
3.176000000000000156e+01,2.133953027982719852e-01
3.180000000000000071e+01,1.846537959776783921e-01
3.183999999999999986e+01,2.102602919842724571e-01
3.187999999999999901e+01,1.815176441205920976e-01
3.192000000000000171e+01,1.215977207067484717e-01
3.196000000000000085e+01,1.073157603929214415e-01
3.200000000000000000e+01,6.547077529781931970e-02
3.203999999999999915e+01,8.786299437009509328e-02
3.207999999999999829e+01,9.014518957995221182e-02
3.211999999999999744e+01,6.977787057363166179e-02
3.215999999999999659e+01,8.324060301353959634e-02
3.220000000000000284e+01,1.069168972777436999e-01
3.224000000000000199e+01,6.332957213422908682e-02
3.228000000000000114e+01,8.289775650362080084e-02
3.232000000000000028e+01,8.032019211310365003e-02
3.235999999999999943e+01,8.422078920003857327e-02
3.239999999999999858e+01,7.543480625831260056e-02
3.243999999999999773e+01,9.126107638486702367e-02
3.247999999999999687e+01,6.871325556548642244e-02
3.252000000000000313e+01,3.965328666843552508e-02
3.256000000000000227e+01,7.692863735995369989e-02
3.260000000000000142e+01,7.829644592661773317e-02
3.264000000000000057e+01,6.892898323659896187e-02
3.267999999999999972e+01,6.322227397649202163e-02
3.271999999999999886e+01,7.603159410990734113e-02
3.275999999999999801e+01,4.173512450254995843e-02
3.279999999999999716e+01,9.669513646373445459e-02
3.284000000000000341e+01,6.493278645375254177e-02
3.288000000000000256e+01,6.490591454076904965e-02
3.292000000000000171e+01,6.393913816654919757e-02
3.296000000000000085e+01,4.306485959307787548e-02
3.300000000000000000e+01,7.703407632272921135e-02
3.303999999999999915e+01,7.461752589771286637e-02
3.307999999999999829e+01,9.000619677531709883e-02
3.311999999999999744e+01,7.374248909165059818e-02
3.315999999999999659e+01,7.548366801023762007e-02
3.320000000000000284e+01,1.085385896540903700e-01
3.324000000000000199e+01,6.568219369566462296e-02
3.328000000000000114e+01,7.389052981626670347e-02
3.332000000000000028e+01,5.965264152660191416e-02
3.335999999999999943e+01,6.354461501461083905e-02
3.339999999999999858e+01,6.990843790563333604e-02
3.343999999999999773e+01,4.146436469331019059e-02
3.347999999999999687e+01,6.597688487339556374e-02
3.352000000000000313e+01,8.107599907993318089e-02
3.356000000000000227e+01,9.267622099032388205e-02
3.360000000000000142e+01,8.223833222840123969e-02
3.364000000000000057e+01,1.093391639048325870e-01
3.367999999999999972e+01,4.436066433151907018e-02
3.371999999999999886e+01,7.962672508599766275e-02
3.375999999999999801e+01,6.265001932424624220e-02
3.379999999999999716e+01,4.525127485901147412e-02
3.384000000000000341e+01,6.239894921325465221e-02
3.388000000000000256e+01,3.404475518214931246e-02
3.392000000000000171e+01,6.972844632095846762e-02
3.396000000000000085e+01,6.328071647568778157e-02
3.400000000000000000e+01,8.000410969091258095e-02
3.403999999999999915e+01,4.364209957700851406e-02
3.407999999999999829e+01,8.269324376524730957e-02
3.411999999999999744e+01,5.770500227930795006e-02
3.415999999999999659e+01,6.515661919986927286e-02
3.420000000000000284e+01,7.892707224941943045e-02
3.424000000000000199e+01,2.023199449486594997e-02
3.428000000000000114e+01,6.222845983541264170e-02
3.432000000000000028e+01,6.040824720780286344e-02
3.435999999999999943e+01,3.836453168939239766e-02
3.439999999999999858e+01,7.193252625587270854e-02
3.443999999999999773e+01,7.221650180027995580e-02
3.447999999999999687e+01,3.373946715008958180e-02
3.452000000000000313e+01,7.193947046198934103e-02
3.456000000000000227e+01,2.208556632497979746e-02
3.460000000000000142e+01,2.489420833042737397e-02
3.464000000000000057e+01,2.348898092196113549e-02
3.467999999999999972e+01,2.840254970235287293e-02
3.471999999999999886e+01,1.941218699551538335e-02
3.475999999999999801e+01,1.842584084982596890e-02
3.479999999999999716e+01,3.681879038254580461e-02
3.484000000000000341e+01,3.203904978362163980e-02
3.488000000000000256e+01,3.484200900356814595e-02
3.492000000000000171e+01,1.742141873589471771e-02
3.496000000000000085e+01,0.000000000000000000e+00
3.500000000000000000e+01,3.524109412312011885e-02
3.503999999999999915e+01,4.267510714318410031e-02
3.507999999999999829e+01,2.904294384776182070e-02
3.511999999999999744e+01,3.394743608950569203e-02
3.515999999999999659e+01,4.725235884490927921e-03
3.520000000000000284e+01,1.973939675187703566e-02
3.524000000000000199e+01,2.464134367876083531e-02
3.528000000000000114e+01,5.106643590480125852e-03
3.532000000000000028e+01,2.643784053161033279e-02
3.535999999999999943e+01,5.745823113770388846e-02
3.539999999999999858e+01,6.109281744288767857e-02
3.543999999999999773e+01,6.430522858247471329e-02
3.547999999999999687e+01,5.572017878251544348e-02
3.552000000000000313e+01,4.629164040302635036e-02
3.556000000000000227e+01,2.590824794179175800e-02
3.560000000000000142e+01,4.091374136737818690e-02
3.564000000000000057e+01,5.802488352911463337e-02
3.567999999999999972e+01,4.395843727632989251e-02
3.571999999999999886e+01,1.977973714291226051e-02
3.575999999999999801e+01,4.152257851405455336e-02
3.579999999999999716e+01,6.958412288041643246e-02
3.584000000000000341e+01,3.318483169655339626e-02
3.588000000000000256e+01,4.102184500323936139e-02
3.592000000000000171e+01,4.675141617521924586e-02
3.596000000000000085e+01,4.658178106894705905e-02
3.600000000000000000e+01,3.250810796843028871e-02
3.603999999999999915e+01,3.654970709591759404e-02
3.607999999999999829e+01,4.227561159052369705e-02
3.611999999999999744e+01,2.735655998993840113e-02
3.615999999999999659e+01,2.423316927365476783e-02
3.620000000000000284e+01,3.543327665679651267e-02
3.624000000000000199e+01,3.820631391980856134e-02
3.628000000000000114e+01,3.128835746261308254e-02
3.632000000000000028e+01,3.490212830460842630e-02
3.635999999999999943e+01,1.028740145094326867e-02
3.639999999999999858e+01,6.108563585545552510e-02
3.643999999999999773e+01,4.405253072662243530e-02
3.647999999999999687e+01,2.659716389524267519e-02
3.652000000000000313e+01,5.801242263059513266e-02
3.656000000000000227e+01,5.024519134020508093e-02
3.660000000000000142e+01,3.742131403254471411e-02
3.664000000000000057e+01,1.701294683580164765e-02
3.667999999999999972e+01,5.558655406628538326e-02
3.671999999999999886e+01,5.160720389969269267e-02
3.675999999999999801e+01,7.753965525375788870e-02
3.679999999999999716e+01,6.049783579681368428e-02
3.684000000000000341e+01,5.777946118578695250e-02
3.688000000000000256e+01,4.831919023010174813e-02
3.692000000000000171e+01,7.803945614107954398e-02
3.696000000000000085e+01,7.868856091674406028e-02
3.700000000000000000e+01,5.953524988813332919e-02
3.703999999999999915e+01,1.018917238751191889e-01
3.707999999999999829e+01,5.872192127097687619e-02
3.711999999999999744e+01,8.464541865614626237e-02
3.715999999999999659e+01,8.149773826428119428e-02
3.720000000000000284e+01,9.435869979221431225e-02
3.724000000000000199e+01,8.236154445887110265e-02
3.728000000000000114e+01,8.005342302996780457e-02
3.732000000000000028e+01,6.931814161564074650e-02
3.735999999999999943e+01,9.228637261200993425e-02
3.739999999999999858e+01,9.418823424892751317e-02
3.743999999999999773e+01,1.019873556617065663e-01
3.747999999999999687e+01,9.841015647497218521e-02
3.752000000000000313e+01,6.828959009957334680e-02
3.756000000000000227e+01,7.060859922141557443e-02
3.760000000000000142e+01,7.166263993258335796e-02
3.764000000000000057e+01,8.409091162207157910e-02
3.767999999999999972e+01,8.640676634205951556e-02
3.771999999999999886e+01,6.260054398890629868e-02
3.775999999999999801e+01,5.564553047322111368e-02
3.779999999999999716e+01,6.849086976737256416e-02
3.784000000000000341e+01,7.922860716629484545e-02
3.788000000000000256e+01,1.013405555734721297e-01
3.792000000000000171e+01,8.511251430569265197e-02
3.796000000000000085e+01,7.393907603081018021e-02
3.800000000000000000e+01,8.003813338057511051e-02
3.803999999999999915e+01,8.529349246512375748e-02
3.807999999999999829e+01,9.981651212998295108e-02
3.811999999999999744e+01,8.021259305061070877e-02
3.815999999999999659e+01,9.473342657229462394e-02
3.820000000000000284e+01,6.670117954816567885e-02
3.824000000000000199e+01,7.869197306982943230e-02
3.828000000000000114e+01,8.183421996856320157e-02
3.832000000000000028e+01,5.548388581103519401e-02
3.835999999999999943e+01,6.030914031212979143e-02
3.839999999999999858e+01,4.617447603139025747e-02
3.843999999999999773e+01,7.332675592645629403e-02
3.847999999999999687e+01,5.961115900627837055e-02
3.852000000000000313e+01,9.265948744939785098e-02
3.856000000000000227e+01,8.062686484813837151e-02
3.860000000000000142e+01,6.690788387035408180e-02
3.864000000000000057e+01,9.616105745563265084e-02
3.867999999999999972e+01,9.887076733026392561e-02
3.871999999999999886e+01,8.683359936875369167e-02
3.875999999999999801e+01,9.375409082232909197e-02
3.879999999999999716e+01,1.116274099749975796e-01
3.884000000000000341e+01,1.080129331905776563e-01
3.888000000000000256e+01,1.300970139521249180e-01
3.892000000000000171e+01,9.277568396787740090e-02
3.896000000000000085e+01,1.148574454524798616e-01
3.900000000000000000e+01,1.125022503859045842e-01
3.903999999999999915e+01,1.581748576858856004e-01
3.907999999999999829e+01,2.055315207271680988e-01
3.911999999999999744e+01,1.753665658194148713e-01
3.915999999999999659e+01,1.923867897786961378e-01
3.920000000000000284e+01,2.178319676101603819e-01
3.924000000000000199e+01,2.685543662752490346e-01
3.928000000000000114e+01,3.066363742936002446e-01
3.932000000000000028e+01,3.619907681012391465e-01
3.935999999999999943e+01,4.042834578482076280e-01
3.939999999999999858e+01,4.849138645900074596e-01
3.943999999999999773e+01,5.470055727702676229e-01
3.947999999999999687e+01,6.360597088430656187e-01
3.952000000000000313e+01,7.259552505308893844e-01
3.956000000000000227e+01,7.922564025852050218e-01
3.960000000000000142e+01,8.787790644311114230e-01
3.964000000000000057e+01,9.838380057112857680e-01
3.967999999999999972e+01,1.000000000000000000e+00
3.971999999999999886e+01,9.929888980990736469e-01
3.975999999999999801e+01,9.569064020787382274e-01
3.979999999999999716e+01,8.913312018534041981e-01
3.984000000000000341e+01,8.105877238410457153e-01
3.988000000000000256e+01,7.327921552748377643e-01
3.992000000000000171e+01,6.891211928625400329e-01
3.996000000000000085e+01,6.155362061746224578e-01
4.000000000000000000e+01,5.533252540927158236e-01
4.003999999999999915e+01,5.037522535602095841e-01
4.007999999999999829e+01,4.824055512668116164e-01
4.011999999999999744e+01,4.619002046632757486e-01
4.015999999999999659e+01,4.161151914720900846e-01
4.020000000000000284e+01,3.749632881292797038e-01
4.024000000000000199e+01,3.809964737882095553e-01
4.028000000000000114e+01,3.385781112260013437e-01
4.032000000000000028e+01,3.201729593603894752e-01
4.035999999999999943e+01,2.756455107509172553e-01
4.039999999999999858e+01,2.997897824492850583e-01
4.043999999999999773e+01,2.982330575043485310e-01
4.047999999999999687e+01,2.899341366637725459e-01
4.052000000000000313e+01,2.778421638999253318e-01
4.056000000000000227e+01,3.104074129675964966e-01
4.060000000000000142e+01,3.425500575132652270e-01
4.064000000000000057e+01,3.692144131216513192e-01
4.067999999999999972e+01,3.790251940188054114e-01
4.071999999999999886e+01,4.347571037058348686e-01
4.075999999999999801e+01,4.883811685285062709e-01
4.079999999999999716e+01,5.377908513722520212e-01
4.084000000000000341e+01,6.099497813723853135e-01
4.088000000000000256e+01,6.323931929544832631e-01
4.092000000000000171e+01,7.218230545469676018e-01
4.096000000000000085e+01,7.573243234922815148e-01
4.100000000000000000e+01,7.881898870597042750e-01
4.103999999999999915e+01,7.554367959066413674e-01
4.107999999999999829e+01,7.129923116320631138e-01
4.111999999999999744e+01,6.427402403461053293e-01
4.115999999999999659e+01,5.636393827964331082e-01
4.120000000000000284e+01,4.617866126656283710e-01
4.124000000000000199e+01,4.079614618424476369e-01
4.128000000000000114e+01,3.612971715458158650e-01
4.132000000000000028e+01,3.121036830307621357e-01
4.135999999999999943e+01,2.502696307950707522e-01
4.139999999999999858e+01,2.175043804776172207e-01
4.143999999999999773e+01,2.293962787681090021e-01
4.147999999999999687e+01,2.046331181899859464e-01
4.152000000000000313e+01,1.701785278785606648e-01
4.156000000000000227e+01,1.163424490888625012e-01
4.160000000000000142e+01,1.311779907566772985e-01
4.164000000000000057e+01,1.241041967460627671e-01
4.167999999999999972e+01,1.498909421704782974e-01
4.171999999999999886e+01,1.154294303505133262e-01
4.175999999999999801e+01,1.340511756566328261e-01
4.179999999999999716e+01,9.705903139137454783e-02
4.184000000000000341e+01,8.323735783114254161e-02
4.188000000000000256e+01,9.047961786136929363e-02
4.192000000000000171e+01,8.128950675893745204e-02
4.196000000000000085e+01,7.883889284395810548e-02
4.200000000000000000e+01,1.025078836213406119e-01
4.203999999999999915e+01,5.076154726678175355e-02
4.207999999999999829e+01,6.052457655644630924e-02
4.211999999999999744e+01,4.837823022755066704e-02
4.215999999999999659e+01,7.499067799497931286e-02
4.220000000000000284e+01,3.292869343300384999e-02
4.224000000000000199e+01,7.849708015104281400e-02
4.228000000000000114e+01,6.255324275614815299e-02
4.232000000000000028e+01,4.070966987626865874e-02
4.235999999999999943e+01,7.953282582771360743e-02
4.239999999999999858e+01,6.864033688404233557e-02
4.243999999999999773e+01,4.342196732546073357e-02
4.247999999999999687e+01,5.864759226542798354e-02
4.252000000000000313e+01,3.890329882880876750e-02
4.256000000000000227e+01,4.991293781742328628e-02
4.260000000000000142e+01,5.418020450815409089e-02
4.264000000000000057e+01,3.443151852562643250e-02
4.267999999999999972e+01,3.785323335289621227e-02
4.271999999999999886e+01,5.938966457468337901e-02
4.275999999999999801e+01,5.143314529399923424e-02
4.279999999999999716e+01,4.136861140340113152e-02
4.284000000000000341e+01,3.888611499117174825e-02
4.288000000000000256e+01,4.862002705865780400e-02
4.292000000000000171e+01,3.770841721243323869e-02
4.296000000000000085e+01,8.679122667621221379e-03
4.300000000000000000e+01,3.062644828399928298e-02
4.303999999999999915e+01,5.130835283488723725e-02
4.307999999999999829e+01,6.145608433255905778e-02
4.311999999999999744e+01,3.494862049950226562e-02
4.315999999999999659e+01,2.613452969193191464e-02
4.320000000000000284e+01,6.282005455964985441e-02
4.324000000000000199e+01,4.431287679284253572e-02
4.328000000000000114e+01,4.644820936720121807e-02
4.332000000000000028e+01,4.268372324796908951e-02
4.335999999999999943e+01,2.122282590395227486e-02
4.339999999999999858e+01,5.663681003910797651e-02
4.343999999999999773e+01,6.045125330371715205e-02
4.347999999999999687e+01,6.089370510482661203e-02
4.352000000000000313e+01,3.310706343665820867e-02
4.356000000000000227e+01,2.849074935471409761e-02
4.360000000000000142e+01,1.797459328076969620e-02
4.364000000000000057e+01,2.599438380667007387e-02
4.367999999999999972e+01,2.853563244112628308e-02
4.371999999999999886e+01,4.624236696078174585e-02
4.375999999999999801e+01,3.234953398313686335e-02
4.379999999999999716e+01,3.657132753471502296e-02
4.384000000000000341e+01,2.604581722209000499e-02
4.388000000000000256e+01,5.512157140147668638e-02
4.392000000000000171e+01,3.743070150937873042e-02
4.396000000000000085e+01,2.058086778609672166e-02
4.400000000000000000e+01,2.648001828000787553e-02
4.403999999999999915e+01,4.880854830409826067e-02
4.407999999999999829e+01,6.144543558085575202e-02
4.411999999999999744e+01,2.900090917338616486e-02
4.415999999999999659e+01,6.480648345215427042e-02
4.420000000000000284e+01,4.794711575960323990e-02
4.424000000000000199e+01,4.498927041204238420e-02
4.428000000000000114e+01,3.823806027685264231e-02
4.432000000000000028e+01,4.665228610169857432e-02
4.435999999999999943e+01,9.985078272251955017e-03
4.439999999999999858e+01,2.092392005399007146e-02
4.443999999999999773e+01,6.161432358000935861e-03
4.447999999999999687e+01,2.678709165641326301e-02
4.452000000000000313e+01,4.867504728406707448e-02
4.456000000000000227e+01,3.938467560478037949e-02
4.460000000000000142e+01,4.273187604365201453e-02
4.464000000000000057e+01,2.964647902245713326e-02
4.467999999999999972e+01,2.035120556059464431e-02
4.471999999999999886e+01,1.400343881523079259e-02
4.475999999999999801e+01,3.588158089270007678e-02
4.479999999999999716e+01,3.542881759530111530e-02
4.484000000000000341e+01,3.918747130110200594e-02
4.488000000000000256e+01,2.735612109126055874e-02
4.492000000000000171e+01,3.869498530393947894e-02
4.496000000000000085e+01,4.708304166162678717e-02
4.500000000000000000e+01,3.061233545925670652e-02
4.503999999999999915e+01,2.425132421979047867e-02
4.507999999999999829e+01,3.431960597355351167e-02
4.511999999999999744e+01,1.784388815324795818e-02
4.515999999999999659e+01,3.043665938682249203e-02
4.520000000000000284e+01,1.859195817586308322e-02
4.524000000000000199e+01,3.581573936209547088e-02
4.528000000000000114e+01,5.093129958107144029e-02
4.532000000000000028e+01,3.571108276905602535e-02
4.535999999999999943e+01,4.239712349604057157e-02
4.539999999999999858e+01,4.402578597002357319e-02
4.543999999999999773e+01,4.523144119235215227e-02
4.547999999999999687e+01,4.306493853396927557e-02
4.552000000000000313e+01,3.373451385132921615e-02
4.556000000000000227e+01,5.347254493912680789e-02
4.560000000000000142e+01,2.939295946569485396e-02
4.564000000000000057e+01,4.322926500814949780e-02
4.567999999999999972e+01,3.431328519491819162e-02
4.571999999999999886e+01,7.216063164302274902e-02
4.575999999999999801e+01,4.807415765500095556e-02
4.579999999999999716e+01,4.673651810868183903e-02
4.584000000000000341e+01,5.466589344389261029e-02
4.588000000000000256e+01,5.079694247005710900e-02
4.592000000000000171e+01,2.628221995669330693e-02
4.596000000000000085e+01,3.631290777450518065e-02
4.600000000000000000e+01,2.864696469681301400e-02
4.603999999999999915e+01,2.561364552923842824e-02
4.607999999999999829e+01,4.237999020424447483e-02
4.611999999999999744e+01,1.701390207852441355e-02
4.615999999999999659e+01,4.599462523275711645e-02
4.620000000000000284e+01,5.264432652007346863e-02
4.624000000000000199e+01,4.581044451426668357e-02
4.628000000000000114e+01,3.391911103188543358e-02
4.632000000000000028e+01,6.668452009945330383e-02
4.635999999999999943e+01,4.172912637817777909e-02
4.639999999999999858e+01,5.637478746322727163e-02
4.643999999999999773e+01,6.217122294312359826e-02
4.647999999999999687e+01,5.027098758738493545e-02
4.652000000000000313e+01,7.080958217977958991e-02
4.656000000000000227e+01,9.261030335585974937e-02
4.660000000000000142e+01,6.722287070414736943e-02
4.664000000000000057e+01,7.469556477278013751e-02
4.667999999999999972e+01,8.258776192557661100e-02
4.671999999999999886e+01,1.018534345225530352e-01
4.675999999999999801e+01,9.036190351090085671e-02
4.679999999999999716e+01,6.665066288104036507e-02
4.684000000000000341e+01,7.285038502909152447e-02
4.688000000000000256e+01,7.399260577540464623e-02
4.692000000000000171e+01,4.353499608522310577e-02
4.696000000000000085e+01,7.964202706820436295e-02
4.700000000000000000e+01,5.423644119363286303e-02
4.703999999999999915e+01,5.663526766902864107e-02
4.707999999999999829e+01,4.976350852851884471e-02
4.711999999999999744e+01,6.943223480955387772e-02
4.715999999999999659e+01,5.033889581086989362e-02
4.720000000000000284e+01,5.904995584877627268e-02
4.724000000000000199e+01,4.500860072557159863e-02
4.728000000000000114e+01,5.413726365257764961e-02
4.732000000000000028e+01,4.388395881974140739e-02
4.735999999999999943e+01,3.405010048921672250e-02
4.739999999999999858e+01,5.454846509702907659e-02
4.743999999999999773e+01,5.692877223170030726e-02
4.747999999999999687e+01,2.813050909030218386e-02
4.752000000000000313e+01,3.008576565945312101e-02
4.756000000000000227e+01,3.878005344786417119e-02
4.760000000000000142e+01,4.831507452576599276e-02
4.764000000000000057e+01,4.731554311920916495e-02
4.767999999999999972e+01,7.454167756635644848e-02
4.771999999999999886e+01,3.351422712984057639e-02
4.775999999999999801e+01,2.787465076349927157e-02
4.779999999999999716e+01,2.602493834564028469e-02
4.784000000000000341e+01,4.903042441015135339e-02
4.788000000000000256e+01,4.844082854555435691e-02
4.792000000000000171e+01,2.594137445248372031e-02
4.796000000000000085e+01,8.222437378406471931e-02
4.800000000000000000e+01,4.623927977062827072e-02
4.803999999999999915e+01,3.721590138406399850e-02
4.807999999999999829e+01,4.251503257868836233e-02
4.811999999999999744e+01,5.160400109504108962e-02
4.815999999999999659e+01,5.057968061570471824e-02
4.820000000000000284e+01,6.261393946079042705e-02
4.824000000000000199e+01,5.147439317891461946e-02
4.828000000000000114e+01,4.201813711916709687e-02
4.832000000000000028e+01,3.045340713800169866e-02
4.835999999999999943e+01,3.700292425481714609e-02
4.839999999999999858e+01,4.102265403628169160e-02
4.843999999999999773e+01,4.377651342578502136e-02
4.847999999999999687e+01,7.601989237384185194e-02
4.852000000000000313e+01,4.000961987135085579e-02
4.856000000000000227e+01,3.433147378521412413e-02
4.860000000000000142e+01,4.971670212770532005e-02
4.864000000000000057e+01,5.835905559233384166e-02
4.867999999999999972e+01,5.056847543412855417e-02
4.871999999999999886e+01,6.173472593329540348e-02
4.875999999999999801e+01,6.489417129783288385e-02
4.879999999999999716e+01,5.499112711246099267e-02
4.884000000000000341e+01,5.014178061035529099e-02
4.888000000000000256e+01,6.298533118051069524e-02
4.892000000000000171e+01,7.245643763235100343e-02
4.896000000000000085e+01,5.327669120285326992e-02
4.900000000000000000e+01,8.043869135321972397e-02
4.903999999999999915e+01,7.810721845107052030e-02
4.907999999999999829e+01,9.262601246497190188e-02
4.911999999999999744e+01,8.481354164282803310e-02
4.915999999999999659e+01,6.435985807292153582e-02
4.920000000000000284e+01,6.244165846301157063e-02
4.924000000000000199e+01,5.925752189425580185e-02
4.928000000000000114e+01,6.070573963973496801e-02
4.932000000000000028e+01,5.583233268274408884e-02
4.935999999999999943e+01,4.168815039422652663e-02
4.939999999999999858e+01,3.807460703633613192e-02
4.943999999999999773e+01,5.004738036766452625e-02
4.947999999999999687e+01,4.053147242233877401e-02
4.952000000000000313e+01,2.848568394802376488e-02
4.956000000000000227e+01,2.739182784820366062e-02
4.960000000000000142e+01,3.724990079453422559e-02
4.964000000000000057e+01,4.794853728479991917e-02
4.967999999999999972e+01,5.653858668994386077e-02
4.971999999999999886e+01,6.554788622508990470e-02
4.975999999999999801e+01,6.233722984455433713e-02
4.979999999999999716e+01,7.092109938293757188e-02
4.984000000000000341e+01,4.284921442876154368e-02
4.988000000000000256e+01,4.510934605558014621e-02
4.992000000000000171e+01,4.610348414170104686e-02
4.996000000000000085e+01,5.046599968847102768e-02
5.000000000000000000e+01,5.735427585305651749e-02
5.003999999999999915e+01,5.455041334701871830e-02
5.007999999999999829e+01,5.469361155935260205e-02
5.011999999999999744e+01,4.725119823059802798e-02
5.015999999999999659e+01,4.696890653597309007e-02
5.020000000000000284e+01,3.488792907112468755e-02
5.024000000000000199e+01,1.606394359464431015e-02
5.028000000000000114e+01,3.515546304611990441e-02
5.032000000000000028e+01,4.244828674233933063e-02
5.035999999999999943e+01,4.384070595638334122e-02
5.039999999999999858e+01,3.891141060266316287e-02
5.043999999999999773e+01,4.114221358466304407e-02
5.047999999999999687e+01,4.463481697261374032e-02
5.052000000000000313e+01,3.843524174981038238e-02
5.056000000000000227e+01,4.950711705156580350e-02
5.060000000000000142e+01,5.678510168730364904e-02
5.064000000000000057e+01,5.394959097001013337e-02
5.067999999999999972e+01,6.332983970530696449e-02
5.071999999999999886e+01,5.037869047078933488e-02
5.075999999999999801e+01,8.039868731103258503e-02
5.079999999999999716e+01,4.511399028581915965e-02
5.084000000000000341e+01,5.490696646490144522e-02
5.088000000000000256e+01,2.340972728478327852e-02
5.092000000000000171e+01,4.794413034063307183e-02
5.096000000000000085e+01,4.172098031171002364e-02
5.100000000000000000e+01,4.813486986586820032e-02
5.103999999999999915e+01,4.190739024008471869e-02
5.107999999999999829e+01,4.621040975447086169e-02
5.111999999999999744e+01,7.073398049730894588e-02
5.115999999999999659e+01,5.438861933978185459e-02
5.120000000000000284e+01,5.742118923952898440e-02
5.124000000000000199e+01,7.140555172331329581e-02
5.128000000000000114e+01,6.474369666944247703e-02
5.132000000000000028e+01,4.754698292344368415e-02
5.135999999999999943e+01,6.910829775459577384e-02
5.139999999999999858e+01,6.243986343265647831e-02
5.143999999999999773e+01,6.798712532476705594e-02
5.147999999999999687e+01,7.816655847218005604e-02
5.152000000000000313e+01,4.874095003586337294e-02
5.156000000000000227e+01,5.006852514732837434e-02
5.160000000000000142e+01,4.928735341314860463e-02
5.164000000000000057e+01,5.987924773680836088e-02
5.167999999999999972e+01,7.426068315955987320e-02
5.171999999999999886e+01,4.945836711410542957e-02
5.175999999999999801e+01,7.099756799276314700e-02
5.179999999999999716e+01,7.189050806529073689e-02
5.184000000000000341e+01,7.952212322424567770e-02
5.188000000000000256e+01,5.723872226099971372e-02
5.192000000000000171e+01,7.581983706430869829e-02
5.196000000000000085e+01,7.501859801984442355e-02
5.200000000000000000e+01,8.221994102016466632e-02
5.203999999999999915e+01,6.119148161388564267e-02
5.207999999999999829e+01,7.386530978762560762e-02
5.211999999999999744e+01,6.926330458643888133e-02
5.215999999999999659e+01,6.760818702972370975e-02
5.220000000000000284e+01,6.552949973117885851e-02
5.224000000000000199e+01,7.313860153633162942e-02
5.228000000000000114e+01,5.883748232348946783e-02
5.232000000000000028e+01,8.034516450682414879e-02
5.235999999999999943e+01,9.805880957699512901e-02
5.239999999999999858e+01,8.670000877097959469e-02
5.243999999999999773e+01,7.112585743786725700e-02
5.247999999999999687e+01,8.461958607164050961e-02
5.252000000000000313e+01,6.777693857246072651e-02
5.256000000000000227e+01,8.295131168419059287e-02
5.260000000000000142e+01,9.138248041197885585e-02
5.264000000000000057e+01,8.590822655432245325e-02
5.267999999999999972e+01,7.116292111256800057e-02
5.271999999999999886e+01,8.085110133794272402e-02
5.275999999999999801e+01,6.610118006172399641e-02
5.279999999999999716e+01,7.536343103870150884e-02
5.284000000000000341e+01,8.378075226309683599e-02
5.288000000000000256e+01,8.545484580514101092e-02
5.292000000000000171e+01,8.965445699587182293e-02
5.296000000000000085e+01,9.427304872072184150e-02
5.300000000000000000e+01,8.498618790502900089e-02
5.303999999999999915e+01,5.800211040524740069e-02
5.307999999999999829e+01,5.123842104505038630e-02
5.311999999999999744e+01,6.048204892364748148e-02
5.315999999999999659e+01,4.275970147374088398e-02
5.320000000000000284e+01,6.126738895368274984e-02
5.324000000000000199e+01,6.924005798097349063e-02
5.328000000000000114e+01,4.224191330707963848e-02
5.332000000000000028e+01,4.852464627728903662e-02
5.335999999999999943e+01,7.123598327347184511e-02
5.339999999999999858e+01,6.192564388414967952e-02
5.343999999999999773e+01,6.061776671921968035e-02
5.347999999999999687e+01,4.034871598668020309e-02
5.352000000000000313e+01,5.378183301376757153e-02
5.356000000000000227e+01,4.741115630206783893e-02
5.360000000000000142e+01,5.831167716076528229e-02
5.364000000000000057e+01,5.488538546816752045e-02
5.367999999999999972e+01,5.651238872918390443e-02
5.371999999999999886e+01,5.139609441262026762e-02
5.375999999999999801e+01,4.501348703431259923e-02
5.379999999999999716e+01,5.758728761365954768e-02
5.384000000000000341e+01,3.308369410877948918e-02
5.388000000000000256e+01,5.997712221270305039e-02
5.392000000000000171e+01,7.127979419518780391e-02
5.396000000000000085e+01,5.688034455401825423e-02
5.400000000000000000e+01,3.194581322165714055e-02
5.403999999999999915e+01,4.113471313769231918e-02
5.407999999999999829e+01,4.274610799508286874e-02
5.411999999999999744e+01,3.533444559004832175e-02
5.415999999999999659e+01,3.767978872714677907e-02
5.420000000000000284e+01,4.431855901656491653e-02
5.424000000000000199e+01,4.877433572813943269e-02
5.428000000000000114e+01,4.566837305533395786e-02
5.432000000000000028e+01,4.215319441636583564e-02
5.435999999999999943e+01,4.748648781675886277e-02
5.439999999999999858e+01,4.138401683933080194e-02
5.443999999999999773e+01,4.123412796053867874e-02
5.447999999999999687e+01,4.427371566627951588e-02
5.452000000000000313e+01,3.944351602285239150e-02
5.456000000000000227e+01,3.641578756457870825e-02
5.460000000000000142e+01,3.107261094455582642e-02
5.464000000000000057e+01,3.405742474773069267e-02
5.467999999999999972e+01,4.009600249233067487e-02
5.471999999999999886e+01,3.765625630757964831e-02
5.475999999999999801e+01,4.883481621081405682e-02
5.479999999999999716e+01,3.375042599832833029e-02
5.484000000000000341e+01,2.640323821093818607e-02
5.488000000000000256e+01,3.120800615269949882e-02
5.492000000000000171e+01,3.484533151747571528e-02
5.496000000000000085e+01,3.305963072436386707e-02
5.500000000000000000e+01,3.582333129469882083e-02
5.503999999999999915e+01,3.985536642817798930e-02
5.507999999999999829e+01,3.698572689487996529e-02
5.511999999999999744e+01,3.607889974110718018e-02
5.515999999999999659e+01,3.980892976270756362e-02
5.520000000000000284e+01,3.635653055607297734e-02
5.524000000000000199e+01,4.260593332506180941e-02
5.528000000000000114e+01,3.897705776648364984e-02
5.532000000000000028e+01,3.731952150575439109e-02
5.535999999999999943e+01,4.137567227109971435e-02
5.539999999999999858e+01,3.369487428041526705e-02
5.543999999999999773e+01,3.597361377026481871e-02
5.547999999999999687e+01,3.281590907171422211e-02
5.552000000000000313e+01,3.651129645991853939e-02
5.556000000000000227e+01,3.488745547172644040e-02
5.560000000000000142e+01,3.800366713928548384e-02
5.564000000000000057e+01,3.249817985068528814e-02
5.567999999999999972e+01,3.616089419222245221e-02
5.571999999999999886e+01,4.945838047223720391e-02
5.575999999999999801e+01,6.317461430227490349e-02
5.579999999999999716e+01,5.666556124900389013e-02
5.584000000000000341e+01,4.509826124488727078e-02
5.588000000000000256e+01,5.585765018248219776e-02
5.592000000000000171e+01,5.776702469734115719e-02
5.596000000000000085e+01,4.450678010245030791e-02
5.600000000000000000e+01,5.062406716352592373e-02
5.603999999999999915e+01,3.567343385673815703e-02
5.607999999999999829e+01,3.209549716158030530e-02
5.611999999999999744e+01,4.915900240909022029e-02
5.615999999999999659e+01,5.189548541961838679e-02
5.620000000000000284e+01,5.083761179593667551e-02
5.624000000000000199e+01,4.387884442347740610e-02
5.628000000000000114e+01,5.376974486510731344e-02
5.632000000000000028e+01,4.217139488321956786e-02
5.635999999999999943e+01,3.815395739935031894e-02
5.639999999999999858e+01,4.845833720106963033e-02
5.643999999999999773e+01,4.275044443841888309e-02
5.647999999999999687e+01,6.231833799302899379e-02
5.652000000000000313e+01,4.860037527955029385e-02
5.656000000000000227e+01,5.594512465419743813e-02
5.660000000000000142e+01,4.517105436487459103e-02
5.664000000000000057e+01,5.377446247801054985e-02
5.667999999999999972e+01,4.552296454222182903e-02
5.671999999999999886e+01,5.327848429424641985e-02
5.675999999999999801e+01,4.586431836963644065e-02
5.679999999999999716e+01,5.192932293268334026e-02
5.684000000000000341e+01,4.788031624934299679e-02
5.688000000000000256e+01,3.455990850576041995e-02
5.692000000000000171e+01,2.460729909093066492e-02
5.696000000000000085e+01,4.793526444087907457e-02
5.700000000000000000e+01,3.881994709709728208e-02
5.703999999999999915e+01,4.191985999917306749e-02
5.707999999999999829e+01,4.838755791662471828e-02
5.711999999999999744e+01,3.336593884367413526e-02
5.715999999999999659e+01,4.109220896266463363e-02
5.720000000000000284e+01,4.544534599608394260e-02
5.724000000000000199e+01,4.937449391630042289e-02
5.728000000000000114e+01,4.908788857976814635e-02
5.732000000000000028e+01,4.163637935743017687e-02
5.735999999999999943e+01,3.376087103685675161e-02
5.739999999999999858e+01,6.169374141274291956e-02
5.743999999999999773e+01,6.223897357004790076e-02
5.747999999999999687e+01,5.014230068399005286e-02
5.752000000000000313e+01,6.121479379201978654e-02
5.756000000000000227e+01,5.290446708408393095e-02
5.760000000000000142e+01,7.029114025701493906e-02
5.764000000000000057e+01,6.745237344280273495e-02
5.767999999999999972e+01,5.829128630217611517e-02
5.771999999999999886e+01,7.061412148493725893e-02
5.775999999999999801e+01,6.439673372450095690e-02
5.779999999999999716e+01,7.545019405831769610e-02
5.784000000000000341e+01,1.113580207884465878e-01
5.788000000000000256e+01,8.659493886588107148e-02
5.792000000000000171e+01,9.679757885681089524e-02
5.796000000000000085e+01,6.950117518681304951e-02
5.800000000000000000e+01,9.486537057789694305e-02
5.803999999999999915e+01,8.905011701003456848e-02
5.807999999999999829e+01,8.491733821996370890e-02
5.811999999999999744e+01,1.001619146836151969e-01
5.815999999999999659e+01,1.027645295220518118e-01
5.820000000000000284e+01,1.062069956387580449e-01
5.824000000000000199e+01,1.332398745966002496e-01
5.828000000000000114e+01,1.446816346434825207e-01
5.832000000000000028e+01,1.468518738097302212e-01
5.835999999999999943e+01,1.536537117560723420e-01
5.839999999999999858e+01,1.545544762230485480e-01
5.843999999999999773e+01,1.449197895526235236e-01
5.847999999999999687e+01,1.218005011157406725e-01
5.852000000000000313e+01,1.222716022215842024e-01
5.856000000000000227e+01,1.387495679114063296e-01
5.860000000000000142e+01,1.261545718316861853e-01
5.864000000000000057e+01,1.021814944583542967e-01
5.867999999999999972e+01,9.379396492672363583e-02
5.871999999999999886e+01,1.009919799084501857e-01
5.875999999999999801e+01,6.226474951747151820e-02
5.879999999999999716e+01,7.704066513517929260e-02
5.884000000000000341e+01,6.864189361470435236e-02
5.888000000000000256e+01,5.349939516024357355e-02
5.892000000000000171e+01,6.573901378026845987e-02
5.896000000000000085e+01,4.848433391840834689e-02
5.900000000000000000e+01,5.271346987292069991e-02
5.903999999999999915e+01,4.008750340619864072e-02
5.907999999999999829e+01,5.020926637089454664e-02
5.911999999999999744e+01,4.811029458735882613e-02
5.915999999999999659e+01,5.106416177427743758e-02
5.920000000000000284e+01,2.368109699475623789e-02
5.924000000000000199e+01,4.516676728244398142e-02
5.928000000000000114e+01,3.968595300496048639e-02
5.932000000000000028e+01,2.451222788099199218e-02
5.935999999999999943e+01,3.924842376319077203e-02
5.939999999999999858e+01,3.080988591038754179e-02
5.943999999999999773e+01,3.711421914625576135e-02
5.947999999999999687e+01,3.372562822226216755e-02
5.952000000000000313e+01,1.095405439343562735e-02
5.956000000000000227e+01,3.199550791812839912e-02
5.960000000000000142e+01,2.607045025089612875e-02
5.964000000000000057e+01,2.435557809949831856e-02
5.967999999999999972e+01,2.895742192181380639e-02
5.971999999999999886e+01,3.524160405980723137e-02
5.975999999999999801e+01,4.320812118513459033e-02
5.979999999999999716e+01,1.830981587539088837e-02
5.984000000000000341e+01,4.143758219320312769e-02
5.988000000000000256e+01,2.959398563303266075e-02
5.992000000000000171e+01,2.280316480477617702e-02
5.996000000000000085e+01,2.317165016631270863e-02
