2.003999999999999915e+01,2.813499336161164391e-02
2.007999999999999829e+01,3.456547148642279826e-02
2.012000000000000099e+01,4.622024525148405588e-02
2.016000000000000014e+01,3.548603277494383201e-02
2.019999999999999929e+01,5.634555108597558842e-02
2.023999999999999844e+01,4.809933581746599074e-02
2.028000000000000114e+01,3.363406782822833674e-02
2.032000000000000028e+01,4.703100099840478582e-02
2.035999999999999943e+01,5.022858529290464419e-02
2.039999999999999858e+01,4.919725789386486525e-02
2.044000000000000128e+01,4.617593164298021413e-02
2.048000000000000043e+01,4.663750714366270839e-02
2.051999999999999957e+01,3.515834869284244213e-02
2.055999999999999872e+01,4.731231990683931049e-02
2.060000000000000142e+01,7.140730942302689344e-02
2.064000000000000057e+01,9.774135219368126903e-02
2.067999999999999972e+01,1.071592881752900933e-01
2.071999999999999886e+01,1.056315545499906666e-01
2.076000000000000156e+01,1.041039542871782103e-01
2.080000000000000071e+01,8.118241273907379763e-02
2.083999999999999986e+01,4.408120853462971223e-02
2.087999999999999901e+01,5.573871712008218737e-02
2.092000000000000171e+01,4.102691334527112932e-02
2.096000000000000085e+01,4.596792897975719022e-02
2.100000000000000000e+01,3.847065293315816287e-02
2.103999999999999915e+01,4.017792461747266008e-02
2.107999999999999829e+01,5.880155924037856058e-02
2.112000000000000099e+01,3.314455585603673371e-02
2.116000000000000014e+01,6.619698449810688945e-02
2.119999999999999929e+01,2.063874767570982732e-02
2.123999999999999844e+01,2.334167120134071974e-02
2.128000000000000114e+01,4.644370490378644384e-02
2.132000000000000028e+01,3.969365256917432166e-02
2.135999999999999943e+01,2.672449992440640090e-02
2.139999999999999858e+01,4.186626913898802010e-02
2.144000000000000128e+01,4.954509307145654740e-02
2.148000000000000043e+01,4.329299443580593432e-02
2.151999999999999957e+01,6.017644658453328438e-02
2.155999999999999872e+01,2.506742436747852118e-02
2.160000000000000142e+01,2.503482729907682489e-02
2.164000000000000057e+01,1.331021521653638455e-02
2.167999999999999972e+01,4.686152462138406388e-02
2.171999999999999886e+01,2.369375511226948228e-02
2.176000000000000156e+01,3.659747685897400682e-02
2.180000000000000071e+01,4.775990811576914102e-02
2.183999999999999986e+01,3.752835226041611322e-02
2.187999999999999901e+01,4.172544119859766115e-02
2.192000000000000171e+01,3.646941738890648738e-02
2.196000000000000085e+01,1.081447433680448808e-02
2.200000000000000000e+01,4.809798721628402718e-02
2.203999999999999915e+01,4.209589470682517653e-02
2.207999999999999829e+01,3.758648713117468398e-02
2.212000000000000099e+01,4.874955522044459311e-02
2.216000000000000014e+01,4.822058538214759466e-02
2.219999999999999929e+01,6.062763650063682924e-02
2.223999999999999844e+01,4.243625617483760826e-02
2.228000000000000114e+01,4.265379564666499368e-02
2.232000000000000028e+01,4.958814355349256547e-02
2.235999999999999943e+01,3.537724972410698915e-02
2.239999999999999858e+01,3.136591685565887078e-02
2.244000000000000128e+01,3.655907002812548712e-02
2.248000000000000043e+01,2.085574446602743090e-02
2.251999999999999957e+01,4.346279127515798035e-02
2.255999999999999872e+01,2.601819754363945969e-02
2.260000000000000142e+01,2.325098516873321669e-02
2.264000000000000057e+01,3.142962804742520377e-02
2.267999999999999972e+01,4.756890494478893672e-02
2.271999999999999886e+01,1.146688807243722609e-02
2.276000000000000156e+01,4.128851311516475858e-02
2.280000000000000071e+01,5.435353237438975138e-03
2.283999999999999986e+01,2.630140504322308476e-02
2.287999999999999901e+01,4.517735048030722261e-02
2.292000000000000171e+01,2.524548096041429046e-02
2.296000000000000085e+01,1.526437943609659786e-02
2.300000000000000000e+01,3.513550729381270665e-02
2.303999999999999915e+01,8.984534515314205119e-03
2.307999999999999829e+01,4.253798231725180318e-02
2.312000000000000099e+01,3.802991121744409703e-02
2.316000000000000014e+01,2.158098983642152413e-02
2.319999999999999929e+01,1.359021613936834370e-02
2.323999999999999844e+01,2.624723454249448112e-02
2.328000000000000114e+01,3.766043381929497225e-02
2.332000000000000028e+01,3.290371484542636837e-02
2.335999999999999943e+01,2.143027085410616206e-02
2.339999999999999858e+01,2.314156323179324473e-02
2.344000000000000128e+01,1.490213930516873404e-02
2.348000000000000043e+01,1.984744822240856049e-02
2.351999999999999957e+01,5.439619531889128973e-02
2.355999999999999872e+01,3.944006281465081698e-02
2.360000000000000142e+01,2.796669458140866107e-02
2.364000000000000057e+01,1.873224740977870104e-02
2.367999999999999972e+01,1.173671953718963788e-02
2.371999999999999886e+01,4.006629168633265431e-02
2.376000000000000156e+01,1.789590226444397192e-02
2.380000000000000071e+01,4.224518236047403869e-02
2.383999999999999986e+01,2.654276551357051886e-02
2.387999999999999901e+01,3.099057598697797788e-02
2.392000000000000171e+01,2.648272216266850040e-02
2.396000000000000085e+01,2.247239727386013061e-02
2.400000000000000000e+01,3.015417257931073819e-02
2.403999999999999915e+01,5.027435118453755375e-02
2.407999999999999829e+01,1.740687122453290353e-02
2.412000000000000099e+01,2.533737602652967602e-02
2.416000000000000014e+01,2.829249858518710636e-02
2.419999999999999929e+01,3.025252976773991007e-02
2.423999999999999844e+01,2.748594347117349138e-02
2.428000000000000114e+01,1.750505503928783194e-02
2.432000000000000028e+01,1.498719178192112027e-02
2.435999999999999943e+01,2.739540061738839072e-02
2.439999999999999858e+01,2.487748505957285139e-02
2.444000000000000128e+01,2.584229675875608645e-02
2.448000000000000043e+01,2.407062671829479639e-02
2.451999999999999957e+01,1.607971712453734603e-02
2.455999999999999872e+01,2.873654146610294530e-02
2.460000000000000142e+01,5.457804929953382483e-02
2.464000000000000057e+01,3.414861770453135603e-02
2.467999999999999972e+01,3.834720738694356867e-02
2.471999999999999886e+01,4.801865830325794532e-02
2.476000000000000156e+01,2.336004239284287035e-02
2.480000000000000071e+01,2.755850339129708657e-02
2.483999999999999986e+01,3.648351546785053717e-02
2.487999999999999901e+01,4.665232080885158700e-02
2.492000000000000171e+01,2.423243029837765863e-02
2.496000000000000085e+01,2.718685359540733842e-02
2.500000000000000000e+01,2.790230881809014490e-02
2.503999999999999915e+01,5.299700116568221292e-02
2.507999999999999829e+01,3.405964930082158032e-02
2.512000000000000099e+01,3.999906761445327918e-02
2.516000000000000014e+01,2.379804765442232461e-02
2.519999999999999929e+01,4.540974539461053311e-02
2.523999999999999844e+01,2.721845279122910716e-02
2.528000000000000114e+01,3.614283792032029624e-02
2.532000000000000028e+01,3.412135074679276125e-02
2.535999999999999943e+01,2.065645292934937399e-02
2.539999999999999858e+01,2.261511795660935131e-02
2.544000000000000128e+01,4.447517327453286845e-02
2.548000000000000043e+01,3.598542266924779909e-02
2.551999999999999957e+01,5.038227830183793915e-02
2.555999999999999872e+01,3.990222685206008119e-02
2.560000000000000142e+01,3.962159535750810202e-02
2.564000000000000057e+01,2.764877259167747292e-02
2.567999999999999972e+01,4.602559769432303799e-02
2.571999999999999886e+01,3.902797208558900222e-02
2.576000000000000156e+01,4.670758859032708710e-02
2.580000000000000071e+01,3.523195809261472217e-02
2.583999999999999986e+01,3.296066381724852001e-02
2.587999999999999901e+01,3.641094795057663036e-02
2.592000000000000171e+01,5.553354030454268203e-02
2.596000000000000085e+01,3.137035453757384962e-02
2.600000000000000000e+01,6.815530213014363292e-02
2.603999999999999915e+01,4.498699268932305345e-02
2.607999999999999829e+01,7.381115466583471063e-02
2.612000000000000099e+01,9.492339685001710547e-02
2.616000000000000014e+01,7.001340091741582727e-02
2.619999999999999929e+01,8.515499322501468571e-02
2.623999999999999844e+01,1.010427822909078649e-01
2.628000000000000114e+01,1.241447418759586696e-01
2.632000000000000028e+01,1.457539800898950966e-01
2.635999999999999943e+01,1.713433975361290384e-01
2.639999999999999858e+01,2.240484433628365801e-01
2.644000000000000128e+01,2.884454818669478504e-01
2.648000000000000043e+01,4.219999861287161425e-01
2.651999999999999957e+01,5.650075649384794785e-01
2.655999999999999872e+01,8.187169103043572260e-01
2.660000000000000142e+01,9.637143892457211702e-01
2.664000000000000057e+01,1.000000000000000000e+00
2.667999999999999972e+01,8.822979121405789549e-01
2.671999999999999886e+01,6.822533912413947244e-01
2.676000000000000156e+01,4.824575076083510439e-01
2.680000000000000071e+01,3.781885143048577258e-01
2.683999999999999986e+01,2.995425202573754886e-01
2.687999999999999901e+01,2.786106330311438617e-01
2.692000000000000171e+01,2.425037420802685362e-01
2.696000000000000085e+01,1.927144553783556036e-01
2.700000000000000000e+01,1.429250270777919773e-01
2.703999999999999915e+01,1.239827232970026755e-01
2.707999999999999829e+01,1.025525914987907850e-01
2.712000000000000099e+01,8.958043465255177695e-02
2.716000000000000014e+01,8.133472665527094470e-02
2.719999999999999929e+01,6.288936838260431039e-02
2.723999999999999844e+01,7.330097950195196832e-02
2.728000000000000114e+01,7.550308313567420659e-02
2.732000000000000028e+01,5.208189726579810080e-02
2.735999999999999943e+01,5.378615115977907618e-02
2.739999999999999858e+01,6.369959937837023356e-02
2.744000000000000128e+01,7.137397200575909539e-02
2.748000000000000043e+01,6.959498688785127618e-02
2.751999999999999957e+01,7.726903225365341910e-02
2.755999999999999872e+01,7.126065542984727497e-02
2.760000000000000142e+01,4.908217176023219053e-02
2.764000000000000057e+01,5.899462761863498439e-02
2.767999999999999972e+01,5.870741205079522962e-02
2.771999999999999886e+01,4.921559645159311741e-02
2.776000000000000156e+01,2.554381327119970707e-02
2.780000000000000071e+01,1.256888968333108418e-02
2.783999999999999986e+01,3.815287233405806333e-02
2.787999999999999901e+01,3.114802870302670057e-02
2.792000000000000171e+01,4.479077095132111969e-02
2.796000000000000085e+01,2.435207365653714595e-02
2.800000000000000000e+01,4.446242186496620480e-02
2.803999999999999915e+01,3.745683910733456357e-02
2.807999999999999829e+01,4.637223768084845071e-02
2.812000000000000099e+01,5.727759161861527282e-02
2.816000000000000014e+01,4.853005798349379479e-02
2.819999999999999929e+01,5.023059802582013900e-02
2.823999999999999844e+01,4.571173459571037379e-02
2.828000000000000114e+01,4.989956329236587551e-02
2.832000000000000028e+01,2.622514381687227406e-02
2.835999999999999943e+01,4.260221740272343571e-02
2.839999999999999858e+01,3.211211244873415915e-02
2.844000000000000128e+01,4.724493624790003510e-02
2.848000000000000043e+01,2.580861469693059712e-02
2.851999999999999957e+01,2.402477942926443608e-02
2.855999999999999872e+01,2.348457526947735421e-02
2.860000000000000142e+01,1.448603716984572277e-02
2.864000000000000057e+01,1.817446796364273823e-02
2.867999999999999972e+01,2.559420747123321641e-02
2.871999999999999886e+01,1.211719328312140138e-02
2.876000000000000156e+01,2.525816690504492298e-02
2.880000000000000071e+01,2.869695632745254341e-02
2.883999999999999986e+01,2.492124268140176804e-02
2.887999999999999901e+01,0.000000000000000000e+00
2.892000000000000171e+01,3.279277424870759294e-02
2.896000000000000085e+01,8.866150558030194695e-03
2.900000000000000000e+01,2.648360146373238827e-02
2.903999999999999915e+01,5.056879640307718193e-02
2.907999999999999829e+01,4.903062428568237541e-02
2.912000000000000099e+01,5.520403412360179451e-02
2.916000000000000014e+01,4.097820745625913724e-02
2.919999999999999929e+01,4.739991026595753026e-02
2.923999999999999844e+01,7.247899447522258842e-02
2.928000000000000114e+01,7.790514175960003285e-02
2.932000000000000028e+01,1.348260811143008886e-01
2.935999999999999943e+01,1.524413851593041380e-01
2.939999999999999858e+01,1.409505519959162734e-01
2.944000000000000128e+01,1.160259820914268936e-01
2.948000000000000043e+01,7.517999078963623349e-02
2.951999999999999957e+01,1.159297457582199875e-01
2.955999999999999872e+01,8.005861319981764923e-02
2.960000000000000142e+01,6.035716328421075055e-02
2.964000000000000057e+01,1.016036863341454183e-01
2.967999999999999972e+01,1.060322428674398687e-01
2.971999999999999886e+01,1.549900617431834160e-01
2.976000000000000156e+01,1.646422276835153298e-01
2.980000000000000071e+01,1.879763845601569450e-01
2.983999999999999986e+01,1.941452627295399136e-01
2.987999999999999901e+01,1.858853116120847693e-01
2.992000000000000171e+01,1.783713950963554395e-01
2.996000000000000085e+01,1.474729873515817358e-01
3.000000000000000000e+01,9.493146464073207169e-02
3.003999999999999915e+01,1.048305070058873356e-01
3.007999999999999829e+01,7.492634575633397298e-02
3.012000000000000099e+01,8.233714883199234891e-02
3.016000000000000014e+01,4.745706187417059185e-02
3.019999999999999929e+01,3.819982611636245362e-02
3.023999999999999844e+01,3.466397664696659747e-02
3.028000000000000114e+01,2.814262157571077727e-02
3.032000000000000028e+01,3.430816136988492498e-02
3.035999999999999943e+01,4.967783821583728054e-02
3.039999999999999858e+01,4.962358970407183129e-02
3.044000000000000128e+01,7.021681602963406044e-02
3.048000000000000043e+01,8.757575965111664973e-02
3.051999999999999957e+01,1.663801740402958140e-01
3.055999999999999872e+01,3.422039228134915456e-01
3.060000000000000142e+01,6.048475043442543830e-01
3.064000000000000057e+01,7.326583710476904931e-01
3.067999999999999972e+01,6.524986440885428562e-01
3.071999999999999886e+01,4.790505031005262704e-01
3.076000000000000156e+01,2.929148720746408419e-01
3.080000000000000071e+01,1.916089186785625564e-01
3.083999999999999986e+01,1.049799835493890054e-01
3.087999999999999901e+01,9.372752752909059570e-02
3.092000000000000171e+01,7.874323283770143234e-02
3.096000000000000085e+01,4.808621982323180860e-02
3.100000000000000000e+01,9.031799773629449468e-02
3.103999999999999915e+01,6.886477395409897062e-02
3.107999999999999829e+01,7.402943575279789801e-02
3.112000000000000099e+01,8.740312795696705828e-02
3.116000000000000014e+01,9.604989775716547828e-02
3.119999999999999929e+01,9.275546299929840477e-02
3.123999999999999844e+01,8.846562665276092030e-02
3.128000000000000114e+01,1.202468620700501700e-01
3.132000000000000028e+01,9.928888818604801603e-02
3.135999999999999943e+01,6.912615387668652467e-02
3.139999999999999858e+01,6.657636420509971398e-02
3.144000000000000128e+01,5.755826176600226801e-02
3.148000000000000043e+01,5.252011295006361186e-02
3.151999999999999957e+01,7.534367177354844847e-02
3.155999999999999872e+01,6.532947386934355449e-02
3.160000000000000142e+01,8.541589468368526727e-02
3.164000000000000057e+01,1.433147494242512643e-01
3.167999999999999972e+01,2.499718410604366281e-01
3.171999999999999886e+01,4.001630337530497350e-01
3.176000000000000156e+01,4.876642661815711599e-01
3.180000000000000071e+01,4.104805379446501701e-01
3.183999999999999986e+01,3.280723207613190362e-01
3.187999999999999901e+01,2.048657474901149911e-01
3.192000000000000171e+01,1.381292175093511987e-01
3.196000000000000085e+01,8.084552236687261861e-02
3.200000000000000000e+01,7.431019633434540750e-02
3.203999999999999915e+01,6.503805543617972862e-02
3.207999999999999829e+01,1.199597927637568034e-01
3.211999999999999744e+01,1.754635831310027150e-01
3.215999999999999659e+01,1.306662546706319206e-01
3.220000000000000284e+01,1.410828488248311308e-01
3.224000000000000199e+01,2.136316536296763435e-01
3.228000000000000114e+01,1.248986437034318303e-01
3.232000000000000028e+01,1.063708725878007577e-01
3.235999999999999943e+01,1.249507407421221877e-01
3.239999999999999858e+01,1.749320846509145599e-01
3.243999999999999773e+01,1.027793629533695491e-01
3.247999999999999687e+01,6.373420842584637258e-02
3.252000000000000313e+01,1.021572948671685271e-01
3.256000000000000227e+01,1.462118590289812059e-01
3.260000000000000142e+01,1.138186870771958625e-01
3.264000000000000057e+01,1.373905899547650522e-01
3.267999999999999972e+01,7.310301393651488788e-02
3.271999999999999886e+01,1.895138996242791696e-01
3.275999999999999801e+01,1.358558312071636021e-01
3.279999999999999716e+01,1.359737561117160543e-01
3.284000000000000341e+01,1.162517814610118938e-01
3.288000000000000256e+01,1.483802611536731431e-01
3.292000000000000171e+01,1.100389791174069265e-01
3.296000000000000085e+01,1.066252125069951096e-01
3.300000000000000000e+01,1.582226511754360465e-01
3.303999999999999915e+01,9.791806693839882891e-02
3.307999999999999829e+01,1.114664683269438461e-01
3.311999999999999744e+01,3.821185174754829217e-02
3.315999999999999659e+01,1.014863465293510125e-01
3.320000000000000284e+01,4.603026581176705712e-02
3.324000000000000199e+01,6.286235354164573796e-02
3.328000000000000114e+01,7.767960660085304614e-02
3.332000000000000028e+01,2.195193227330049235e-01
3.335999999999999943e+01,1.757428328816776908e-01
3.339999999999999858e+01,1.324222987686369535e-01
3.343999999999999773e+01,1.313744478573100061e-01
3.347999999999999687e+01,1.799293403503261779e-01
3.352000000000000313e+01,2.213422495467159967e-04
3.356000000000000227e+01,4.629424614392746440e-02
3.360000000000000142e+01,1.113281007151384477e-01
3.364000000000000057e+01,7.194055145701226672e-02
3.367999999999999972e+01,1.813356698165543290e-01
3.371999999999999886e+01,2.364776495902371489e-01
3.375999999999999801e+01,2.878876655502599080e-01
3.379999999999999716e+01,3.559647156618072072e-01
3.384000000000000341e+01,4.481718468431937774e-01
3.388000000000000256e+01,4.839081315782765014e-01
3.392000000000000171e+01,5.007375797982781540e-01
3.396000000000000085e+01,4.665690804128164171e-01
3.400000000000000000e+01,4.057819240168818453e-01
3.403999999999999915e+01,3.313120598947724149e-01
3.407999999999999829e+01,2.662949371946642385e-01
3.411999999999999744e+01,2.249103466476699287e-01
3.415999999999999659e+01,1.586484700654570978e-01
3.420000000000000284e+01,1.299501463155364467e-01
3.424000000000000199e+01,1.126947032522344905e-01
3.428000000000000114e+01,9.618510267037609640e-02
3.432000000000000028e+01,6.126618452644860130e-02
3.435999999999999943e+01,6.764233650497063211e-02
3.439999999999999858e+01,4.938996016220872920e-02
3.443999999999999773e+01,5.029227266345783626e-02
3.447999999999999687e+01,6.213991869717142708e-02
3.452000000000000313e+01,2.298959244942209990e-02
3.456000000000000227e+01,2.264664461763665065e-02
3.460000000000000142e+01,3.722931766040760149e-02
3.464000000000000057e+01,3.240758588308661342e-02
3.467999999999999972e+01,3.977502027218762781e-02
3.471999999999999886e+01,3.893261933738337288e-02
3.475999999999999801e+01,4.406017380978644732e-02
3.479999999999999716e+01,1.709613365430530038e-02
3.484000000000000341e+01,3.341728878532006924e-02
3.488000000000000256e+01,2.187590668247679435e-02
3.492000000000000171e+01,2.924042398342472857e-02
3.496000000000000085e+01,2.565864420204746685e-02
3.500000000000000000e+01,1.585716307366810338e-02
3.503999999999999915e+01,3.391723447842938388e-02
3.507999999999999829e+01,1.789555260240369497e-02
3.511999999999999744e+01,3.197433433864167035e-02
3.515999999999999659e+01,1.943440794983627290e-02
3.520000000000000284e+01,2.356145402255638288e-02
3.524000000000000199e+01,1.226436146641973757e-02
3.528000000000000114e+01,1.489778666367419513e-02
3.532000000000000028e+01,2.374991088149925461e-02
3.535999999999999943e+01,1.668035460402759670e-02
3.539999999999999858e+01,2.229746934541853090e-02
3.543999999999999773e+01,1.821210730044183629e-02
3.547999999999999687e+01,8.155791046969148098e-03
3.552000000000000313e+01,1.352259170763656267e-02
3.556000000000000227e+01,1.117705660912509183e-02
3.560000000000000142e+01,1.579651306127314095e-02
3.564000000000000057e+01,2.489327640788042278e-02
3.567999999999999972e+01,2.777030844377197105e-02
3.571999999999999886e+01,1.845716846166733580e-02
3.575999999999999801e+01,1.362133008630782988e-02
3.579999999999999716e+01,2.794012062753169559e-02
3.584000000000000341e+01,1.613770965872415517e-02
3.588000000000000256e+01,1.204658277066489661e-02
3.592000000000000171e+01,2.014456740931437617e-02
3.596000000000000085e+01,2.077896695243387076e-02
3.600000000000000000e+01,1.793007226725814099e-02
3.603999999999999915e+01,2.428506434872236899e-02
3.607999999999999829e+01,1.272819789370165447e-02
3.611999999999999744e+01,9.628909812089508219e-03
3.615999999999999659e+01,1.747488123494326737e-02
3.620000000000000284e+01,1.362819606766991869e-02
3.624000000000000199e+01,2.520459608825140196e-02
3.628000000000000114e+01,2.682971401910309514e-02
3.632000000000000028e+01,2.845427967216855938e-02
3.635999999999999943e+01,1.589849879119246620e-02
3.639999999999999858e+01,1.876579604778568292e-02
3.643999999999999773e+01,7.203974955831754165e-03
3.647999999999999687e+01,2.275733807635944503e-02
3.652000000000000313e+01,6.219030778433022426e-03
3.656000000000000227e+01,1.903481877211134210e-02
3.660000000000000142e+01,1.916285939249699061e-02
3.664000000000000057e+01,1.978787021325100967e-02
3.667999999999999972e+01,1.941723973562483122e-02
3.671999999999999886e+01,1.257806383106359338e-02
3.675999999999999801e+01,1.767919414984892718e-02
3.679999999999999716e+01,6.609812231404379665e-03
3.684000000000000341e+01,2.787973273891929810e-02
3.688000000000000256e+01,9.594918283951182902e-03
3.692000000000000171e+01,1.394743944464760070e-02
3.696000000000000085e+01,1.829938012641553827e-02
3.700000000000000000e+01,3.334777500928721300e-02
3.703999999999999915e+01,3.172811050077477962e-02
3.707999999999999829e+01,4.801917705974673850e-02
3.711999999999999744e+01,4.241804662557147054e-02
3.715999999999999659e+01,4.626952189540001897e-02
3.720000000000000284e+01,9.315732017064909387e-02
3.724000000000000199e+01,1.293474891863662102e-01
3.728000000000000114e+01,2.068325996568209646e-01
3.732000000000000028e+01,1.882925540911345452e-01
3.735999999999999943e+01,1.488553741143240905e-01
3.739999999999999858e+01,1.091688259809368011e-01
3.743999999999999773e+01,9.187082226042302124e-02
3.747999999999999687e+01,5.889981291769137012e-02
3.752000000000000313e+01,4.135183236052998590e-02
3.756000000000000227e+01,5.614312250304290264e-02
3.760000000000000142e+01,2.814565819507032843e-02
3.764000000000000057e+01,3.572144882334674088e-02
3.767999999999999972e+01,3.558481027616026970e-02
3.771999999999999886e+01,4.514952104634088054e-02
3.775999999999999801e+01,7.038601831602622760e-02
3.779999999999999716e+01,7.970072757355969872e-02
3.784000000000000341e+01,8.702467126069084180e-02
3.788000000000000256e+01,1.152445302362328783e-01
3.792000000000000171e+01,1.591361686609940873e-01
3.796000000000000085e+01,1.751651341338997248e-01
3.800000000000000000e+01,1.630826566030155744e-01
3.803999999999999915e+01,1.577162948165727885e-01
3.807999999999999829e+01,1.319503034714464562e-01
3.811999999999999744e+01,1.191196315796907712e-01
3.815999999999999659e+01,1.033031068595100521e-01
3.820000000000000284e+01,6.335542295248855482e-02
3.824000000000000199e+01,4.529871162818688984e-02
3.828000000000000114e+01,4.764036138785642666e-02
3.832000000000000028e+01,3.480650509003453685e-02
3.835999999999999943e+01,3.689810398505778688e-02
3.839999999999999858e+01,3.699891263367922206e-02
3.843999999999999773e+01,3.361631953715022575e-02
3.847999999999999687e+01,2.874046924780232493e-02
3.852000000000000313e+01,4.500927433508586373e-02
3.856000000000000227e+01,4.162473358091777625e-02
3.860000000000000142e+01,2.505482074616153729e-02
3.864000000000000057e+01,2.689310681733085226e-02
3.867999999999999972e+01,3.047211464454179647e-02
3.871999999999999886e+01,2.036820852472450913e-02
3.875999999999999801e+01,1.673161813370062367e-02
3.879999999999999716e+01,3.672735367493725617e-02
3.884000000000000341e+01,4.229386511334284893e-02
3.888000000000000256e+01,4.338188226086112792e-02
3.892000000000000171e+01,4.770322032516976368e-02
3.896000000000000085e+01,6.918890174801856086e-02
3.900000000000000000e+01,7.276259596667050689e-02
3.903999999999999915e+01,8.056467897185011495e-02
3.907999999999999829e+01,7.443506387749622422e-02
3.911999999999999744e+01,7.352890720197874375e-02
3.915999999999999659e+01,1.131713042722547330e-01
3.920000000000000284e+01,1.560470099213212836e-01
3.924000000000000199e+01,1.735476691098764568e-01
3.928000000000000114e+01,2.208998403139071920e-01
3.932000000000000028e+01,1.759582916936699160e-01
3.935999999999999943e+01,1.904716779979477304e-01
3.939999999999999858e+01,2.594646316769116945e-01
3.943999999999999773e+01,4.107991993766325067e-01
3.947999999999999687e+01,5.128769542615773114e-01
3.952000000000000313e+01,4.139492380578204678e-01
3.956000000000000227e+01,3.640281798124807566e-01
3.960000000000000142e+01,2.854980714817696441e-01
3.964000000000000057e+01,1.875633380095422520e-01
3.967999999999999972e+01,1.279382207654141401e-01
3.971999999999999886e+01,8.473110852288104344e-02
3.975999999999999801e+01,8.605281621737641273e-02
3.979999999999999716e+01,9.608070841807467288e-02
3.984000000000000341e+01,8.819657640057683434e-02
3.988000000000000256e+01,1.452402587601492323e-01
3.992000000000000171e+01,2.980590216152169125e-01
3.996000000000000085e+01,5.469016314925716493e-01
4.000000000000000000e+01,7.081770890798390061e-01
4.003999999999999915e+01,6.296391995243680872e-01
4.007999999999999829e+01,5.175168729454114880e-01
4.011999999999999744e+01,4.016623023039427864e-01
4.015999999999999659e+01,2.442627058542335972e-01
4.020000000000000284e+01,1.488056902086688782e-01
4.024000000000000199e+01,8.618536374922076970e-02
4.028000000000000114e+01,7.182535865381609042e-02
4.032000000000000028e+01,6.567397857246055903e-02
4.035999999999999943e+01,4.210808793820642465e-02
4.039999999999999858e+01,4.267198931208265877e-02
4.043999999999999773e+01,7.283858329750111937e-02
4.047999999999999687e+01,7.215717381671145347e-02
4.052000000000000313e+01,1.202336117032627716e-01
4.056000000000000227e+01,1.735334445560801908e-01
4.060000000000000142e+01,2.579285727063315714e-01
4.064000000000000057e+01,2.883402394293417270e-01
4.067999999999999972e+01,2.545689430986616264e-01
4.071999999999999886e+01,2.369668394159286373e-01
4.075999999999999801e+01,1.820487444055530479e-01
4.079999999999999716e+01,1.758884844245184875e-01
4.084000000000000341e+01,1.873900215398941749e-01
4.088000000000000256e+01,1.926715982102726044e-01
4.092000000000000171e+01,1.972061150390655715e-01
4.096000000000000085e+01,1.838285582976633414e-01
4.100000000000000000e+01,1.391054385978991170e-01
4.103999999999999915e+01,1.209997655987517101e-01
4.107999999999999829e+01,7.353867243100259410e-02
4.111999999999999744e+01,4.423690060038956706e-02
4.115999999999999659e+01,5.523482609763735729e-02
4.120000000000000284e+01,3.712609442793207704e-02
4.124000000000000199e+01,4.787371525025248264e-02
4.128000000000000114e+01,2.404177301449368295e-02
4.132000000000000028e+01,1.911544817110278488e-02
4.135999999999999943e+01,2.389031225108197154e-02
4.139999999999999858e+01,2.642548560244170966e-02
4.143999999999999773e+01,2.124806409662730045e-02
4.147999999999999687e+01,2.527428964774295836e-02
4.152000000000000313e+01,2.905096549742813145e-02
4.156000000000000227e+01,2.237859001923327498e-02
4.160000000000000142e+01,2.839261236133459876e-02
4.164000000000000057e+01,3.266446997811391084e-02
4.167999999999999972e+01,2.723357584738776010e-02
4.171999999999999886e+01,2.777233043644588423e-02
4.175999999999999801e+01,1.811079317413005416e-02
4.179999999999999716e+01,3.680804714911451586e-02
4.184000000000000341e+01,3.386166443688987115e-02
4.188000000000000256e+01,3.564108194734957880e-02
4.192000000000000171e+01,5.607732212224333240e-02
4.196000000000000085e+01,5.760637150520542954e-02
4.200000000000000000e+01,7.455825226574132325e-02
4.203999999999999915e+01,6.812510950067099391e-02
4.207999999999999829e+01,7.761233116675753108e-02
4.211999999999999744e+01,6.645097696508656115e-02
4.215999999999999659e+01,6.424447156726918740e-02
4.220000000000000284e+01,6.278345966175888360e-02
4.224000000000000199e+01,3.719111054969680835e-02
4.228000000000000114e+01,4.866442165177899126e-02
4.232000000000000028e+01,4.023545294133543809e-02
4.235999999999999943e+01,3.777610474953384950e-02
4.239999999999999858e+01,1.740461953496669212e-02
4.243999999999999773e+01,2.190914130547735525e-02
4.247999999999999687e+01,2.840298567710981131e-02
4.252000000000000313e+01,2.892556562768059877e-02
4.256000000000000227e+01,2.273057452652969129e-02
4.260000000000000142e+01,2.101258363241507304e-02
4.264000000000000057e+01,3.869768854453799894e-02
4.267999999999999972e+01,3.797310751716991700e-02
4.271999999999999886e+01,4.545704574956714594e-02
4.275999999999999801e+01,1.487859965766327557e-02
4.279999999999999716e+01,2.335593718137850966e-02
4.284000000000000341e+01,2.710583763027532567e-02
4.288000000000000256e+01,8.465750697018117887e-03
4.292000000000000171e+01,2.067208854269091817e-02
4.296000000000000085e+01,2.939482547264555060e-02
4.300000000000000000e+01,1.274235026037732685e-02
4.303999999999999915e+01,3.365303835212263284e-02
4.307999999999999829e+01,1.675009630835854260e-02
4.311999999999999744e+01,2.148914352424117352e-02
4.315999999999999659e+01,1.901305667110541123e-02
4.320000000000000284e+01,1.653611437790327224e-02
4.324000000000000199e+01,3.843760723962525577e-02
4.328000000000000114e+01,2.872766293313617440e-03
4.332000000000000028e+01,2.427500288332001127e-02
4.335999999999999943e+01,2.378476751904148173e-02
4.339999999999999858e+01,2.105475329757365913e-02
4.343999999999999773e+01,1.907017792869969419e-02
4.347999999999999687e+01,2.429901517328305477e-02
4.352000000000000313e+01,2.828314143041441714e-02
4.356000000000000227e+01,3.152009151624828032e-02
4.360000000000000142e+01,2.182021748943219555e-02
4.364000000000000057e+01,2.281650507686807522e-02
4.367999999999999972e+01,2.654836725637244738e-02
4.371999999999999886e+01,1.609955858869843021e-02
4.375999999999999801e+01,1.485429651138481418e-02
4.379999999999999716e+01,2.256381097249747503e-02
4.384000000000000341e+01,2.778475889877265320e-02
4.388000000000000256e+01,3.499496773617073037e-02
4.392000000000000171e+01,2.031267994328421825e-02
4.396000000000000085e+01,1.159994216618383256e-02
4.400000000000000000e+01,2.751437434451389427e-02
4.403999999999999915e+01,2.501906065592536879e-02
4.407999999999999829e+01,1.829379183153094501e-02
4.411999999999999744e+01,3.022524873014367092e-02
4.415999999999999659e+01,3.643413723163039381e-02
4.420000000000000284e+01,1.502884610948661964e-02
4.424000000000000199e+01,1.153397055454718177e-02
4.428000000000000114e+01,1.624754551908859715e-02
4.432000000000000028e+01,2.767695950436227167e-02
4.435999999999999943e+01,1.820893062851744112e-02
4.439999999999999858e+01,1.869072500997935940e-02
4.443999999999999773e+01,1.817653615421018984e-02
4.447999999999999687e+01,2.686586216251632409e-02
4.452000000000000313e+01,3.406166482972274728e-02
4.456000000000000227e+01,3.503734489536348973e-02
4.460000000000000142e+01,2.581260796706101937e-02
4.464000000000000057e+01,5.191204923565032048e-02
4.467999999999999972e+01,7.651796011285430521e-02
4.471999999999999886e+01,1.235120946149377286e-01
4.475999999999999801e+01,1.503550734982773973e-01
4.479999999999999716e+01,1.306774563278369772e-01
4.484000000000000341e+01,1.162230455285233471e-01
4.488000000000000256e+01,1.025140101292333072e-01
4.492000000000000171e+01,7.586809245243733568e-02
4.496000000000000085e+01,6.763009519528641322e-02
4.500000000000000000e+01,4.595767555676094629e-02
4.503999999999999915e+01,3.224490465949687856e-02
4.507999999999999829e+01,3.171591481754329478e-02
4.511999999999999744e+01,3.939533848107117098e-02
4.515999999999999659e+01,3.563047902784197141e-02
4.520000000000000284e+01,3.858141981877424159e-02
4.524000000000000199e+01,5.372106145727993665e-02
4.528000000000000114e+01,6.587453652965205575e-02
4.532000000000000028e+01,7.728075787758519055e-02
4.535999999999999943e+01,8.570080913424202307e-02
4.539999999999999858e+01,7.894504235827026761e-02
4.543999999999999773e+01,7.716368722549145354e-02
4.547999999999999687e+01,7.264492500308505907e-02
4.552000000000000313e+01,5.369664432842448376e-02
4.556000000000000227e+01,4.444936750713735646e-02
4.560000000000000142e+01,3.992772698939468790e-02
4.564000000000000057e+01,4.460955022115687535e-02
4.567999999999999972e+01,3.511061623974222334e-02
4.571999999999999886e+01,2.809839866989197882e-02
4.575999999999999801e+01,2.332412745967190823e-02
4.579999999999999716e+01,2.924592268484828977e-02
4.584000000000000341e+01,4.884900205520437827e-02
4.588000000000000256e+01,2.839941330578753600e-02
4.592000000000000171e+01,2.561139780621357609e-02
4.596000000000000085e+01,3.575835629601637616e-02
4.600000000000000000e+01,4.316788478276348262e-02
4.603999999999999915e+01,3.714294506127974183e-02
4.607999999999999829e+01,2.017121826262262968e-02
4.611999999999999744e+01,3.429454352654663640e-02
4.615999999999999659e+01,2.752034661363937651e-02
4.620000000000000284e+01,3.392988140404343961e-02
4.624000000000000199e+01,2.889508548826277834e-02
4.628000000000000114e+01,4.177061524854521618e-02
4.632000000000000028e+01,3.947028643705702278e-02
4.635999999999999943e+01,5.259259688286034573e-02
4.639999999999999858e+01,4.456860628704124860e-02
4.643999999999999773e+01,8.629727535544783057e-02
4.647999999999999687e+01,1.111087007762579376e-01
4.652000000000000313e+01,1.371629659103902610e-01
4.656000000000000227e+01,1.913270442464637955e-01
4.660000000000000142e+01,2.350418491706615376e-01
4.664000000000000057e+01,2.528837449799137271e-01
4.667999999999999972e+01,2.326630837328680645e-01
4.671999999999999886e+01,2.308502653523259174e-01
4.675999999999999801e+01,2.039108374372127219e-01
4.679999999999999716e+01,1.573177005909402182e-01
4.684000000000000341e+01,1.144550722510474378e-01
4.688000000000000256e+01,7.681556039114025014e-02
4.692000000000000171e+01,6.678830929130605276e-02
4.696000000000000085e+01,5.302851272925105525e-02
4.700000000000000000e+01,4.424305907010459699e-02
4.703999999999999915e+01,5.287036101943904526e-02
4.707999999999999829e+01,4.134640512088869763e-02
4.711999999999999744e+01,4.325490867587047927e-02
4.715999999999999659e+01,4.789883347920925044e-02
4.720000000000000284e+01,3.637178777675512814e-02
4.724000000000000199e+01,2.708262321878945889e-02
4.728000000000000114e+01,4.117664263858530210e-02
4.732000000000000028e+01,2.740757666481892854e-02
4.735999999999999943e+01,3.975814232666288750e-02
4.739999999999999858e+01,4.414708221883180406e-02
4.743999999999999773e+01,3.908178484257716218e-02
4.747999999999999687e+01,3.426421172047951214e-02
4.752000000000000313e+01,4.039139753257128124e-02
4.756000000000000227e+01,4.353231631195992463e-02
4.760000000000000142e+01,3.075101524920462182e-02
4.764000000000000057e+01,2.866569954356153541e-02
4.767999999999999972e+01,3.578375769628218406e-02
4.771999999999999886e+01,3.991554176601409820e-02
4.775999999999999801e+01,4.280242801572612527e-02
4.779999999999999716e+01,3.523998797642039632e-02
4.784000000000000341e+01,3.911982934945863050e-02
4.788000000000000256e+01,4.026215787858548195e-02
4.792000000000000171e+01,3.568175232887504239e-02
4.796000000000000085e+01,3.707072053781109572e-02
4.800000000000000000e+01,3.373202430021857851e-02
4.803999999999999915e+01,2.417305211734883594e-02
4.807999999999999829e+01,3.476324089909531984e-02
4.811999999999999744e+01,2.918241863590676638e-02
4.815999999999999659e+01,2.857588816105617949e-02
4.820000000000000284e+01,2.224661126936859634e-02
4.824000000000000199e+01,2.412561040259357525e-02
4.828000000000000114e+01,3.023259116835376112e-02
4.832000000000000028e+01,3.136312509765133705e-02
4.835999999999999943e+01,3.348764937262388441e-02
4.839999999999999858e+01,3.113325986471679116e-02
4.843999999999999773e+01,3.051916204543056108e-02
4.847999999999999687e+01,1.970447626277571640e-02
4.852000000000000313e+01,2.854139547772598096e-02
4.856000000000000227e+01,2.966540609779360141e-02
4.860000000000000142e+01,2.830064043702761739e-02
4.864000000000000057e+01,2.817862107329974219e-02
4.867999999999999972e+01,4.173776071218236738e-02
4.871999999999999886e+01,3.763325313138172340e-02
4.875999999999999801e+01,4.347837668760570762e-02
4.879999999999999716e+01,4.210811765224440478e-02
4.884000000000000341e+01,4.446827899469300155e-02
4.888000000000000256e+01,6.424111486733821708e-02
4.892000000000000171e+01,7.654979457132116138e-02
4.896000000000000085e+01,1.042809989654549380e-01
4.900000000000000000e+01,1.705701771979157566e-01
4.903999999999999915e+01,1.816316824163277388e-01
4.907999999999999829e+01,1.884630121775092981e-01
4.911999999999999744e+01,1.323548484292501881e-01
4.915999999999999659e+01,1.250041513329103182e-01
4.920000000000000284e+01,1.047163833639250807e-01
4.924000000000000199e+01,6.701371355119134510e-02
4.928000000000000114e+01,4.498232261740015697e-02
4.932000000000000028e+01,4.359757458723768214e-02
4.935999999999999943e+01,3.649002902566765572e-02
4.939999999999999858e+01,3.410795232335945421e-02
4.943999999999999773e+01,3.023213548366980585e-02
4.947999999999999687e+01,3.232562542491360102e-02
4.952000000000000313e+01,3.939334722706794301e-02
4.956000000000000227e+01,3.377275058279720354e-02
4.960000000000000142e+01,2.715594332958519083e-02
4.964000000000000057e+01,3.397148448790730108e-02
4.967999999999999972e+01,2.585978730782425433e-02
4.971999999999999886e+01,2.968782527795534379e-02
4.975999999999999801e+01,3.625116992930266929e-02
4.979999999999999716e+01,2.689219779707917660e-02
4.984000000000000341e+01,3.320447986779869604e-02
4.988000000000000256e+01,2.981364886387645463e-02
4.992000000000000171e+01,2.990442235897361467e-02
4.996000000000000085e+01,3.621324977351027957e-02
5.000000000000000000e+01,3.530664171931975626e-02
5.003999999999999915e+01,4.036931577006318966e-02
5.007999999999999829e+01,2.627567293751859739e-02
5.011999999999999744e+01,3.680893038698079128e-02
5.015999999999999659e+01,2.768833084928647853e-02
5.020000000000000284e+01,3.448773794075547100e-02
5.024000000000000199e+01,2.859879662208569470e-02
5.028000000000000114e+01,3.191311459463880285e-02
5.032000000000000028e+01,5.288881193418117077e-02
5.035999999999999943e+01,2.784120480124520694e-02
5.039999999999999858e+01,3.985890008045999550e-02
5.043999999999999773e+01,4.565621366011385351e-02
5.047999999999999687e+01,4.224792430528073045e-02
5.052000000000000313e+01,4.655027393006492403e-02
5.056000000000000227e+01,4.811499261865419264e-02
5.060000000000000142e+01,4.544946887229984328e-02
5.064000000000000057e+01,5.024581052848572926e-02
5.067999999999999972e+01,5.479219885439119697e-02
5.071999999999999886e+01,5.286942485337305098e-02
5.075999999999999801e+01,5.368191346928626734e-02
5.079999999999999716e+01,5.200552886293903498e-02
5.084000000000000341e+01,3.987968401214800340e-02
5.088000000000000256e+01,5.113686450769276692e-02
5.092000000000000171e+01,4.945689834002215540e-02
5.096000000000000085e+01,5.722892978922360097e-02
5.100000000000000000e+01,4.136677460746314428e-02
5.103999999999999915e+01,3.620045496424630083e-02
5.107999999999999829e+01,3.924228620337297940e-02
5.111999999999999744e+01,5.621393721761776957e-02
5.115999999999999659e+01,5.179030915488107983e-02
5.120000000000000284e+01,5.756497300167664338e-02
5.124000000000000199e+01,5.239262239958859813e-02
5.128000000000000114e+01,5.368703584144696866e-02
5.132000000000000028e+01,5.647284577742271716e-02
5.135999999999999943e+01,5.950620899813015285e-02
5.139999999999999858e+01,6.701618466016670550e-02
5.143999999999999773e+01,8.173922218395265893e-02
5.147999999999999687e+01,8.501769810470095889e-02
5.152000000000000313e+01,7.486146434493713697e-02
5.156000000000000227e+01,1.122187500359943524e-01
5.160000000000000142e+01,1.251955177894302218e-01
5.164000000000000057e+01,1.538434604300962516e-01
5.167999999999999972e+01,2.031379419826785104e-01
5.171999999999999886e+01,2.688498997654369393e-01
5.175999999999999801e+01,2.972453815134187272e-01
5.179999999999999716e+01,3.084746169024454865e-01
5.184000000000000341e+01,2.990548481188655683e-01
5.188000000000000256e+01,2.961018169406610667e-01
5.192000000000000171e+01,2.841918876647622216e-01
5.196000000000000085e+01,2.267561199922549231e-01
5.200000000000000000e+01,1.989225355481563373e-01
5.203999999999999915e+01,1.464596454887880372e-01
5.207999999999999829e+01,1.158871181624365337e-01
5.211999999999999744e+01,1.129266224618764858e-01
5.215999999999999659e+01,8.608312072642118618e-02
5.220000000000000284e+01,7.242308630856773843e-02
5.224000000000000199e+01,8.015587099471976895e-02
5.228000000000000114e+01,6.649332725189108229e-02
5.232000000000000028e+01,6.079011146232968232e-02
5.235999999999999943e+01,6.702651449327021171e-02
5.239999999999999858e+01,6.778875432673998891e-02
5.243999999999999773e+01,8.073937774493172848e-02
5.247999999999999687e+01,8.970844417668709381e-02
5.252000000000000313e+01,7.852601305084791483e-02
5.256000000000000227e+01,9.296544784761172353e-02
5.260000000000000142e+01,5.864502828490737035e-02
5.264000000000000057e+01,6.512133677079882943e-02
5.267999999999999972e+01,5.766534788288191216e-02
5.271999999999999886e+01,6.637802287149319191e-02
5.275999999999999801e+01,4.449092157384068602e-02
5.279999999999999716e+01,4.797690733400009760e-02
5.284000000000000341e+01,4.897392998075780074e-02
5.288000000000000256e+01,3.628741473021301206e-02
5.292000000000000171e+01,4.872521296040308730e-02
5.296000000000000085e+01,4.524055516388197917e-02
5.300000000000000000e+01,4.225214667602816832e-02
5.303999999999999915e+01,3.926244915554454734e-02
5.307999999999999829e+01,2.681826584407030409e-02
5.311999999999999744e+01,3.999592377919965192e-02
5.315999999999999659e+01,3.501220227049503531e-02
5.320000000000000284e+01,3.699269678103545012e-02
5.324000000000000199e+01,3.250391792265425878e-02
5.328000000000000114e+01,3.721826616264125448e-02
5.332000000000000028e+01,4.267761790008724188e-02
5.335999999999999943e+01,3.370710572128535198e-02
5.339999999999999858e+01,3.966138600848358869e-02
5.343999999999999773e+01,3.914638411390330280e-02
5.347999999999999687e+01,2.594289104090103867e-02
5.352000000000000313e+01,2.915679488236196798e-02
5.356000000000000227e+01,3.809105743311107239e-02
5.360000000000000142e+01,3.831711614753006284e-02
5.364000000000000057e+01,3.406403018221648704e-02
5.367999999999999972e+01,3.055593185121932912e-02
5.371999999999999886e+01,3.127557544304751524e-02
5.375999999999999801e+01,2.851114222488042652e-02
5.379999999999999716e+01,2.947691082567005863e-02
5.384000000000000341e+01,3.790440382328818386e-02
5.388000000000000256e+01,3.538476604231054201e-02
5.392000000000000171e+01,4.331206860537312187e-02
5.396000000000000085e+01,2.660998094973906353e-02
5.400000000000000000e+01,2.408635445344552151e-02
5.403999999999999915e+01,4.643822379652474963e-02
5.407999999999999829e+01,3.968286842466136471e-02
5.411999999999999744e+01,2.222913998813679654e-02
5.415999999999999659e+01,3.437749960116544268e-02
5.420000000000000284e+01,3.582748262439008902e-02
5.424000000000000199e+01,3.503720913357714212e-02
5.428000000000000114e+01,2.628500671080897383e-02
5.432000000000000028e+01,3.569154397661614825e-02
5.435999999999999943e+01,3.638984391723682627e-02
5.439999999999999858e+01,2.713606332328507773e-02
5.443999999999999773e+01,4.400160238980653504e-02
5.447999999999999687e+01,4.693476476680682324e-02
5.452000000000000313e+01,5.484193868329315796e-02
5.456000000000000227e+01,5.503593961918732541e-02
5.460000000000000142e+01,5.597488765025586399e-02
5.464000000000000057e+01,5.915139075010457381e-02
5.467999999999999972e+01,7.799893478175731754e-02
5.471999999999999886e+01,8.614807931017794129e-02
5.475999999999999801e+01,8.782788349196385402e-02
5.479999999999999716e+01,1.061737964752911406e-01
5.484000000000000341e+01,9.989028046335102218e-02
5.488000000000000256e+01,1.067901136767292480e-01
5.492000000000000171e+01,8.557775831861696991e-02
5.496000000000000085e+01,8.998716312882401591e-02
5.500000000000000000e+01,5.956763202960016490e-02
5.503999999999999915e+01,5.825261362463315939e-02
5.507999999999999829e+01,4.748302130010572525e-02
5.511999999999999744e+01,5.089184078291976443e-02
5.515999999999999659e+01,3.564165611460429900e-02
5.520000000000000284e+01,3.755509920084196263e-02
5.524000000000000199e+01,3.573563197257983298e-02
5.528000000000000114e+01,4.311920371411603892e-02
5.532000000000000028e+01,4.676986161600964892e-02
5.535999999999999943e+01,4.768267707314078480e-02
5.539999999999999858e+01,4.212612398249487161e-02
5.543999999999999773e+01,4.303615162837015617e-02
5.547999999999999687e+01,3.946695351622859366e-02
5.552000000000000313e+01,4.037418630056232444e-02
5.556000000000000227e+01,2.137855586123825133e-02
5.560000000000000142e+01,3.521893778061451624e-02
5.564000000000000057e+01,2.517616032138403001e-02
5.567999999999999972e+01,2.757039196795540992e-02
5.571999999999999886e+01,3.468981398750792949e-02
5.575999999999999801e+01,2.215513225990844645e-02
5.579999999999999716e+01,3.374956395045174140e-02
5.584000000000000341e+01,4.210859546665005754e-02
5.588000000000000256e+01,3.031598136925638468e-02
5.592000000000000171e+01,2.399485370007558432e-02
5.596000000000000085e+01,5.676786821562568308e-02
5.600000000000000000e+01,6.997902907584388488e-02
5.603999999999999915e+01,8.572583106659185936e-02
5.607999999999999829e+01,9.068175742890048630e-02
5.611999999999999744e+01,7.528280723676164521e-02
5.615999999999999659e+01,8.070720378984855281e-02
5.620000000000000284e+01,8.559880328344278422e-02
5.624000000000000199e+01,3.734272063217623089e-02
5.628000000000000114e+01,8.598935865038026538e-02
5.632000000000000028e+01,4.503331393306262559e-02
5.635999999999999943e+01,8.116702974518194558e-02
5.639999999999999858e+01,8.450441075329762075e-02
5.643999999999999773e+01,8.534846790289174479e-02
5.647999999999999687e+01,6.752277117351193625e-02
5.652000000000000313e+01,8.527381474751125068e-02
5.656000000000000227e+01,8.516076378633501143e-02
5.660000000000000142e+01,9.086154195020297586e-02
5.664000000000000057e+01,5.277569193180729756e-02
5.667999999999999972e+01,6.380754873010253958e-02
5.671999999999999886e+01,8.135932488968855569e-02
5.675999999999999801e+01,7.306750838618494837e-02
5.679999999999999716e+01,8.671175943830708444e-02
5.684000000000000341e+01,8.344036511226460284e-02
5.688000000000000256e+01,7.946014254895324147e-02
5.692000000000000171e+01,8.304992699235803910e-02
5.696000000000000085e+01,7.901335921106630855e-02
5.700000000000000000e+01,6.312771050646387438e-02
5.703999999999999915e+01,8.432536470026316677e-02
5.707999999999999829e+01,6.670984273932370479e-02
5.711999999999999744e+01,9.970617330977167569e-02
5.715999999999999659e+01,9.240566161981303428e-02
5.720000000000000284e+01,6.594686652903158919e-02
5.724000000000000199e+01,7.870318611449873825e-02
5.728000000000000114e+01,5.482132766069271190e-02
5.732000000000000028e+01,7.774357622152605618e-02
5.735999999999999943e+01,9.977168944295582154e-02
5.739999999999999858e+01,7.915148889114062558e-02
5.743999999999999773e+01,9.054675057545479022e-02
5.747999999999999687e+01,9.479173954177627648e-02
5.752000000000000313e+01,7.840104490166641127e-02
5.756000000000000227e+01,1.136047280833148293e-01
5.760000000000000142e+01,9.453535666829972206e-02
5.764000000000000057e+01,1.045703833804007277e-01
5.767999999999999972e+01,9.196600226956817836e-02
5.771999999999999886e+01,9.179854037339614525e-02
5.775999999999999801e+01,6.625521594615614573e-02
5.779999999999999716e+01,6.235323391486036204e-02
5.784000000000000341e+01,6.690787318070490208e-02
5.788000000000000256e+01,5.479353475546794305e-02
5.792000000000000171e+01,6.282792370228375278e-02
5.796000000000000085e+01,7.732878234362267067e-02
5.800000000000000000e+01,7.118036537635989702e-02
5.803999999999999915e+01,6.503043905504270195e-02
5.807999999999999829e+01,5.539624556601951272e-02
5.811999999999999744e+01,4.998960011696800682e-02
5.815999999999999659e+01,5.776615936238029686e-02
5.820000000000000284e+01,4.240575129270516413e-02
5.824000000000000199e+01,4.420883702215706174e-02
5.828000000000000114e+01,2.984046401353924668e-02
5.832000000000000028e+01,3.263558127890572869e-02
5.835999999999999943e+01,3.692178482582381127e-02
5.839999999999999858e+01,3.548479250019882097e-02
5.843999999999999773e+01,3.454380977353121301e-02
5.847999999999999687e+01,2.414810330873457325e-02
5.852000000000000313e+01,3.041834172633945538e-02
5.856000000000000227e+01,2.623877972322098337e-02
5.860000000000000142e+01,3.374979329010377449e-02
5.864000000000000057e+01,3.603513698774076651e-02
5.867999999999999972e+01,3.707510168336664719e-02
5.871999999999999886e+01,4.557657574211070733e-02
5.875999999999999801e+01,4.686222832899174934e-02
5.879999999999999716e+01,4.665372833678466807e-02
5.884000000000000341e+01,6.360869570513365268e-02
5.888000000000000256e+01,5.792420237340721589e-02
5.892000000000000171e+01,4.925294143870113245e-02
5.896000000000000085e+01,4.182397205761292924e-02
5.900000000000000000e+01,5.752890193150429765e-02
5.903999999999999915e+01,3.964855932306806524e-02
5.907999999999999829e+01,3.022478337205890958e-02
5.911999999999999744e+01,3.846199902233191081e-02
5.915999999999999659e+01,3.674692439203628563e-02
5.920000000000000284e+01,2.856231376968101573e-02
5.924000000000000199e+01,2.510273841402410264e-02
5.928000000000000114e+01,2.761203800930853505e-02
5.932000000000000028e+01,3.310499132060835265e-02
5.935999999999999943e+01,2.939195040657129748e-02
5.939999999999999858e+01,2.617487678977813148e-02
5.943999999999999773e+01,1.947347607785141280e-02
5.947999999999999687e+01,2.346753900190368114e-02
5.952000000000000313e+01,1.427530802052749161e-02
5.956000000000000227e+01,1.602730543935034987e-02
5.960000000000000142e+01,2.499200515535777989e-02
5.964000000000000057e+01,1.927779594204525118e-02
5.967999999999999972e+01,1.157185879434811243e-02
5.971999999999999886e+01,2.998500864769981095e-02
5.975999999999999801e+01,2.526112244567963253e-02
5.979999999999999716e+01,2.924253946416430563e-02
5.984000000000000341e+01,1.754996558302048676e-02
5.988000000000000256e+01,2.426465468239096326e-02
5.992000000000000171e+01,2.401223948469084768e-02
5.996000000000000085e+01,2.151931572524337644e-02
