2.003999999999999915e+01,1.157654226537270514e-02
2.007999999999999829e+01,2.719321986455427304e-02
2.012000000000000099e+01,1.229577176020280917e-02
2.016000000000000014e+01,3.254407734882510533e-02
2.019999999999999929e+01,2.355630916118969104e-02
2.023999999999999844e+01,3.597524530954891026e-02
2.028000000000000114e+01,3.577277368645261774e-02
2.032000000000000028e+01,3.908429072970862755e-02
2.035999999999999943e+01,2.721829840939770512e-02
2.039999999999999858e+01,3.084802525765393405e-02
2.044000000000000128e+01,3.575515235050485963e-02
2.048000000000000043e+01,3.666771897587078888e-02
2.051999999999999957e+01,1.968691900306135042e-02
2.055999999999999872e+01,2.267501881305314382e-02
2.060000000000000142e+01,3.301126344828302084e-02
2.064000000000000057e+01,3.472001362172815603e-02
2.067999999999999972e+01,2.380735979443658265e-02
2.071999999999999886e+01,3.685751717425739260e-02
2.076000000000000156e+01,2.945820787207893698e-02
2.080000000000000071e+01,2.078019986188671744e-02
2.083999999999999986e+01,4.021867050268728566e-02
2.087999999999999901e+01,2.850399701776059128e-02
2.092000000000000171e+01,2.717284291082507422e-02
2.096000000000000085e+01,3.111300386644232432e-02
2.100000000000000000e+01,2.978055808338158500e-02
2.103999999999999915e+01,2.860722342450688557e-02
2.107999999999999829e+01,3.606008928886070969e-02
2.112000000000000099e+01,2.865496574729513649e-02
2.116000000000000014e+01,4.217728602445458552e-02
2.119999999999999929e+01,2.262938843277051068e-02
2.123999999999999844e+01,1.650038477183083524e-02
2.128000000000000114e+01,2.730491614480791765e-02
2.132000000000000028e+01,1.941730647784245187e-02
2.135999999999999943e+01,3.405470648137107897e-02
2.139999999999999858e+01,2.728410745620459682e-02
2.144000000000000128e+01,1.715798259984219545e-02
2.148000000000000043e+01,1.469952365758133393e-02
2.151999999999999957e+01,1.623433388375176978e-02
2.155999999999999872e+01,2.320022122519419319e-02
2.160000000000000142e+01,2.201789234449965521e-02
2.164000000000000057e+01,2.019589826086492373e-02
2.167999999999999972e+01,1.677570097151572653e-02
2.171999999999999886e+01,2.182195384190407580e-02
2.176000000000000156e+01,3.070172174651422323e-02
2.180000000000000071e+01,3.287108288411540180e-02
2.183999999999999986e+01,1.778611545347693473e-02
2.187999999999999901e+01,2.075298348932030565e-02
2.192000000000000171e+01,1.668993309608856473e-02
2.196000000000000085e+01,2.396895026456247885e-02
2.200000000000000000e+01,1.846681947903089371e-02
2.203999999999999915e+01,3.261408963467812838e-02
2.207999999999999829e+01,3.126435384756744151e-02
2.212000000000000099e+01,3.071276495214750671e-02
2.216000000000000014e+01,3.127883611877199654e-02
2.219999999999999929e+01,2.385645311597874366e-02
2.223999999999999844e+01,2.969321707408576622e-02
2.228000000000000114e+01,2.977811716989211752e-02
2.232000000000000028e+01,2.443066657375168871e-02
2.235999999999999943e+01,2.770942856713954489e-02
2.239999999999999858e+01,3.242536567828511324e-02
2.244000000000000128e+01,3.346627359174991767e-02
2.248000000000000043e+01,2.348335843912203319e-02
2.251999999999999957e+01,3.155228478612615017e-02
2.255999999999999872e+01,3.402910630697363048e-02
2.260000000000000142e+01,3.506748969140104089e-02
2.264000000000000057e+01,4.249549875188680242e-02
2.267999999999999972e+01,3.538504590553858548e-02
2.271999999999999886e+01,3.003128398680491445e-02
2.276000000000000156e+01,3.154641806526795739e-02
2.280000000000000071e+01,2.842798795985150909e-02
2.283999999999999986e+01,2.722600630990611517e-02
2.287999999999999901e+01,2.186973042014778157e-02
2.292000000000000171e+01,3.983726088989147235e-02
2.296000000000000085e+01,1.978214178608482879e-02
2.300000000000000000e+01,2.688498331530673330e-02
2.303999999999999915e+01,2.520059661041566465e-02
2.307999999999999829e+01,1.808386637794340279e-02
2.312000000000000099e+01,2.007262508928809794e-02
2.316000000000000014e+01,3.196565510472642452e-02
2.319999999999999929e+01,4.353854741630962255e-02
2.323999999999999844e+01,3.066808650832618388e-02
2.328000000000000114e+01,3.568971786769941507e-02
2.332000000000000028e+01,2.952777768284865767e-02
2.335999999999999943e+01,3.950061015644788093e-02
2.339999999999999858e+01,3.062156480120127588e-02
2.344000000000000128e+01,8.482115876613943034e-03
2.348000000000000043e+01,2.484333627142509826e-02
2.351999999999999957e+01,3.545270449316367811e-02
2.355999999999999872e+01,2.161872251191087474e-02
2.360000000000000142e+01,1.257681129003196917e-02
2.364000000000000057e+01,3.324896908058688760e-02
2.367999999999999972e+01,3.922291799446376431e-02
2.371999999999999886e+01,3.001938921881170536e-02
2.376000000000000156e+01,2.992135542012676341e-02
2.380000000000000071e+01,2.023731856848971083e-02
2.383999999999999986e+01,3.851003225159536220e-02
2.387999999999999901e+01,2.946378360874763944e-02
2.392000000000000171e+01,3.112059541756380041e-02
2.396000000000000085e+01,3.373532786001822575e-02
2.400000000000000000e+01,2.261039282221525074e-02
2.403999999999999915e+01,3.065560838926233503e-02
2.407999999999999829e+01,3.326848985552517679e-02
2.412000000000000099e+01,2.134292298954167111e-02
2.416000000000000014e+01,3.465825093197987677e-02
2.419999999999999929e+01,1.809851721878423178e-02
2.423999999999999844e+01,1.863210283946580698e-02
2.428000000000000114e+01,2.475654761294797043e-02
2.432000000000000028e+01,1.921816107908023638e-02
2.435999999999999943e+01,2.310478797153962122e-02
2.439999999999999858e+01,1.468955872422907094e-02
2.444000000000000128e+01,2.480545826592352177e-02
2.448000000000000043e+01,2.134145124886414543e-02
2.451999999999999957e+01,2.890002313282892879e-02
2.455999999999999872e+01,3.070675264759024567e-02
2.460000000000000142e+01,1.414088483558495479e-02
2.464000000000000057e+01,2.025981401060876833e-02
2.467999999999999972e+01,3.484522124868887766e-02
2.471999999999999886e+01,3.185681427442295377e-02
2.476000000000000156e+01,3.126414304500121921e-02
2.480000000000000071e+01,3.338672073077748881e-02
2.483999999999999986e+01,2.113061326824213285e-02
2.487999999999999901e+01,2.612758756937487437e-02
2.492000000000000171e+01,1.562758269985316251e-02
2.496000000000000085e+01,2.062333998509278954e-02
2.500000000000000000e+01,2.993191203729927627e-02
2.503999999999999915e+01,3.125205669219161680e-02
2.507999999999999829e+01,2.234718477386824637e-02
2.512000000000000099e+01,3.692589635064112696e-02
2.516000000000000014e+01,3.217347749980814520e-02
2.519999999999999929e+01,1.863385077674360041e-02
2.523999999999999844e+01,2.122901443450743095e-02
2.528000000000000114e+01,3.388822577781543111e-02
2.532000000000000028e+01,1.635287323022058953e-02
2.535999999999999943e+01,1.990476049053896759e-02
2.539999999999999858e+01,2.265726159603280096e-02
2.544000000000000128e+01,2.061646700775012636e-02
2.548000000000000043e+01,2.784094000716616155e-02
2.551999999999999957e+01,2.739650292741255613e-02
2.555999999999999872e+01,3.845392374247473544e-02
2.560000000000000142e+01,2.155337285911047840e-02
2.564000000000000057e+01,3.197056389215976319e-02
2.567999999999999972e+01,3.152371842150767517e-02
2.571999999999999886e+01,1.526038852835681983e-02
2.576000000000000156e+01,2.264040456009345018e-02
2.580000000000000071e+01,4.168203714571801222e-02
2.583999999999999986e+01,2.749373920619620909e-02
2.587999999999999901e+01,2.656462254111561366e-02
2.592000000000000171e+01,2.499588101978578517e-02
2.596000000000000085e+01,3.540827035391354988e-02
2.600000000000000000e+01,1.402853824095078375e-02
2.603999999999999915e+01,2.491900011098971759e-02
2.607999999999999829e+01,1.615882743279403733e-02
2.612000000000000099e+01,2.065783829147106732e-02
2.616000000000000014e+01,2.867089286899462963e-02
2.619999999999999929e+01,2.342356989513716403e-02
2.623999999999999844e+01,1.625857390847784689e-02
2.628000000000000114e+01,2.794423684941197902e-02
2.632000000000000028e+01,1.630487038180080880e-02
2.635999999999999943e+01,2.367591999256785096e-02
2.639999999999999858e+01,2.210001664661868231e-02
2.644000000000000128e+01,2.451742884894214658e-02
2.648000000000000043e+01,1.990496560838483225e-02
2.651999999999999957e+01,3.062852283175127727e-02
2.655999999999999872e+01,1.323436100977521020e-02
2.660000000000000142e+01,3.306284674567674248e-02
2.664000000000000057e+01,2.796874212319863315e-02
2.667999999999999972e+01,1.376793078686669447e-02
2.671999999999999886e+01,1.634094936958636543e-02
2.676000000000000156e+01,3.377072148873828950e-02
2.680000000000000071e+01,2.468034079138864759e-02
2.683999999999999986e+01,1.878449742982564799e-02
2.687999999999999901e+01,1.959783250722214876e-02
2.692000000000000171e+01,2.935693595362327130e-02
2.696000000000000085e+01,1.994468233729380924e-02
2.700000000000000000e+01,2.794528686608320142e-02
2.703999999999999915e+01,3.402822592350828595e-02
2.707999999999999829e+01,3.100446203779820553e-02
2.712000000000000099e+01,3.181426371394186631e-02
2.716000000000000014e+01,3.757592610549774503e-02
2.719999999999999929e+01,2.256866973034494031e-02
2.723999999999999844e+01,2.161938943328208657e-02
2.728000000000000114e+01,2.546221458620622630e-02
2.732000000000000028e+01,2.642883852742342748e-02
2.735999999999999943e+01,2.675585118697909950e-02
2.739999999999999858e+01,1.286395922746443737e-02
2.744000000000000128e+01,2.692885173916160363e-02
2.748000000000000043e+01,2.389922524639516085e-02
2.751999999999999957e+01,2.534219367276492260e-02
2.755999999999999872e+01,2.710409108267821526e-02
2.760000000000000142e+01,1.959953405474989391e-02
2.764000000000000057e+01,1.209439397122692890e-02
2.767999999999999972e+01,3.030945106837386674e-02
2.771999999999999886e+01,2.008728726198104678e-02
2.776000000000000156e+01,2.711823236843174251e-02
2.780000000000000071e+01,1.721441788363459180e-02
2.783999999999999986e+01,2.152834152964667666e-02
2.787999999999999901e+01,3.510755538767031114e-02
2.792000000000000171e+01,1.962847154473183753e-02
2.796000000000000085e+01,1.896818429959707883e-02
2.800000000000000000e+01,2.049782597958517069e-02
2.803999999999999915e+01,1.566526167381117676e-02
2.807999999999999829e+01,2.414491430149702175e-02
2.812000000000000099e+01,2.537866513001177382e-02
2.816000000000000014e+01,1.961266756526997695e-02
2.819999999999999929e+01,1.950978549527905212e-02
2.823999999999999844e+01,1.901316710754767658e-02
2.828000000000000114e+01,2.031258152688060481e-02
2.832000000000000028e+01,2.226058887114842899e-02
2.835999999999999943e+01,2.527799128029739953e-02
2.839999999999999858e+01,2.048303628143316110e-02
2.844000000000000128e+01,2.033436877461596015e-02
2.848000000000000043e+01,2.486273017690353304e-02
2.851999999999999957e+01,1.654210813817999851e-02
2.855999999999999872e+01,2.354826302637258104e-02
2.860000000000000142e+01,2.357110735800351312e-02
2.864000000000000057e+01,2.244214900160372214e-02
2.867999999999999972e+01,1.832464556816839479e-02
2.871999999999999886e+01,2.232316235497693035e-02
2.876000000000000156e+01,2.222560524542009294e-02
2.880000000000000071e+01,2.594266744088796067e-02
2.883999999999999986e+01,1.977262379366757222e-02
2.887999999999999901e+01,2.247913239715556427e-02
2.892000000000000171e+01,1.673895879801215805e-02
2.896000000000000085e+01,2.114376245658990475e-02
2.900000000000000000e+01,2.022569677269966601e-02
2.903999999999999915e+01,1.840382000840055238e-02
2.907999999999999829e+01,1.927384215774336634e-02
2.912000000000000099e+01,2.652121642616086378e-02
2.916000000000000014e+01,2.192538966148213989e-02
2.919999999999999929e+01,2.070324547784976529e-02
2.923999999999999844e+01,1.675331791726596478e-02
2.928000000000000114e+01,1.871423626530733381e-02
2.932000000000000028e+01,2.133110440618710482e-02
2.935999999999999943e+01,2.105074837961952439e-02
2.939999999999999858e+01,2.504708279031521434e-02
2.944000000000000128e+01,2.040167416249916502e-02
2.948000000000000043e+01,1.987164170302151145e-02
2.951999999999999957e+01,1.591737339633055373e-02
2.955999999999999872e+01,9.502984857280490430e-03
2.960000000000000142e+01,1.107585157120529601e-02
2.964000000000000057e+01,1.983719193197205910e-02
2.967999999999999972e+01,2.204795620553115162e-02
2.971999999999999886e+01,4.055330948861000928e-02
2.976000000000000156e+01,1.592387260784779504e-02
2.980000000000000071e+01,2.116831920522975474e-02
2.983999999999999986e+01,2.641220348597040496e-02
2.987999999999999901e+01,1.392256579999642807e-02
2.992000000000000171e+01,1.069823755669981231e-02
2.996000000000000085e+01,2.616484653496860269e-02
3.000000000000000000e+01,1.479182006920424716e-02
3.003999999999999915e+01,3.089633339440114174e-02
3.007999999999999829e+01,2.735024987855139145e-02
3.012000000000000099e+01,3.019386255120136767e-02
3.016000000000000014e+01,3.080032637081187713e-02
3.019999999999999929e+01,2.405743702194436742e-02
3.023999999999999844e+01,2.322497580286940130e-02
3.028000000000000114e+01,7.374855130694757573e-03
3.032000000000000028e+01,1.420958498975596375e-02
3.035999999999999943e+01,2.503766735013411224e-02
3.039999999999999858e+01,1.589564309275865936e-02
3.044000000000000128e+01,2.416650940868352374e-02
3.048000000000000043e+01,1.725996176022703832e-02
3.051999999999999957e+01,2.201507516014047927e-02
3.055999999999999872e+01,2.005986437178662596e-02
3.060000000000000142e+01,3.631632764822530224e-02
3.064000000000000057e+01,2.493437953057619713e-02
3.067999999999999972e+01,2.681165793599399327e-02
3.071999999999999886e+01,1.494933220923028161e-02
3.076000000000000156e+01,3.344016820025874637e-02
3.080000000000000071e+01,2.285478673571840133e-02
3.083999999999999986e+01,1.306763436453845482e-02
3.087999999999999901e+01,1.014945453614690685e-02
3.092000000000000171e+01,2.049050349325354237e-02
3.096000000000000085e+01,1.789073256381464375e-02
3.100000000000000000e+01,2.247944810166168511e-02
3.103999999999999915e+01,1.460661369702981327e-02
3.107999999999999829e+01,2.686253464174445660e-02
3.112000000000000099e+01,1.307761268364337516e-02
3.116000000000000014e+01,2.692999747115702724e-02
3.119999999999999929e+01,2.752205184127464246e-02
3.123999999999999844e+01,1.740987851732316710e-02
3.128000000000000114e+01,2.359230890869484093e-02
3.132000000000000028e+01,1.859124317021836059e-02
3.135999999999999943e+01,1.582621899680528368e-02
3.139999999999999858e+01,2.296554380429302600e-02
3.144000000000000128e+01,1.061404098781892728e-02
3.148000000000000043e+01,1.759251530820542253e-02
3.151999999999999957e+01,3.223875018773506712e-02
3.155999999999999872e+01,2.627586379803188710e-02
3.160000000000000142e+01,3.996246846968676963e-02
3.164000000000000057e+01,4.294484921799137517e-02
3.167999999999999972e+01,4.241204426886031886e-02
3.171999999999999886e+01,5.146407852392322069e-02
3.176000000000000156e+01,4.390090331113641331e-02
3.180000000000000071e+01,4.272744012386835155e-02
3.183999999999999986e+01,3.148878048517321504e-02
3.187999999999999901e+01,2.216665452019402766e-02
3.192000000000000171e+01,3.185499704658412840e-02
3.196000000000000085e+01,2.604642676697059914e-02
3.200000000000000000e+01,2.151536570572484472e-02
3.203999999999999915e+01,2.081791658617391377e-02
3.207999999999999829e+01,2.738121144463763826e-02
3.211999999999999744e+01,2.769264405807718432e-02
3.215999999999999659e+01,2.725873798027838787e-02
3.220000000000000284e+01,2.788548013341731260e-02
3.224000000000000199e+01,2.921340632010020755e-02
3.228000000000000114e+01,3.098447574862690096e-02
3.232000000000000028e+01,2.630748110235155840e-02
3.235999999999999943e+01,2.379252200166517492e-02
3.239999999999999858e+01,2.911357103623178622e-02
3.243999999999999773e+01,3.171297709960711753e-02
3.247999999999999687e+01,2.720345293810936746e-02
3.252000000000000313e+01,2.928979972669897014e-02
3.256000000000000227e+01,2.544558424374947919e-02
3.260000000000000142e+01,2.798582988261312174e-02
3.264000000000000057e+01,2.621725841277562988e-02
3.267999999999999972e+01,2.656443093777114545e-02
3.271999999999999886e+01,2.575801870771517177e-02
3.275999999999999801e+01,2.631628301504852774e-02
3.279999999999999716e+01,2.641950748209525787e-02
3.284000000000000341e+01,2.792099034532094862e-02
3.288000000000000256e+01,2.779650728460502859e-02
3.292000000000000171e+01,3.007287184390747964e-02
3.296000000000000085e+01,2.717005405454352499e-02
3.300000000000000000e+01,2.483971596163278561e-02
3.303999999999999915e+01,2.678778995747868943e-02
3.307999999999999829e+01,2.444711105785429481e-02
3.311999999999999744e+01,3.015085166473015568e-02
3.315999999999999659e+01,3.039473664097712413e-02
3.320000000000000284e+01,2.388006977302101902e-02
3.324000000000000199e+01,2.386575999520763533e-02
3.328000000000000114e+01,3.065711133554917256e-02
3.332000000000000028e+01,2.625463284666379807e-02
3.335999999999999943e+01,2.765270754500913711e-02
3.339999999999999858e+01,2.158475532212259657e-02
3.343999999999999773e+01,3.083274348861984870e-02
3.347999999999999687e+01,3.235781817244972464e-02
3.352000000000000313e+01,2.829301254474994934e-02
3.356000000000000227e+01,2.477434881045821255e-02
3.360000000000000142e+01,3.192483426778806865e-02
3.364000000000000057e+01,2.782742891494036780e-02
3.367999999999999972e+01,2.770604698357236745e-02
3.371999999999999886e+01,2.730570489031819426e-02
3.375999999999999801e+01,2.275117112080236523e-02
3.379999999999999716e+01,1.516074082858324089e-02
3.384000000000000341e+01,2.530274595405604746e-02
3.388000000000000256e+01,2.058688195953923064e-02
3.392000000000000171e+01,1.571073771307190253e-02
3.396000000000000085e+01,2.057921018346472314e-02
3.400000000000000000e+01,2.321056999971844378e-02
3.403999999999999915e+01,2.727921466164674735e-02
3.407999999999999829e+01,2.815220904373409716e-02
3.411999999999999744e+01,2.758687388610271685e-02
3.415999999999999659e+01,2.686126073895200167e-02
3.420000000000000284e+01,4.306930441993549186e-02
3.424000000000000199e+01,4.841339229059994642e-02
3.428000000000000114e+01,3.921912760527541258e-02
3.432000000000000028e+01,4.615973889609589764e-02
3.435999999999999943e+01,4.846689497680996273e-02
3.439999999999999858e+01,5.348939046997319702e-02
3.443999999999999773e+01,4.876622681466338816e-02
3.447999999999999687e+01,3.445716078459341164e-02
3.452000000000000313e+01,3.037198594031274498e-02
3.456000000000000227e+01,2.996069039661445818e-02
3.460000000000000142e+01,2.475618550860004055e-02
3.464000000000000057e+01,2.993532933423153491e-02
3.467999999999999972e+01,1.626270166528728800e-02
3.471999999999999886e+01,1.856519734656582668e-02
3.475999999999999801e+01,1.687326717502062035e-02
3.479999999999999716e+01,2.141132091274419030e-02
3.484000000000000341e+01,2.003787279209628611e-02
3.488000000000000256e+01,1.339194877671265674e-02
3.492000000000000171e+01,1.553211214806854944e-02
3.496000000000000085e+01,2.038762021087990595e-02
3.500000000000000000e+01,1.709503837063410317e-02
3.503999999999999915e+01,1.779585314911500890e-02
3.507999999999999829e+01,1.482175788462904327e-02
3.511999999999999744e+01,2.207155946201062521e-02
3.515999999999999659e+01,2.900133608002893049e-02
3.520000000000000284e+01,1.580129493227839382e-02
3.524000000000000199e+01,1.314466455089283864e-02
3.528000000000000114e+01,1.160581791112827270e-02
3.532000000000000028e+01,1.725549846241265783e-02
3.535999999999999943e+01,2.130710476656557870e-02
3.539999999999999858e+01,2.360088080401808938e-02
3.543999999999999773e+01,2.062218622574113480e-02
3.547999999999999687e+01,1.316980339201132000e-02
3.552000000000000313e+01,1.082911647835750960e-02
3.556000000000000227e+01,2.142818929725801014e-02
3.560000000000000142e+01,2.276088309269286986e-02
3.564000000000000057e+01,2.856624835285547989e-02
3.567999999999999972e+01,1.855522308141737201e-02
3.571999999999999886e+01,1.796931832472022789e-02
3.575999999999999801e+01,2.041827859419802563e-02
3.579999999999999716e+01,1.471915650205617328e-02
3.584000000000000341e+01,1.157563100031016104e-02
3.588000000000000256e+01,3.766702070507021993e-02
3.592000000000000171e+01,3.404321563289827712e-02
3.596000000000000085e+01,2.051400934434385523e-02
3.600000000000000000e+01,2.823189956146372401e-02
3.603999999999999915e+01,1.118704442873664877e-02
3.607999999999999829e+01,2.513442675092543432e-02
3.611999999999999744e+01,2.518249944899553922e-02
3.615999999999999659e+01,1.979835192198909841e-02
3.620000000000000284e+01,1.537224041261590381e-02
3.624000000000000199e+01,2.372613864937802783e-02
3.628000000000000114e+01,3.463563762432667753e-02
3.632000000000000028e+01,2.445679101167330671e-02
3.635999999999999943e+01,2.753722446629376652e-02
3.639999999999999858e+01,2.502568356162795937e-02
3.643999999999999773e+01,3.289780833884262817e-02
3.647999999999999687e+01,2.862794724863596679e-02
3.652000000000000313e+01,1.684903617066729753e-02
3.656000000000000227e+01,1.896843263189565074e-02
3.660000000000000142e+01,2.188611248483508798e-02
3.664000000000000057e+01,2.064962781068810371e-02
3.667999999999999972e+01,3.043583666741674423e-02
3.671999999999999886e+01,3.718617652768927556e-02
3.675999999999999801e+01,4.169942975178244499e-02
3.679999999999999716e+01,4.365608392348620248e-02
3.684000000000000341e+01,7.021472684883364734e-02
3.688000000000000256e+01,6.338378692423238259e-02
3.692000000000000171e+01,8.323166966375092346e-02
3.696000000000000085e+01,6.106312488885328599e-02
3.700000000000000000e+01,6.541364713557824839e-02
3.703999999999999915e+01,5.314900968794161046e-02
3.707999999999999829e+01,4.519730088297949089e-02
3.711999999999999744e+01,3.900241875150859544e-02
3.715999999999999659e+01,3.104972294449993842e-02
3.720000000000000284e+01,3.443923836358322305e-02
3.724000000000000199e+01,3.750874843104098216e-02
3.728000000000000114e+01,3.019360053556540899e-02
3.732000000000000028e+01,2.799016552840039723e-02
3.735999999999999943e+01,3.872650722202429507e-02
3.739999999999999858e+01,2.485987278288605967e-02
3.743999999999999773e+01,2.265496462555293550e-02
3.747999999999999687e+01,4.025935935578506958e-02
3.752000000000000313e+01,2.910711277180607140e-02
3.756000000000000227e+01,3.009586279077066523e-02
3.760000000000000142e+01,4.226707140990496742e-02
3.764000000000000057e+01,3.382921607473218101e-02
3.767999999999999972e+01,3.369820495433578644e-02
3.771999999999999886e+01,3.388621859374034428e-02
3.775999999999999801e+01,3.838716728604132933e-02
3.779999999999999716e+01,5.550838403363998058e-02
3.784000000000000341e+01,5.873030737121075207e-02
3.788000000000000256e+01,8.048348619393805303e-02
3.792000000000000171e+01,9.360933344993253857e-02
3.796000000000000085e+01,1.137639763870789827e-01
3.800000000000000000e+01,1.503730427842652762e-01
3.803999999999999915e+01,1.842657654216495466e-01
3.807999999999999829e+01,2.336543738933716252e-01
3.811999999999999744e+01,2.605168461759577725e-01
3.815999999999999659e+01,2.690068489591445622e-01
3.820000000000000284e+01,2.335633591574519941e-01
3.824000000000000199e+01,2.105803851622069234e-01
3.828000000000000114e+01,1.642724945029085948e-01
3.832000000000000028e+01,1.460812472750144531e-01
3.835999999999999943e+01,1.005711742211871512e-01
3.839999999999999858e+01,1.036265641229491136e-01
3.843999999999999773e+01,7.872410336635791983e-02
3.847999999999999687e+01,7.267241654428335806e-02
3.852000000000000313e+01,6.246658291750068620e-02
3.856000000000000227e+01,6.759688325327756209e-02
3.860000000000000142e+01,6.889255033177199561e-02
3.864000000000000057e+01,7.162554561920718432e-02
3.867999999999999972e+01,8.793735563736708449e-02
3.871999999999999886e+01,9.354500847389944640e-02
3.875999999999999801e+01,1.203997838340657572e-01
3.879999999999999716e+01,1.429406586323861972e-01
3.884000000000000341e+01,1.610078768492917423e-01
3.888000000000000256e+01,1.793941307610826819e-01
3.892000000000000171e+01,2.097616376996201404e-01
3.896000000000000085e+01,2.123310552783797545e-01
3.900000000000000000e+01,2.404610203525102685e-01
3.903999999999999915e+01,3.022991095277720031e-01
3.907999999999999829e+01,4.071111941864116734e-01
3.911999999999999744e+01,6.290242427469012743e-01
3.915999999999999659e+01,8.911954288020166315e-01
3.920000000000000284e+01,1.000000000000000000e+00
3.924000000000000199e+01,9.591123538406650662e-01
3.928000000000000114e+01,9.203010675099848603e-01
3.932000000000000028e+01,8.199830955219336026e-01
3.935999999999999943e+01,7.180670869939390633e-01
3.939999999999999858e+01,6.308481947604495099e-01
3.943999999999999773e+01,5.661544826339435232e-01
3.947999999999999687e+01,5.001822478919916160e-01
3.952000000000000313e+01,4.169558512475709522e-01
3.956000000000000227e+01,3.560948794447084675e-01
3.960000000000000142e+01,3.096115130284287087e-01
3.964000000000000057e+01,2.969960327659991739e-01
3.967999999999999972e+01,3.053081709065749716e-01
3.971999999999999886e+01,3.069100712083439042e-01
3.975999999999999801e+01,3.238481167848287767e-01
3.979999999999999716e+01,3.096331965905854133e-01
3.984000000000000341e+01,3.062812433192551587e-01
3.988000000000000256e+01,2.720958378246223219e-01
3.992000000000000171e+01,2.256087224941088210e-01
3.996000000000000085e+01,1.770443070898073123e-01
4.000000000000000000e+01,1.395026165133473051e-01
4.003999999999999915e+01,1.099482796056227007e-01
4.007999999999999829e+01,9.301423224629290498e-02
4.011999999999999744e+01,8.278948813671477280e-02
4.015999999999999659e+01,6.313865159322426535e-02
4.020000000000000284e+01,6.074104123193172639e-02
4.024000000000000199e+01,6.057955614565990049e-02
4.028000000000000114e+01,4.875539020371805199e-02
4.032000000000000028e+01,5.386493878190795614e-02
4.035999999999999943e+01,6.073134457641132106e-02
4.039999999999999858e+01,4.363382810510735288e-02
4.043999999999999773e+01,3.276634871020713685e-02
4.047999999999999687e+01,2.509353523260464749e-02
4.052000000000000313e+01,3.770932248995310238e-02
4.056000000000000227e+01,4.393439262028606129e-02
4.060000000000000142e+01,2.971018309627196721e-02
4.064000000000000057e+01,3.497579345521973498e-02
4.067999999999999972e+01,3.896289251087807493e-02
4.071999999999999886e+01,3.176658404857991141e-02
4.075999999999999801e+01,3.096007207590154367e-02
4.079999999999999716e+01,3.334822903709584729e-02
4.084000000000000341e+01,3.365909422008344504e-02
4.088000000000000256e+01,3.588657791795987761e-02
4.092000000000000171e+01,2.900748913957163985e-02
4.096000000000000085e+01,3.283162144546815375e-02
4.100000000000000000e+01,2.722966923596185917e-02
4.103999999999999915e+01,2.721873417237372431e-02
4.107999999999999829e+01,3.247930383849377545e-02
4.111999999999999744e+01,3.134916165660461829e-02
4.115999999999999659e+01,2.462708998698290644e-02
4.120000000000000284e+01,2.956678004392295986e-02
4.124000000000000199e+01,2.348282388148192901e-02
4.128000000000000114e+01,2.762282262997790491e-02
4.132000000000000028e+01,3.176236728146202698e-02
4.135999999999999943e+01,2.775388198431781583e-02
4.139999999999999858e+01,2.805836605361110639e-02
4.143999999999999773e+01,3.459289662610519345e-02
4.147999999999999687e+01,3.729282109049218696e-02
4.152000000000000313e+01,3.583862703056206467e-02
4.156000000000000227e+01,4.173277538153497002e-02
4.160000000000000142e+01,3.788133207990138085e-02
4.164000000000000057e+01,3.882212959705940575e-02
4.167999999999999972e+01,6.292715392379001627e-02
4.171999999999999886e+01,5.444142300947411861e-02
4.175999999999999801e+01,6.768211208910601684e-02
4.179999999999999716e+01,8.731260746222657687e-02
4.184000000000000341e+01,1.198829217681865178e-01
4.188000000000000256e+01,1.556479151889599288e-01
4.192000000000000171e+01,1.958856392747461983e-01
4.196000000000000085e+01,1.984204056894069146e-01
4.200000000000000000e+01,2.047888779366604517e-01
4.203999999999999915e+01,1.859153922049261165e-01
4.207999999999999829e+01,1.606512036749077887e-01
4.211999999999999744e+01,1.208487364949888121e-01
4.215999999999999659e+01,1.082044105655287497e-01
4.220000000000000284e+01,8.405717827648988283e-02
4.224000000000000199e+01,7.237049950108637164e-02
4.228000000000000114e+01,5.796751693550000056e-02
4.232000000000000028e+01,5.107264034182332213e-02
4.235999999999999943e+01,4.337853747179895580e-02
4.239999999999999858e+01,4.383156691439184932e-02
4.243999999999999773e+01,4.987562670041872231e-02
4.247999999999999687e+01,4.713264150926609747e-02
4.252000000000000313e+01,5.621118688468816627e-02
4.256000000000000227e+01,7.072100733811889639e-02
4.260000000000000142e+01,7.931939908512290749e-02
4.264000000000000057e+01,7.082341473790554343e-02
4.267999999999999972e+01,9.395875564902805843e-02
4.271999999999999886e+01,8.418383795261913383e-02
4.275999999999999801e+01,7.297067216401748047e-02
4.279999999999999716e+01,7.134245002852043771e-02
4.284000000000000341e+01,5.948937873972225121e-02
4.288000000000000256e+01,4.811513724963840249e-02
4.292000000000000171e+01,3.530264917564932686e-02
4.296000000000000085e+01,4.054219528502264747e-02
4.300000000000000000e+01,3.204225302328145980e-02
4.303999999999999915e+01,4.287239687217407613e-02
4.307999999999999829e+01,2.254960587023253915e-02
4.311999999999999744e+01,2.938496516847500031e-02
4.315999999999999659e+01,2.839182427960561944e-02
4.320000000000000284e+01,2.548117025641133057e-02
4.324000000000000199e+01,3.071765646434378161e-02
4.328000000000000114e+01,3.882932219132353979e-02
4.332000000000000028e+01,2.345636236866606092e-02
4.335999999999999943e+01,2.389885094711642621e-02
4.339999999999999858e+01,2.833481495231643388e-02
4.343999999999999773e+01,1.983007671739737965e-02
4.347999999999999687e+01,2.602249323831522590e-02
4.352000000000000313e+01,3.157545081461079345e-02
4.356000000000000227e+01,2.434746367864394634e-02
4.360000000000000142e+01,2.942028648011539571e-02
4.364000000000000057e+01,2.442802406636426088e-02
4.367999999999999972e+01,3.732804622662836552e-02
4.371999999999999886e+01,3.632883040643092309e-02
4.375999999999999801e+01,2.542428689886746390e-02
4.379999999999999716e+01,2.809860638722933360e-02
4.384000000000000341e+01,3.412737986356763342e-02
4.388000000000000256e+01,2.274227614163103206e-02
4.392000000000000171e+01,3.324336917216468706e-02
4.396000000000000085e+01,2.760863693169479660e-02
4.400000000000000000e+01,2.836373172366686221e-02
4.403999999999999915e+01,3.582816671843477158e-02
4.407999999999999829e+01,3.786045614835827078e-02
4.411999999999999744e+01,3.478011318379114342e-02
4.415999999999999659e+01,3.569325281033931818e-02
4.420000000000000284e+01,4.411451613117554904e-02
4.424000000000000199e+01,4.310972547943119765e-02
4.428000000000000114e+01,5.121062324252814713e-02
4.432000000000000028e+01,5.020498058047014045e-02
4.435999999999999943e+01,5.846478348403816305e-02
4.439999999999999858e+01,6.592537934192431448e-02
4.443999999999999773e+01,5.884771842007890941e-02
4.447999999999999687e+01,6.870381123384072808e-02
4.452000000000000313e+01,6.977287830108887257e-02
4.456000000000000227e+01,6.269394558545901552e-02
4.460000000000000142e+01,5.689264086583906144e-02
4.464000000000000057e+01,6.243361750768056800e-02
4.467999999999999972e+01,5.231804485573521291e-02
4.471999999999999886e+01,4.619596007391145454e-02
4.475999999999999801e+01,4.774176066202301394e-02
4.479999999999999716e+01,4.577249923227540152e-02
4.484000000000000341e+01,3.581499705579394011e-02
4.488000000000000256e+01,2.857293308459401063e-02
4.492000000000000171e+01,3.107558914794926810e-02
4.496000000000000085e+01,2.926440271852808264e-02
4.500000000000000000e+01,2.250034858683861230e-02
4.503999999999999915e+01,3.650420698914536716e-02
4.507999999999999829e+01,3.948445537097151903e-02
4.511999999999999744e+01,2.345327427734148623e-02
4.515999999999999659e+01,3.042659640189666892e-02
4.520000000000000284e+01,2.541777125734116446e-02
4.524000000000000199e+01,3.286952790681203079e-02
4.528000000000000114e+01,4.175867535915565865e-02
4.532000000000000028e+01,4.329861217619172115e-02
4.535999999999999943e+01,5.218692722595945355e-02
4.539999999999999858e+01,6.778459529896682656e-02
4.543999999999999773e+01,1.020733465203569473e-01
4.547999999999999687e+01,1.534556173007922131e-01
4.552000000000000313e+01,2.270436127098548196e-01
4.556000000000000227e+01,2.630884407809018222e-01
4.560000000000000142e+01,2.673413321700794931e-01
4.564000000000000057e+01,2.383644796846909886e-01
4.567999999999999972e+01,2.061920862703065516e-01
4.571999999999999886e+01,1.620375504887459073e-01
4.575999999999999801e+01,1.199594356214842977e-01
4.579999999999999716e+01,7.756139609597954843e-02
4.584000000000000341e+01,6.056421214849607576e-02
4.588000000000000256e+01,5.602761602818905756e-02
4.592000000000000171e+01,3.136130319737685801e-02
4.596000000000000085e+01,3.784707735487572583e-02
4.600000000000000000e+01,3.091290421493304158e-02
4.603999999999999915e+01,2.749296219856110085e-02
4.607999999999999829e+01,2.998359763244612050e-02
4.611999999999999744e+01,3.279333701122674749e-02
4.615999999999999659e+01,2.905265565641407949e-02
4.620000000000000284e+01,3.170182207299676591e-02
4.624000000000000199e+01,2.588349175043857392e-02
4.628000000000000114e+01,2.805257391982900195e-02
4.632000000000000028e+01,3.389564624893438155e-02
4.635999999999999943e+01,3.766147883575236832e-02
4.639999999999999858e+01,4.685862269947949077e-02
4.643999999999999773e+01,4.119801584378710718e-02
4.647999999999999687e+01,5.662484788996055562e-02
4.652000000000000313e+01,6.550126259618763158e-02
4.656000000000000227e+01,7.469678539510096749e-02
4.660000000000000142e+01,7.686262241828886732e-02
4.664000000000000057e+01,6.257314664100717405e-02
4.667999999999999972e+01,5.866743307600717772e-02
4.671999999999999886e+01,4.932959883290680830e-02
4.675999999999999801e+01,4.270722051746633774e-02
4.679999999999999716e+01,4.103688805973095682e-02
4.684000000000000341e+01,2.866247496595952793e-02
4.688000000000000256e+01,3.162427426569856814e-02
4.692000000000000171e+01,2.691736521972341173e-02
4.696000000000000085e+01,1.438199180846493931e-02
4.700000000000000000e+01,2.181576742452007167e-02
4.703999999999999915e+01,1.902473347982144847e-02
4.707999999999999829e+01,2.565892713827756452e-02
4.711999999999999744e+01,6.571941515951711457e-03
4.715999999999999659e+01,1.687973383104292985e-02
4.720000000000000284e+01,1.552491052389936080e-02
4.724000000000000199e+01,1.257212495997264180e-02
4.728000000000000114e+01,1.233480022564026335e-02
4.732000000000000028e+01,1.976538499384351485e-02
4.735999999999999943e+01,2.719557260288867073e-02
4.739999999999999858e+01,2.200460809521283950e-02
4.743999999999999773e+01,1.537543961275415760e-02
4.747999999999999687e+01,1.242027222509487633e-02
4.752000000000000313e+01,1.393788829251169266e-02
4.756000000000000227e+01,1.960877539879451667e-02
4.760000000000000142e+01,1.569388380989367171e-02
4.764000000000000057e+01,2.360057105276814476e-02
4.767999999999999972e+01,2.048367278483417472e-02
4.771999999999999886e+01,1.688711156146624828e-02
4.775999999999999801e+01,1.648528488247805526e-02
4.779999999999999716e+01,2.215380826447857845e-02
4.784000000000000341e+01,2.239022152639137675e-02
4.788000000000000256e+01,2.997503677656414983e-02
4.792000000000000171e+01,2.749480715820552465e-02
4.796000000000000085e+01,2.661175000317650072e-02
4.800000000000000000e+01,3.259782677770033804e-02
4.803999999999999915e+01,2.787983422834455424e-02
4.807999999999999829e+01,3.226756591565859561e-02
4.811999999999999744e+01,2.451342146346828163e-02
4.815999999999999659e+01,2.618451479537346749e-02
4.820000000000000284e+01,3.328693637242234604e-02
4.824000000000000199e+01,2.569138059492729123e-02
4.828000000000000114e+01,2.544423057641106989e-02
4.832000000000000028e+01,2.216132091228388903e-02
4.835999999999999943e+01,3.405488119668578090e-02
4.839999999999999858e+01,2.134556904309245842e-02
4.843999999999999773e+01,2.333345840224912426e-02
4.847999999999999687e+01,2.468193557369657842e-02
4.852000000000000313e+01,2.235562939832872256e-02
4.856000000000000227e+01,2.482162927518766563e-02
4.860000000000000142e+01,1.738234709037799267e-02
4.864000000000000057e+01,2.032684559437215530e-02
4.867999999999999972e+01,1.751972910350612159e-02
4.871999999999999886e+01,2.381834288246006612e-02
4.875999999999999801e+01,2.101045809123769023e-02
4.879999999999999716e+01,1.388876700613935096e-02
4.884000000000000341e+01,2.114476841122786208e-02
4.888000000000000256e+01,2.216988751689278822e-02
4.892000000000000171e+01,1.696412470020599444e-02
4.896000000000000085e+01,1.958604324264285115e-02
4.900000000000000000e+01,2.045025972281831056e-02
4.903999999999999915e+01,1.668115937826717896e-02
4.907999999999999829e+01,1.674583160803157222e-02
4.911999999999999744e+01,1.824793083956919790e-02
4.915999999999999659e+01,1.703379113728725747e-02
4.920000000000000284e+01,1.853513036404984271e-02
4.924000000000000199e+01,1.460437266824053497e-02
4.928000000000000114e+01,1.945983772797554509e-02
4.932000000000000028e+01,1.808442463607767489e-02
4.935999999999999943e+01,1.575009485877006121e-02
4.939999999999999858e+01,1.916661743204434859e-02
4.943999999999999773e+01,1.539372460505574434e-02
4.947999999999999687e+01,1.481558253653768135e-02
4.952000000000000313e+01,9.923640961437473970e-03
4.956000000000000227e+01,1.429719397130762952e-02
4.960000000000000142e+01,1.739231976491740703e-02
4.964000000000000057e+01,1.793096754621115521e-02
4.967999999999999972e+01,2.118509878141194500e-02
4.971999999999999886e+01,1.868762482562155020e-02
4.975999999999999801e+01,2.625442932336561133e-02
4.979999999999999716e+01,1.241350251344915979e-02
4.984000000000000341e+01,1.790272591638605165e-02
4.988000000000000256e+01,1.125008977098119513e-02
4.992000000000000171e+01,1.881539990006303453e-02
4.996000000000000085e+01,1.775349196104780702e-02
5.000000000000000000e+01,1.621194255969573075e-02
5.003999999999999915e+01,1.818466198910246093e-02
5.007999999999999829e+01,1.935822791703419379e-02
5.011999999999999744e+01,2.021190991048572166e-02
5.015999999999999659e+01,1.850911879355561507e-02
5.020000000000000284e+01,1.249253458026528679e-02
5.024000000000000199e+01,1.685974613865395128e-02
5.028000000000000114e+01,8.925345522778724283e-03
5.032000000000000028e+01,1.552840774539091494e-02
5.035999999999999943e+01,1.254571729077912090e-02
5.039999999999999858e+01,2.314195204895276234e-02
5.043999999999999773e+01,1.264997432589790027e-02
5.047999999999999687e+01,1.973083248579596619e-02
5.052000000000000313e+01,2.201863137598602735e-02
5.056000000000000227e+01,2.015239696010377377e-02
5.060000000000000142e+01,2.132116746406371652e-02
5.064000000000000057e+01,2.105176415899127212e-02
5.067999999999999972e+01,1.998321300852201957e-02
5.071999999999999886e+01,1.523989925019085707e-02
5.075999999999999801e+01,2.519380887477868161e-02
5.079999999999999716e+01,1.821317572444955402e-02
5.084000000000000341e+01,1.953951084554526527e-02
5.088000000000000256e+01,2.310207154278161659e-02
5.092000000000000171e+01,2.474719188056584418e-02
5.096000000000000085e+01,1.904315475017759329e-02
5.100000000000000000e+01,2.100706181293785640e-02
5.103999999999999915e+01,1.817791450792456340e-02
5.107999999999999829e+01,1.311181555846478719e-02
5.111999999999999744e+01,2.418075095533944383e-02
5.115999999999999659e+01,2.742126157947815876e-02
5.120000000000000284e+01,1.724187392551960324e-02
5.124000000000000199e+01,2.335727814575208616e-02
5.128000000000000114e+01,2.148450232782334393e-02
5.132000000000000028e+01,2.823821209946383512e-02
5.135999999999999943e+01,2.604520420724117102e-02
5.139999999999999858e+01,2.944331112255346022e-02
5.143999999999999773e+01,2.485323950799206774e-02
5.147999999999999687e+01,3.208478292410643640e-02
5.152000000000000313e+01,2.350008512908431310e-02
5.156000000000000227e+01,2.178455482301232607e-02
5.160000000000000142e+01,2.214550048373390215e-02
5.164000000000000057e+01,1.739388463947818403e-02
5.167999999999999972e+01,2.542242409110330448e-02
5.171999999999999886e+01,1.859326259679708326e-02
5.175999999999999801e+01,2.071010363313267877e-02
5.179999999999999716e+01,1.627657710301000024e-02
5.184000000000000341e+01,1.727441313157208891e-02
5.188000000000000256e+01,1.635481785040713773e-02
5.192000000000000171e+01,1.575438118956030628e-02
5.196000000000000085e+01,1.403529595633497273e-02
5.200000000000000000e+01,1.103780613116208884e-02
5.203999999999999915e+01,2.625219248130915284e-02
5.207999999999999829e+01,2.389302253627567305e-02
5.211999999999999744e+01,1.722007759433226426e-02
5.215999999999999659e+01,1.821508778062185668e-02
5.220000000000000284e+01,2.352316914275646639e-02
5.224000000000000199e+01,2.164186149965969738e-02
5.228000000000000114e+01,2.023947226716894116e-02
5.232000000000000028e+01,1.548184830297327612e-02
5.235999999999999943e+01,1.599583540275582513e-02
5.239999999999999858e+01,2.226070313351136837e-02
5.243999999999999773e+01,2.437155528057288398e-02
5.247999999999999687e+01,2.488449456726748651e-02
5.252000000000000313e+01,1.772877829831100843e-02
5.256000000000000227e+01,1.856053372158825848e-02
5.260000000000000142e+01,2.210780012501982819e-02
5.264000000000000057e+01,1.942421967378453462e-02
5.267999999999999972e+01,2.041468933669296146e-02
5.271999999999999886e+01,2.140481236807520796e-02
5.275999999999999801e+01,1.185066696670060253e-02
5.279999999999999716e+01,2.114743049157556329e-02
5.284000000000000341e+01,2.245602868409248692e-02
5.288000000000000256e+01,2.136793580375657628e-02
5.292000000000000171e+01,1.948071619404916771e-02
5.296000000000000085e+01,1.951022897493822836e-02
5.300000000000000000e+01,1.251011631160257181e-02
5.303999999999999915e+01,1.797065897130978654e-02
5.307999999999999829e+01,2.119426884016443330e-02
5.311999999999999744e+01,2.441753584821170983e-02
5.315999999999999659e+01,2.268801207665413835e-02
5.320000000000000284e+01,2.734840206407085014e-02
5.324000000000000199e+01,2.130477174695230916e-02
5.328000000000000114e+01,1.701812044036437113e-02
5.332000000000000028e+01,1.880187123068449359e-02
5.335999999999999943e+01,2.170357619911515018e-02
5.339999999999999858e+01,2.268786418655019746e-02
5.343999999999999773e+01,2.606815827936720051e-02
5.347999999999999687e+01,2.257858784946291733e-02
5.352000000000000313e+01,2.627771617831275303e-02
5.356000000000000227e+01,3.093504417399163195e-02
5.360000000000000142e+01,3.063958553785624955e-02
5.364000000000000057e+01,2.794744299323369610e-02
5.367999999999999972e+01,3.484034666526699547e-02
5.371999999999999886e+01,3.358533690388279536e-02
5.375999999999999801e+01,3.808122059391544356e-02
5.379999999999999716e+01,2.979625610208675932e-02
5.384000000000000341e+01,2.614389103933207475e-02
5.388000000000000256e+01,2.696436938608226183e-02
5.392000000000000171e+01,2.538816646384846332e-02
5.396000000000000085e+01,2.700675653213577276e-02
5.400000000000000000e+01,2.718720446542848349e-02
5.403999999999999915e+01,1.810144720539205720e-02
5.407999999999999829e+01,2.128652032214344014e-02
5.411999999999999744e+01,2.778624740365253157e-02
5.415999999999999659e+01,1.935579456702905821e-02
5.420000000000000284e+01,2.383575231246035098e-02
5.424000000000000199e+01,1.854058646305917213e-02
5.428000000000000114e+01,2.422956199645129316e-02
5.432000000000000028e+01,2.043913216712372680e-02
5.435999999999999943e+01,1.849137526729380254e-02
5.439999999999999858e+01,2.775430202128903803e-02
5.443999999999999773e+01,2.226433995605150637e-02
5.447999999999999687e+01,1.927862352278463670e-02
5.452000000000000313e+01,1.760749738528122332e-02
5.456000000000000227e+01,1.982751966518045070e-02
5.460000000000000142e+01,2.528884970066220747e-02
5.464000000000000057e+01,2.171558449822464168e-02
5.467999999999999972e+01,1.879405879356194076e-02
5.471999999999999886e+01,2.643653342957501956e-02
5.475999999999999801e+01,1.903487707401944895e-02
5.479999999999999716e+01,2.177610058117830649e-02
5.484000000000000341e+01,2.325945503978962825e-02
5.488000000000000256e+01,2.163229053286080950e-02
5.492000000000000171e+01,2.252908556177485658e-02
5.496000000000000085e+01,1.546558594434239119e-02
5.500000000000000000e+01,1.362346173214681530e-02
5.503999999999999915e+01,2.310289967551897722e-02
5.507999999999999829e+01,1.863861720198328048e-02
5.511999999999999744e+01,2.431003225617180130e-02
5.515999999999999659e+01,1.922047132153117954e-02
5.520000000000000284e+01,1.748511163443305233e-02
5.524000000000000199e+01,2.154600228552101468e-02
5.528000000000000114e+01,2.074176537571337936e-02
5.532000000000000028e+01,2.187920115893208714e-02
5.535999999999999943e+01,2.632027947441446455e-02
5.539999999999999858e+01,1.975633841908050817e-02
5.543999999999999773e+01,2.120237432629850510e-02
5.547999999999999687e+01,2.490593829788306443e-02
5.552000000000000313e+01,2.073355555358094224e-02
5.556000000000000227e+01,1.906960098846550988e-02
5.560000000000000142e+01,2.251492146182049181e-02
5.564000000000000057e+01,2.359679201705349241e-02
5.567999999999999972e+01,2.216765666325029929e-02
5.571999999999999886e+01,3.239872799020214467e-02
5.575999999999999801e+01,3.639898187409368324e-02
5.579999999999999716e+01,3.672452103825198794e-02
5.584000000000000341e+01,2.378996206129204913e-02
5.588000000000000256e+01,3.114414861488481318e-02
5.592000000000000171e+01,3.498337797660095588e-02
5.596000000000000085e+01,3.019544583100199422e-02
5.600000000000000000e+01,3.115842825284512174e-02
5.603999999999999915e+01,2.780767263082246574e-02
5.607999999999999829e+01,2.733221719084865525e-02
5.611999999999999744e+01,2.925279312007259686e-02
5.615999999999999659e+01,1.999010708108564863e-02
5.620000000000000284e+01,2.814055444968951991e-02
5.624000000000000199e+01,2.351017663781668904e-02
5.628000000000000114e+01,1.903924215045588869e-02
5.632000000000000028e+01,2.399362236985410832e-02
5.635999999999999943e+01,2.159889602578358644e-02
5.639999999999999858e+01,2.080142170720926040e-02
5.643999999999999773e+01,2.527559691394487551e-02
5.647999999999999687e+01,3.086775571039772348e-02
5.652000000000000313e+01,2.080347682633994222e-02
5.656000000000000227e+01,2.927062952000647825e-02
5.660000000000000142e+01,2.399842204699761949e-02
5.664000000000000057e+01,2.176127643168477427e-02
5.667999999999999972e+01,2.064211629144854440e-02
5.671999999999999886e+01,2.096045479664260594e-02
5.675999999999999801e+01,2.367483070418461774e-02
5.679999999999999716e+01,2.894500078778730265e-02
5.684000000000000341e+01,2.494899207309242070e-02
5.688000000000000256e+01,2.750268820462577202e-02
5.692000000000000171e+01,2.749997495092510597e-02
5.696000000000000085e+01,2.813598062188132215e-02
5.700000000000000000e+01,3.484242308035855745e-02
5.703999999999999915e+01,3.004609907292430868e-02
5.707999999999999829e+01,4.074584000897073233e-02
5.711999999999999744e+01,3.291353378104779071e-02
5.715999999999999659e+01,4.073704964739028461e-02
5.720000000000000284e+01,3.306389064008510847e-02
5.724000000000000199e+01,2.858555554319508474e-02
5.728000000000000114e+01,3.001790347668835054e-02
5.732000000000000028e+01,2.681701263933401400e-02
5.735999999999999943e+01,3.304144631260752529e-02
5.739999999999999858e+01,2.920092448338507465e-02
5.743999999999999773e+01,2.823571565665530109e-02
5.747999999999999687e+01,2.072019280767410654e-02
5.752000000000000313e+01,2.502634192722257706e-02
5.756000000000000227e+01,2.294193417530430296e-02
5.760000000000000142e+01,3.315846833598221077e-02
5.764000000000000057e+01,2.468320383798420364e-02
5.767999999999999972e+01,2.195886974444727011e-02
5.771999999999999886e+01,2.562449201900699608e-02
5.775999999999999801e+01,2.737273841340604266e-02
5.779999999999999716e+01,1.777798190290031180e-02
5.784000000000000341e+01,2.799272020954658019e-02
5.788000000000000256e+01,2.798275114191844937e-02
5.792000000000000171e+01,2.653467689234001101e-02
5.796000000000000085e+01,3.227534325649426133e-02
5.800000000000000000e+01,2.843032896415354990e-02
5.803999999999999915e+01,2.714112053710185379e-02
5.807999999999999829e+01,2.712966717928347662e-02
5.811999999999999744e+01,2.424230295510558519e-02
5.815999999999999659e+01,2.902295041994266966e-02
5.820000000000000284e+01,3.156671335912784870e-02
5.824000000000000199e+01,2.835895142363207763e-02
5.828000000000000114e+01,2.946431797890700435e-02
5.832000000000000028e+01,3.504256979866551130e-02
5.835999999999999943e+01,4.046077175739187792e-02
5.839999999999999858e+01,3.469573286393261985e-02
5.843999999999999773e+01,3.532065712586388018e-02
5.847999999999999687e+01,4.281481411018046856e-02
5.852000000000000313e+01,4.184159011642313297e-02
5.856000000000000227e+01,4.582052283950346916e-02
5.860000000000000142e+01,4.580525444460027684e-02
5.864000000000000057e+01,4.531042603488621284e-02
5.867999999999999972e+01,4.896897349002069660e-02
5.871999999999999886e+01,4.064550112633983497e-02
5.875999999999999801e+01,3.200222627570472461e-02
5.879999999999999716e+01,2.942940518082519386e-02
5.884000000000000341e+01,3.516362777174638493e-02
5.888000000000000256e+01,2.476216573947510186e-02
5.892000000000000171e+01,2.170920976730259314e-02
5.896000000000000085e+01,2.648402942222361986e-02
5.900000000000000000e+01,2.438903659034285035e-02
5.903999999999999915e+01,2.964255094977644167e-02
5.907999999999999829e+01,2.866527916311575538e-02
5.911999999999999744e+01,2.577064431673831840e-02
5.915999999999999659e+01,2.862695382648142162e-02
5.920000000000000284e+01,2.716955508103725131e-02
5.924000000000000199e+01,2.683016594326996171e-02
5.928000000000000114e+01,2.073926173469057069e-02
5.932000000000000028e+01,2.023954699387836564e-02
5.935999999999999943e+01,3.315908553331166353e-02
5.939999999999999858e+01,2.099658613959384107e-02
5.943999999999999773e+01,2.129480240041953937e-02
5.947999999999999687e+01,2.622567125745423403e-02
5.952000000000000313e+01,3.067698839525950447e-02
5.956000000000000227e+01,2.586215237565495442e-02
5.960000000000000142e+01,2.967387999949879646e-02
5.964000000000000057e+01,2.054505809733482916e-02
5.967999999999999972e+01,2.323792852558188154e-02
5.971999999999999886e+01,2.992442822590539800e-02
5.975999999999999801e+01,2.478867430792339524e-02
5.979999999999999716e+01,2.428557600272546885e-02
5.984000000000000341e+01,3.097123603363857378e-02
5.988000000000000256e+01,2.887001511363985334e-02
5.992000000000000171e+01,2.708802822833517379e-02
5.996000000000000085e+01,3.073748044730674825e-02
