2.003999999999999915e+01,5.459609949458230083e-02
2.007999999999999829e+01,4.598992659827567248e-02
2.012000000000000099e+01,4.954886747454614188e-02
2.016000000000000014e+01,6.252593093538717783e-02
2.019999999999999929e+01,6.804675361760205432e-02
2.023999999999999844e+01,7.435230046943941407e-02
2.028000000000000114e+01,8.693654740508464929e-02
2.032000000000000028e+01,7.008863482775584686e-02
2.035999999999999943e+01,4.460719184142506594e-02
2.039999999999999858e+01,6.503956996857157558e-02
2.044000000000000128e+01,3.759571289219332257e-02
2.048000000000000043e+01,5.842023465060210141e-02
2.051999999999999957e+01,6.590209332583735202e-02
2.055999999999999872e+01,7.299137792454443718e-02
2.060000000000000142e+01,3.926810479154511924e-02
2.064000000000000057e+01,4.831922380942815093e-02
2.067999999999999972e+01,8.405522562472908521e-02
2.071999999999999886e+01,7.348468517836254099e-02
2.076000000000000156e+01,4.368506365216354853e-02
2.080000000000000071e+01,4.017789145668390627e-02
2.083999999999999986e+01,1.587192585401760864e-02
2.087999999999999901e+01,5.121470068782316143e-02
2.092000000000000171e+01,7.242993688928205109e-02
2.096000000000000085e+01,6.852967616819265195e-02
2.100000000000000000e+01,6.031254762852773094e-02
2.103999999999999915e+01,5.641194322340274681e-02
2.107999999999999829e+01,3.485194852635846441e-02
2.112000000000000099e+01,7.804223240538370188e-02
2.116000000000000014e+01,5.922887013470435474e-02
2.119999999999999929e+01,4.551687739252152642e-02
2.123999999999999844e+01,6.555342338013495085e-02
2.128000000000000114e+01,6.518357927204458668e-02
2.132000000000000028e+01,4.950889397756897542e-02
2.135999999999999943e+01,6.758274095105720747e-02
2.139999999999999858e+01,8.330183359086194839e-02
2.144000000000000128e+01,8.096908954838487327e-02
2.148000000000000043e+01,5.979965265994923590e-02
2.151999999999999957e+01,5.197253517065170830e-02
2.155999999999999872e+01,7.985607420393024680e-02
2.160000000000000142e+01,6.300273160823964547e-02
2.164000000000000057e+01,3.751578967733910225e-02
2.167999999999999972e+01,4.067581171958851993e-02
2.171999999999999886e+01,4.815232127933029294e-02
2.176000000000000156e+01,9.290918461139352491e-02
2.180000000000000071e+01,4.152121790727533734e-02
2.183999999999999986e+01,3.604699477465047458e-02
2.187999999999999901e+01,6.314399489411914868e-02
2.192000000000000171e+01,3.176915098274377819e-02
2.196000000000000085e+01,3.845950408370284179e-02
2.200000000000000000e+01,5.849215073647189705e-02
2.203999999999999915e+01,8.362612168491437292e-02
2.207999999999999829e+01,3.812300283587986838e-02
2.212000000000000099e+01,6.914291886030617118e-02
2.216000000000000014e+01,5.817291213461125987e-02
2.219999999999999929e+01,4.210111896228819345e-02
2.223999999999999844e+01,5.585354062249830304e-02
2.228000000000000114e+01,4.998437234813740693e-02
2.232000000000000028e+01,7.982581967141652579e-02
2.235999999999999943e+01,4.923326424613629071e-02
2.239999999999999858e+01,3.472996986729071089e-02
2.244000000000000128e+01,2.140370819601478819e-02
2.248000000000000043e+01,5.595329065745992952e-02
2.251999999999999957e+01,4.537351494435719335e-02
2.255999999999999872e+01,4.342687856945273706e-02
2.260000000000000142e+01,4.030270425714388427e-02
2.264000000000000057e+01,6.818000425252677965e-02
2.267999999999999972e+01,5.328249948678413089e-02
2.271999999999999886e+01,6.742432969651393493e-02
2.276000000000000156e+01,5.488085803675058633e-02
2.280000000000000071e+01,3.252644356280286198e-02
2.283999999999999986e+01,3.881893059762887149e-02
2.287999999999999901e+01,5.923851780723025928e-02
2.292000000000000171e+01,4.512425443423561527e-02
2.296000000000000085e+01,3.807340084053350421e-02
2.300000000000000000e+01,2.945256076512050430e-02
2.303999999999999915e+01,7.577122075480745289e-02
2.307999999999999829e+01,2.359041975290649198e-02
2.312000000000000099e+01,5.146444281966396084e-02
2.316000000000000014e+01,7.423662774513722917e-02
2.319999999999999929e+01,7.934930821965929804e-02
2.323999999999999844e+01,5.856151498709306208e-02
2.328000000000000114e+01,6.602817256505046084e-02
2.332000000000000028e+01,5.151862217669486016e-02
2.335999999999999943e+01,8.723943056349058034e-02
2.339999999999999858e+01,6.958986628677733821e-02
2.344000000000000128e+01,6.371281000042543219e-02
2.348000000000000043e+01,3.389740210765242873e-02
2.351999999999999957e+01,4.803351229639345188e-02
2.355999999999999872e+01,1.154623023991381559e-02
2.360000000000000142e+01,4.883491432690289374e-02
2.364000000000000057e+01,3.510777485591706770e-02
2.367999999999999972e+01,6.297758282147088160e-02
2.371999999999999886e+01,8.182125244186136404e-02
2.376000000000000156e+01,4.964909204244489366e-02
2.380000000000000071e+01,4.141465739875060253e-02
2.383999999999999986e+01,2.178165675545316871e-03
2.387999999999999901e+01,5.516169424691880208e-02
2.392000000000000171e+01,7.047190234816562426e-02
2.396000000000000085e+01,6.302101401026269367e-02
2.400000000000000000e+01,2.378320596734011250e-02
2.403999999999999915e+01,4.105455216038270128e-02
2.407999999999999829e+01,3.360266042811210080e-02
2.412000000000000099e+01,3.321411601075851400e-02
2.416000000000000014e+01,3.478736569111511023e-02
2.419999999999999929e+01,8.855306393813110188e-02
2.423999999999999844e+01,5.598447588004110825e-02
2.428000000000000114e+01,4.774601473521131872e-02
2.432000000000000028e+01,1.105364919287938480e-01
2.435999999999999943e+01,4.657269485420401783e-02
2.439999999999999858e+01,3.283920055222153828e-02
2.444000000000000128e+01,4.304339754285743669e-02
2.448000000000000043e+01,6.070334946778062346e-02
2.451999999999999957e+01,3.755053257448633108e-02
2.455999999999999872e+01,4.422180558497331576e-02
2.460000000000000142e+01,3.598048779053410196e-02
2.464000000000000057e+01,2.028269012968490770e-02
2.467999999999999972e+01,3.323169489618599259e-02
2.471999999999999886e+01,5.991527375117216420e-02
2.476000000000000156e+01,2.498743960636054876e-02
2.480000000000000071e+01,5.834152891856830836e-02
2.483999999999999986e+01,6.069350730266541427e-02
2.487999999999999901e+01,3.400550762903925550e-02
2.492000000000000171e+01,3.400216243476788386e-02
2.496000000000000085e+01,2.418775811333678458e-02
2.500000000000000000e+01,3.046247483198085901e-02
2.503999999999999915e+01,1.947001502311658180e-02
2.507999999999999829e+01,1.043929977125058681e-02
2.512000000000000099e+01,2.024468813169253908e-02
2.516000000000000014e+01,5.124073997969631061e-02
2.519999999999999929e+01,6.026048262601949035e-02
2.523999999999999844e+01,2.140373159553855820e-02
2.528000000000000114e+01,5.161373218448237626e-02
2.532000000000000028e+01,3.002296474007090654e-02
2.535999999999999943e+01,3.197741204269927140e-02
2.539999999999999858e+01,3.039960860264555309e-02
2.544000000000000128e+01,4.020177845088700880e-02
2.548000000000000043e+01,2.802762401983959276e-02
2.551999999999999957e+01,1.781519045240718968e-02
2.555999999999999872e+01,3.664193893042360511e-02
2.560000000000000142e+01,6.292438203229556992e-02
2.564000000000000057e+01,4.368487194712179084e-02
2.567999999999999972e+01,4.681327836283719762e-02
2.571999999999999886e+01,6.681562105736849055e-02
2.576000000000000156e+01,6.091735434633990809e-02
2.580000000000000071e+01,3.304274612447056364e-02
2.583999999999999986e+01,5.814535216728960315e-02
2.587999999999999901e+01,6.284132041084534992e-02
2.592000000000000171e+01,2.790172546274287749e-02
2.596000000000000085e+01,6.163641851215073686e-02
2.600000000000000000e+01,2.473381067757039753e-02
2.603999999999999915e+01,6.317674561534071531e-02
2.607999999999999829e+01,2.823538632717039615e-02
2.612000000000000099e+01,3.646055110442182612e-02
2.616000000000000014e+01,3.487459213619335113e-02
2.619999999999999929e+01,3.368060939506636875e-02
2.623999999999999844e+01,4.779082691201833044e-02
2.628000000000000114e+01,2.540487789074684019e-02
2.632000000000000028e+01,5.521126327710267068e-02
2.635999999999999943e+01,5.048361284167918184e-02
2.639999999999999858e+01,4.497064684903792631e-02
2.644000000000000128e+01,6.064827541775072439e-02
2.648000000000000043e+01,4.375399672718383731e-02
2.651999999999999957e+01,5.511399437767694476e-02
2.655999999999999872e+01,4.371275558266098094e-02
2.660000000000000142e+01,4.408385461643080094e-02
2.664000000000000057e+01,6.760767246616639081e-02
2.667999999999999972e+01,3.540637899978757441e-02
2.671999999999999886e+01,2.792750806095165017e-02
2.676000000000000156e+01,3.418310135945752670e-02
2.680000000000000071e+01,5.535043775595947096e-02
2.683999999999999986e+01,2.393207025950213826e-02
2.687999999999999901e+01,7.884715643882894698e-02
2.692000000000000171e+01,8.274624243677325408e-02
2.696000000000000085e+01,4.936427126971357215e-02
2.700000000000000000e+01,4.737596663531726954e-02
2.703999999999999915e+01,6.814793227258042485e-02
2.707999999999999829e+01,9.676793984263783177e-02
2.712000000000000099e+01,7.044766641292950216e-02
2.716000000000000014e+01,6.414066775898423500e-02
2.719999999999999929e+01,6.528927757113484054e-02
2.723999999999999844e+01,5.819641350078353509e-02
2.728000000000000114e+01,5.267274851564488630e-02
2.732000000000000028e+01,6.912448471482479651e-02
2.735999999999999943e+01,7.341047052100747872e-02
2.739999999999999858e+01,2.825013831794528918e-02
2.744000000000000128e+01,5.333372243593106909e-02
2.748000000000000043e+01,3.132554626598224590e-02
2.751999999999999957e+01,5.483838080261316944e-02
2.755999999999999872e+01,2.968974272395598010e-02
2.760000000000000142e+01,5.908793215591671283e-02
2.764000000000000057e+01,3.079882355277546724e-02
2.767999999999999972e+01,3.115635583118518334e-02
2.771999999999999886e+01,5.388169475934028591e-02
2.776000000000000156e+01,5.109874358960162649e-02
2.780000000000000071e+01,5.498651456706659529e-02
2.783999999999999986e+01,6.162073548912709586e-02
2.787999999999999901e+01,5.177248096338857297e-02
2.792000000000000171e+01,3.521562475863388580e-02
2.796000000000000085e+01,6.323743043535132169e-02
2.800000000000000000e+01,6.925536612594557218e-02
2.803999999999999915e+01,6.249045653076813756e-02
2.807999999999999829e+01,4.822396706517160375e-02
2.812000000000000099e+01,2.658717881342037570e-02
2.816000000000000014e+01,5.602574701088162967e-02
2.819999999999999929e+01,4.637004270923459487e-02
2.823999999999999844e+01,4.263407392335624713e-02
2.828000000000000114e+01,5.204662735570780852e-02
2.832000000000000028e+01,5.243974437386497711e-02
2.835999999999999943e+01,6.247536005725155828e-02
2.839999999999999858e+01,6.775231830176201009e-02
2.844000000000000128e+01,5.012458697604228047e-02
2.848000000000000043e+01,4.049342734623672529e-02
2.851999999999999957e+01,4.875968851218608069e-02
2.855999999999999872e+01,3.354149146514339569e-02
2.860000000000000142e+01,4.314245502694484535e-02
2.864000000000000057e+01,3.617498440814032046e-02
2.867999999999999972e+01,5.622492291242092016e-02
2.871999999999999886e+01,5.959037408254083679e-02
2.876000000000000156e+01,4.428647667336396004e-02
2.880000000000000071e+01,5.171224037670071882e-02
2.883999999999999986e+01,5.072861933029006176e-02
2.887999999999999901e+01,5.476739640291500288e-02
2.892000000000000171e+01,4.642179074857176457e-02
2.896000000000000085e+01,5.769768340373611359e-02
2.900000000000000000e+01,4.154525842969402499e-02
2.903999999999999915e+01,5.734577862842310525e-02
2.907999999999999829e+01,5.906865666049624514e-02
2.912000000000000099e+01,4.647788684383051538e-02
2.916000000000000014e+01,5.135383657958954989e-02
2.919999999999999929e+01,4.774262918017295465e-02
2.923999999999999844e+01,5.281009337805993298e-02
2.928000000000000114e+01,5.359306818372708975e-02
2.932000000000000028e+01,4.942362214568768453e-02
2.935999999999999943e+01,4.456675215390347444e-02
2.939999999999999858e+01,5.508288550130738259e-02
2.944000000000000128e+01,5.144702384910582182e-02
2.948000000000000043e+01,7.069895218959829086e-02
2.951999999999999957e+01,4.503000893663212240e-02
2.955999999999999872e+01,8.107103674550064643e-02
2.960000000000000142e+01,4.255029976675830244e-02
2.964000000000000057e+01,1.109261285866190369e-02
2.967999999999999972e+01,5.223328367994794358e-02
2.971999999999999886e+01,3.921838750484134967e-02
2.976000000000000156e+01,4.582419909427210003e-02
2.980000000000000071e+01,4.497325295851793692e-02
2.983999999999999986e+01,6.021116723561572431e-02
2.987999999999999901e+01,4.169971015359515143e-02
2.992000000000000171e+01,4.359380623006849781e-02
2.996000000000000085e+01,6.275403727216100069e-02
3.000000000000000000e+01,4.934217150790207868e-02
3.003999999999999915e+01,4.299333427484935966e-02
3.007999999999999829e+01,7.235469477430231389e-02
3.012000000000000099e+01,5.854842287418036972e-02
3.016000000000000014e+01,4.474148695583832908e-02
3.019999999999999929e+01,3.093388486533198492e-02
3.023999999999999844e+01,4.420307778449548280e-02
3.028000000000000114e+01,2.843200186349708475e-02
3.032000000000000028e+01,7.951129250106188720e-03
3.035999999999999943e+01,5.810644272471808536e-02
3.039999999999999858e+01,5.881527664428561758e-02
3.044000000000000128e+01,5.599158842422793242e-02
3.048000000000000043e+01,5.159751093493269991e-02
3.051999999999999957e+01,7.624234840203109043e-02
3.055999999999999872e+01,3.809817953285351416e-02
3.060000000000000142e+01,5.489310363336058485e-02
3.064000000000000057e+01,9.248596912623614774e-02
3.067999999999999972e+01,2.333799727597237611e-02
3.071999999999999886e+01,4.915666642992907315e-02
3.076000000000000156e+01,3.376980374553902736e-02
3.080000000000000071e+01,3.290204175987984647e-02
3.083999999999999986e+01,4.576852430927469406e-02
3.087999999999999901e+01,4.725392092833326230e-02
3.092000000000000171e+01,3.657337545337897844e-02
3.096000000000000085e+01,4.904531616843922637e-02
3.100000000000000000e+01,4.346490540860322577e-02
3.103999999999999915e+01,2.925038913671957827e-02
3.107999999999999829e+01,5.231572476820709611e-02
3.112000000000000099e+01,3.888463323424786594e-02
3.116000000000000014e+01,5.880911924710844479e-02
3.119999999999999929e+01,3.831290373797084647e-02
3.123999999999999844e+01,4.175401335097263938e-02
3.128000000000000114e+01,4.990352269371856053e-02
3.132000000000000028e+01,7.688880178745326199e-02
3.135999999999999943e+01,4.030017745629928955e-02
3.139999999999999858e+01,8.023408828359943068e-02
3.144000000000000128e+01,9.152009481122812262e-02
3.148000000000000043e+01,5.610655266138908637e-02
3.151999999999999957e+01,7.837904297458754554e-02
3.155999999999999872e+01,9.711895083772889570e-02
3.160000000000000142e+01,1.217445222136615685e-01
3.164000000000000057e+01,7.965675904816665875e-02
3.167999999999999972e+01,1.172309320024488427e-01
3.171999999999999886e+01,1.516649408957642386e-01
3.176000000000000156e+01,9.701726950843836406e-02
3.180000000000000071e+01,9.456163743841294878e-02
3.183999999999999986e+01,8.935826185045520065e-02
3.187999999999999901e+01,9.043296170254713773e-02
3.192000000000000171e+01,2.098610313960640530e-02
3.196000000000000085e+01,6.958186711563643656e-02
3.200000000000000000e+01,4.503469216647214279e-02
3.203999999999999915e+01,5.124120077161687520e-02
3.207999999999999829e+01,2.841365536748958337e-02
3.211999999999999744e+01,3.183969130901647543e-02
3.215999999999999659e+01,4.413389778002608371e-02
3.220000000000000284e+01,3.879805103259311577e-02
3.224000000000000199e+01,3.636713682151462845e-02
3.228000000000000114e+01,2.480210176994174925e-02
3.232000000000000028e+01,2.963514395574034718e-02
3.235999999999999943e+01,3.325379476999722195e-02
3.239999999999999858e+01,1.566984314588408533e-02
3.243999999999999773e+01,3.031049517876439892e-02
3.247999999999999687e+01,1.354992629640224336e-02
3.252000000000000313e+01,2.034581253540034343e-02
3.256000000000000227e+01,2.172175191726754065e-02
3.260000000000000142e+01,2.806778139942073258e-02
3.264000000000000057e+01,5.686777138221032341e-03
3.267999999999999972e+01,2.225493314334847650e-02
3.271999999999999886e+01,2.048011655317575480e-02
3.275999999999999801e+01,6.632944724836789541e-03
3.279999999999999716e+01,5.701781490145458459e-03
3.284000000000000341e+01,1.827420117259741239e-02
3.288000000000000256e+01,7.673623446863066591e-03
3.292000000000000171e+01,2.327341099613739611e-02
3.296000000000000085e+01,1.132922311170567534e-02
3.300000000000000000e+01,1.685739734452732647e-02
3.303999999999999915e+01,1.539547173544833850e-02
3.307999999999999829e+01,2.271419491124825746e-02
3.311999999999999744e+01,2.423730611689431380e-02
3.315999999999999659e+01,2.533824884830913893e-03
3.320000000000000284e+01,2.447734170950940924e-03
3.324000000000000199e+01,2.746297541560942246e-02
3.328000000000000114e+01,1.173672077185866636e-02
3.332000000000000028e+01,2.446933848677661227e-02
3.335999999999999943e+01,2.367861739362721665e-02
3.339999999999999858e+01,2.224771907693632450e-02
3.343999999999999773e+01,2.109489428220326021e-02
3.347999999999999687e+01,2.433775329148973876e-02
3.352000000000000313e+01,1.062688734192366452e-02
3.356000000000000227e+01,2.177646976826674158e-02
3.360000000000000142e+01,2.433308723315190381e-02
3.364000000000000057e+01,2.752095924130279481e-02
3.367999999999999972e+01,2.653081267071340926e-02
3.371999999999999886e+01,1.907833796738868729e-02
3.375999999999999801e+01,2.237108090351188489e-02
3.379999999999999716e+01,2.245550564619300249e-02
3.384000000000000341e+01,2.517826980160840084e-02
3.388000000000000256e+01,4.112461766943383695e-02
3.392000000000000171e+01,6.923533619916064086e-02
3.396000000000000085e+01,7.379956579400676064e-02
3.400000000000000000e+01,7.561593555794499100e-02
3.403999999999999915e+01,5.231610405964921134e-02
3.407999999999999829e+01,8.787944818657439372e-02
3.411999999999999744e+01,6.143844828594070134e-02
3.415999999999999659e+01,8.169538255178314390e-02
3.420000000000000284e+01,1.211803584895131541e-01
3.424000000000000199e+01,7.079866659234156090e-02
3.428000000000000114e+01,1.091045919205135550e-01
3.432000000000000028e+01,1.136609068017838953e-01
3.435999999999999943e+01,9.937983526712999838e-02
3.439999999999999858e+01,1.051116486443763737e-01
3.443999999999999773e+01,1.124122755508607102e-01
3.447999999999999687e+01,8.596328339466752233e-02
3.452000000000000313e+01,5.087999833329900218e-02
3.456000000000000227e+01,5.032938874810988922e-02
3.460000000000000142e+01,6.665223726617032496e-02
3.464000000000000057e+01,9.513941767514023928e-02
3.467999999999999972e+01,2.748107447796295857e-02
3.471999999999999886e+01,3.359809862782400097e-02
3.475999999999999801e+01,2.794140090991511019e-02
3.479999999999999716e+01,2.228378931628275175e-02
3.484000000000000341e+01,2.054953174164654561e-02
3.488000000000000256e+01,5.766462946516748983e-02
3.492000000000000171e+01,4.023145317471050336e-02
3.496000000000000085e+01,1.455638729056069232e-02
3.500000000000000000e+01,4.146561541305835569e-02
3.503999999999999915e+01,4.011917238579144201e-02
3.507999999999999829e+01,2.503685523487090767e-02
3.511999999999999744e+01,3.310680026378971796e-02
3.515999999999999659e+01,4.313794705582089939e-02
3.520000000000000284e+01,2.687554910664317898e-02
3.524000000000000199e+01,5.691860016258753346e-02
3.528000000000000114e+01,7.690456512477717409e-03
3.532000000000000028e+01,4.283317703163780354e-02
3.535999999999999943e+01,5.913845728627391274e-02
3.539999999999999858e+01,3.070611280126270271e-02
3.543999999999999773e+01,4.465493650298996836e-02
3.547999999999999687e+01,3.623447043456399369e-02
3.552000000000000313e+01,6.234662814766155775e-02
3.556000000000000227e+01,4.764542255399935311e-02
3.560000000000000142e+01,3.647510304953104771e-02
3.564000000000000057e+01,2.805081347057996818e-02
3.567999999999999972e+01,3.649992383839049948e-02
3.571999999999999886e+01,3.474496866324081057e-02
3.575999999999999801e+01,5.378767917562830153e-02
3.579999999999999716e+01,2.966245142839413207e-02
3.584000000000000341e+01,7.656554168370205415e-02
3.588000000000000256e+01,3.360187579240456884e-02
3.592000000000000171e+01,5.891953456169674724e-02
3.596000000000000085e+01,2.497973925607082160e-02
3.600000000000000000e+01,3.852263304523010495e-02
3.603999999999999915e+01,2.577193686035660763e-02
3.607999999999999829e+01,5.736450942344949872e-02
3.611999999999999744e+01,7.331280018466414077e-03
3.615999999999999659e+01,5.265682568618715309e-02
3.620000000000000284e+01,2.420510517527099323e-02
3.624000000000000199e+01,5.618615199606541433e-02
3.628000000000000114e+01,3.047943552985532892e-02
3.632000000000000028e+01,5.382509894634386616e-02
3.635999999999999943e+01,4.224376105018793487e-02
3.639999999999999858e+01,3.537054717894515254e-02
3.643999999999999773e+01,6.970116663124192868e-02
3.647999999999999687e+01,5.536983313874028340e-02
3.652000000000000313e+01,6.340583242830535871e-02
3.656000000000000227e+01,4.357850572310052739e-02
3.660000000000000142e+01,4.454879947260907691e-02
3.664000000000000057e+01,7.730466765914477401e-02
3.667999999999999972e+01,6.022129111656304712e-02
3.671999999999999886e+01,9.454483494643804720e-02
3.675999999999999801e+01,1.300446403719330568e-01
3.679999999999999716e+01,9.019743929016567352e-02
3.684000000000000341e+01,1.480635386932523667e-01
3.688000000000000256e+01,1.580525176218334216e-01
3.692000000000000171e+01,1.778511436373179933e-01
3.696000000000000085e+01,1.262270245784279932e-01
3.700000000000000000e+01,1.409220369993080257e-01
3.703999999999999915e+01,1.367795186900161997e-01
3.707999999999999829e+01,9.378569024842467461e-02
3.711999999999999744e+01,1.065154576933798614e-01
3.715999999999999659e+01,1.282700052918420708e-01
3.720000000000000284e+01,6.839869276574052359e-02
3.724000000000000199e+01,7.052980174221513965e-02
3.728000000000000114e+01,9.542062958068708856e-02
3.732000000000000028e+01,9.833449557244847150e-02
3.735999999999999943e+01,6.867586843216381964e-02
3.739999999999999858e+01,5.628297562391561953e-02
3.743999999999999773e+01,7.920745721761192348e-02
3.747999999999999687e+01,7.740797931475722204e-02
3.752000000000000313e+01,7.678472208258665943e-02
3.756000000000000227e+01,7.616040235255709667e-02
3.760000000000000142e+01,9.908063826270541163e-02
3.764000000000000057e+01,1.176831103135772411e-01
3.767999999999999972e+01,1.095994770738460966e-01
3.771999999999999886e+01,1.305543710805901758e-01
3.775999999999999801e+01,1.416975166980963818e-01
3.779999999999999716e+01,1.414592037529555646e-01
3.784000000000000341e+01,1.961595939136368816e-01
3.788000000000000256e+01,2.441876452621792870e-01
3.792000000000000171e+01,2.706311294597176786e-01
3.796000000000000085e+01,2.939341135810262795e-01
3.800000000000000000e+01,3.866955913724359761e-01
3.803999999999999915e+01,4.229464921179045267e-01
3.807999999999999829e+01,5.357195683131802388e-01
3.811999999999999744e+01,5.495999466290611979e-01
3.815999999999999659e+01,5.313002157388824198e-01
3.820000000000000284e+01,4.976947346979531117e-01
3.824000000000000199e+01,4.264151620749474514e-01
3.828000000000000114e+01,4.037954367865183025e-01
3.832000000000000028e+01,3.026892071020244046e-01
3.835999999999999943e+01,2.498503934393526416e-01
3.839999999999999858e+01,2.582290848051488341e-01
3.843999999999999773e+01,2.018562104833703796e-01
3.847999999999999687e+01,1.776612385220619206e-01
3.852000000000000313e+01,1.938851338694725368e-01
3.856000000000000227e+01,1.771440444616511900e-01
3.860000000000000142e+01,1.804156138016108357e-01
3.864000000000000057e+01,1.962437266429468419e-01
3.867999999999999972e+01,1.948039284618728051e-01
3.871999999999999886e+01,2.306435707808671132e-01
3.875999999999999801e+01,2.566714108620239410e-01
3.879999999999999716e+01,2.811284136535927569e-01
3.884000000000000341e+01,3.161798141524863603e-01
3.888000000000000256e+01,3.767378363896817239e-01
3.892000000000000171e+01,3.694048510530439922e-01
3.896000000000000085e+01,3.408796695677247524e-01
3.900000000000000000e+01,3.535581835535293593e-01
3.903999999999999915e+01,3.642734203212155686e-01
3.907999999999999829e+01,3.518343194540565211e-01
3.911999999999999744e+01,3.758897835377931762e-01
3.915999999999999659e+01,4.172108871800308538e-01
3.920000000000000284e+01,4.671642341197653203e-01
3.924000000000000199e+01,5.402696213831079675e-01
3.928000000000000114e+01,6.298557877333864630e-01
3.932000000000000028e+01,7.779124205373565415e-01
3.935999999999999943e+01,8.922191714974817556e-01
3.939999999999999858e+01,9.625729363332932165e-01
3.943999999999999773e+01,9.375657752533550493e-01
3.947999999999999687e+01,9.686745099821343352e-01
3.952000000000000313e+01,9.931108175870710930e-01
3.956000000000000227e+01,9.673152983740562760e-01
3.960000000000000142e+01,9.693809241575498392e-01
3.964000000000000057e+01,9.298481129222636588e-01
3.967999999999999972e+01,9.782177741201493193e-01
3.971999999999999886e+01,9.881284100302982765e-01
3.975999999999999801e+01,1.000000000000000000e+00
3.979999999999999716e+01,9.431956809993681246e-01
3.984000000000000341e+01,8.577430053708261504e-01
3.988000000000000256e+01,7.479586680139600485e-01
3.992000000000000171e+01,6.346412980327421627e-01
3.996000000000000085e+01,5.648821338571905493e-01
4.000000000000000000e+01,4.680443124574182878e-01
4.003999999999999915e+01,3.908266452585770212e-01
4.007999999999999829e+01,3.140002068682715142e-01
4.011999999999999744e+01,3.074170019987681468e-01
4.015999999999999659e+01,2.800339633671298789e-01
4.020000000000000284e+01,2.581436981454579005e-01
4.024000000000000199e+01,2.142763138391638178e-01
4.028000000000000114e+01,2.029791619707262962e-01
4.032000000000000028e+01,1.956050690309578399e-01
4.035999999999999943e+01,1.862676277929192215e-01
4.039999999999999858e+01,1.506363618009525784e-01
4.043999999999999773e+01,2.032999543220882499e-01
4.047999999999999687e+01,1.908194442996394014e-01
4.052000000000000313e+01,1.857938254799367805e-01
4.056000000000000227e+01,1.854761066749718856e-01
4.060000000000000142e+01,1.894738587259345020e-01
4.064000000000000057e+01,1.750263131966321717e-01
4.067999999999999972e+01,1.970732486144100015e-01
4.071999999999999886e+01,2.002824551391686192e-01
4.075999999999999801e+01,2.242890581084653612e-01
4.079999999999999716e+01,2.157229827065327010e-01
4.084000000000000341e+01,2.197133323390568216e-01
4.088000000000000256e+01,2.637299951927382646e-01
4.092000000000000171e+01,2.551601959651744189e-01
4.096000000000000085e+01,2.846545706265482534e-01
4.100000000000000000e+01,3.019824604000228008e-01
4.103999999999999915e+01,2.651541736109547243e-01
4.107999999999999829e+01,2.691370432830567094e-01
4.111999999999999744e+01,2.016969438706086581e-01
4.115999999999999659e+01,2.390335984046576823e-01
4.120000000000000284e+01,2.233913487749871751e-01
4.124000000000000199e+01,1.893037692558918739e-01
4.128000000000000114e+01,1.924954923844495180e-01
4.132000000000000028e+01,1.870525564373532457e-01
4.135999999999999943e+01,1.486444849589451389e-01
4.139999999999999858e+01,1.275019324181742297e-01
4.143999999999999773e+01,1.353977068070868761e-01
4.147999999999999687e+01,1.389755105580995076e-01
4.152000000000000313e+01,1.574642647557190911e-01
4.156000000000000227e+01,1.814457191292093152e-01
4.160000000000000142e+01,1.579422258676689839e-01
4.164000000000000057e+01,1.819211179948106438e-01
4.167999999999999972e+01,2.341534701182393929e-01
4.171999999999999886e+01,2.710798825438462401e-01
4.175999999999999801e+01,2.746487108938350241e-01
4.179999999999999716e+01,3.382575801724531650e-01
4.184000000000000341e+01,4.289426198169832838e-01
4.188000000000000256e+01,4.792063828364690470e-01
4.192000000000000171e+01,4.780609109407088497e-01
4.196000000000000085e+01,4.867248147349092502e-01
4.200000000000000000e+01,4.514355923984362251e-01
4.203999999999999915e+01,4.177147743418423986e-01
4.207999999999999829e+01,3.376862638174891185e-01
4.211999999999999744e+01,2.686444013819194732e-01
4.215999999999999659e+01,2.349196591829031677e-01
4.220000000000000284e+01,2.341574730372981417e-01
4.224000000000000199e+01,1.647192465307757703e-01
4.228000000000000114e+01,1.584604511444855923e-01
4.232000000000000028e+01,1.184516145224950023e-01
4.235999999999999943e+01,1.341660916203881726e-01
4.239999999999999858e+01,1.373215814374759980e-01
4.243999999999999773e+01,1.165376986786904046e-01
4.247999999999999687e+01,1.451982911000946341e-01
4.252000000000000313e+01,1.616923167837280850e-01
4.256000000000000227e+01,2.009457770087516304e-01
4.260000000000000142e+01,2.099810239642642962e-01
4.264000000000000057e+01,2.111663947737037472e-01
4.267999999999999972e+01,1.825259750106106027e-01
4.271999999999999886e+01,1.809616782266614821e-01
4.275999999999999801e+01,1.691929368056092620e-01
4.279999999999999716e+01,1.319150954037222601e-01
4.284000000000000341e+01,1.303467646262070068e-01
4.288000000000000256e+01,1.044466105745680551e-01
4.292000000000000171e+01,1.013058716788233921e-01
4.296000000000000085e+01,1.248488158336924642e-01
4.300000000000000000e+01,7.265199261511401385e-02
4.303999999999999915e+01,6.872233340691068226e-02
4.307999999999999829e+01,7.028529252470611111e-02
4.311999999999999744e+01,7.420145177562577354e-02
4.315999999999999659e+01,7.144498789379945258e-02
4.320000000000000284e+01,5.769920167175326964e-02
4.324000000000000199e+01,4.473690110153395044e-02
4.328000000000000114e+01,3.491264605839537044e-02
4.332000000000000028e+01,5.805088675823626837e-02
4.335999999999999943e+01,4.155262514683782937e-02
4.339999999999999858e+01,2.701512158608923228e-02
4.343999999999999773e+01,4.857952334541883882e-02
4.347999999999999687e+01,4.659692353119763292e-02
4.352000000000000313e+01,3.794168119873456146e-02
4.356000000000000227e+01,2.418350221355089827e-02
4.360000000000000142e+01,3.553926379641177830e-02
4.364000000000000057e+01,2.962684726780731234e-02
4.367999999999999972e+01,4.608137796529496177e-02
4.371999999999999886e+01,5.625568237968715107e-02
4.375999999999999801e+01,3.974355410398960897e-02
4.379999999999999716e+01,4.677564760715120784e-02
4.384000000000000341e+01,3.967896826805834831e-02
4.388000000000000256e+01,2.630205403009399159e-02
4.392000000000000171e+01,4.706488424054829089e-02
4.396000000000000085e+01,1.798807770407823831e-02
4.400000000000000000e+01,3.403896744439662697e-02
4.403999999999999915e+01,5.244300777712727901e-02
4.407999999999999829e+01,3.945147412982000917e-02
4.411999999999999744e+01,2.763580575243805570e-02
4.415999999999999659e+01,4.760530687061269306e-02
4.420000000000000284e+01,3.774893556638282688e-02
4.424000000000000199e+01,3.966395220163771579e-02
4.428000000000000114e+01,2.313347524772436589e-02
4.432000000000000028e+01,3.838815917359157670e-02
4.435999999999999943e+01,4.853986336785844069e-02
4.439999999999999858e+01,5.869013673984360691e-02
4.443999999999999773e+01,4.293879481442379464e-02
4.447999999999999687e+01,2.561630973936891015e-02
4.452000000000000313e+01,3.890169375977547972e-02
4.456000000000000227e+01,4.983107631292633261e-02
4.460000000000000142e+01,5.212562316701568194e-02
4.464000000000000057e+01,2.773368994424749850e-02
4.467999999999999972e+01,5.121640541528432039e-02
4.471999999999999886e+01,3.388526432638693658e-02
4.475999999999999801e+01,3.381946124383134605e-02
4.479999999999999716e+01,4.709472396500991725e-02
4.484000000000000341e+01,5.055785704886405635e-02
4.488000000000000256e+01,3.165119418572653887e-02
4.492000000000000171e+01,4.295995187374426066e-02
4.496000000000000085e+01,3.857016838961039445e-02
4.500000000000000000e+01,2.868494370590595963e-02
4.503999999999999915e+01,6.314250528671329354e-02
4.507999999999999829e+01,5.129221285396179386e-02
4.511999999999999744e+01,3.198433773547598030e-02
4.515999999999999659e+01,3.661303816661982957e-02
4.520000000000000284e+01,3.927812967227030383e-02
4.524000000000000199e+01,4.429630715201328395e-02
4.528000000000000114e+01,3.322349922318626469e-02
4.532000000000000028e+01,3.863114513575234554e-02
4.535999999999999943e+01,3.697362244378654683e-02
4.539999999999999858e+01,3.178277203714196392e-02
4.543999999999999773e+01,2.776771582027084614e-02
4.547999999999999687e+01,2.100418159056571810e-02
4.552000000000000313e+01,2.836652840333558565e-02
4.556000000000000227e+01,6.687783569337958818e-03
4.560000000000000142e+01,4.975799909768658519e-02
4.564000000000000057e+01,3.357023929667073137e-02
4.567999999999999972e+01,4.759785912187428081e-02
4.571999999999999886e+01,4.004049177699509077e-02
4.575999999999999801e+01,3.012705834654021836e-02
4.579999999999999716e+01,2.492124276416009254e-02
4.584000000000000341e+01,3.619585302190099496e-02
4.588000000000000256e+01,5.688720087822497079e-02
4.592000000000000171e+01,4.657530267795365053e-02
4.596000000000000085e+01,2.880577655912423124e-02
4.600000000000000000e+01,5.145471496148734669e-02
4.603999999999999915e+01,1.994720755830869940e-02
4.607999999999999829e+01,3.906126249495971842e-02
4.611999999999999744e+01,2.089322852743402334e-02
4.615999999999999659e+01,5.884073065997888485e-02
4.620000000000000284e+01,5.832885856586000201e-02
4.624000000000000199e+01,8.175350386488297594e-02
4.628000000000000114e+01,7.064304067801772946e-02
4.632000000000000028e+01,7.679783149367849782e-02
4.635999999999999943e+01,1.053194252211837045e-01
4.639999999999999858e+01,1.102938601372265570e-01
4.643999999999999773e+01,1.423442177156219735e-01
4.647999999999999687e+01,1.414291640578747566e-01
4.652000000000000313e+01,1.424747004431458630e-01
4.656000000000000227e+01,1.494050947661547668e-01
4.660000000000000142e+01,1.889053812038693492e-01
4.664000000000000057e+01,1.671855034392878692e-01
4.667999999999999972e+01,1.442867910630181161e-01
4.671999999999999886e+01,1.198168149162495283e-01
4.675999999999999801e+01,1.208530361808162618e-01
4.679999999999999716e+01,1.010890661285451797e-01
4.684000000000000341e+01,8.132353386340870904e-02
4.688000000000000256e+01,6.783526930932452792e-02
4.692000000000000171e+01,4.963631417609075391e-02
4.696000000000000085e+01,5.144956761634351949e-02
4.700000000000000000e+01,6.228707133988104633e-02
4.703999999999999915e+01,7.076844005163512863e-02
4.707999999999999829e+01,5.374047831054714480e-02
4.711999999999999744e+01,3.749579328871858325e-02
4.715999999999999659e+01,5.656795926044413253e-02
4.720000000000000284e+01,4.542166425909963806e-02
4.724000000000000199e+01,4.526174164170752162e-02
4.728000000000000114e+01,4.470780611319978559e-02
4.732000000000000028e+01,5.592509267048929172e-02
4.735999999999999943e+01,2.161925644914496070e-02
4.739999999999999858e+01,4.813801361400363299e-02
4.743999999999999773e+01,4.365344287239537879e-02
4.747999999999999687e+01,1.483680115310413716e-02
4.752000000000000313e+01,4.095834128518879153e-02
4.756000000000000227e+01,3.686140105870718692e-02
4.760000000000000142e+01,3.511741972362252689e-02
4.764000000000000057e+01,4.043551918438686305e-02
4.767999999999999972e+01,5.046113525785826670e-02
4.771999999999999886e+01,3.458495941051731998e-02
4.775999999999999801e+01,3.126483596532238229e-02
4.779999999999999716e+01,3.657649271966603027e-02
4.784000000000000341e+01,4.738051148067336932e-02
4.788000000000000256e+01,5.425864197760801866e-02
4.792000000000000171e+01,4.308350988133736320e-02
4.796000000000000085e+01,6.251606164134491939e-02
4.800000000000000000e+01,2.426021900875781345e-02
4.803999999999999915e+01,2.014389896835809893e-02
4.807999999999999829e+01,2.819118709368601330e-02
4.811999999999999744e+01,2.053976388528685679e-02
4.815999999999999659e+01,2.662165255419280188e-02
4.820000000000000284e+01,4.604442394159357493e-02
4.824000000000000199e+01,1.798189013926087404e-02
4.828000000000000114e+01,3.583167615144196988e-02
4.832000000000000028e+01,3.170390798231439294e-02
4.835999999999999943e+01,1.933352864825642684e-02
4.839999999999999858e+01,4.581177657928597186e-02
4.843999999999999773e+01,2.833655159465923654e-02
4.847999999999999687e+01,2.773403729471650772e-02
4.852000000000000313e+01,4.949820959364268497e-02
4.856000000000000227e+01,4.614539874866540464e-02
4.860000000000000142e+01,1.924531062530607586e-02
4.864000000000000057e+01,1.863617268764716436e-02
4.867999999999999972e+01,3.176031862602136935e-02
4.871999999999999886e+01,2.722358589717692109e-02
4.875999999999999801e+01,4.073682979000755461e-02
4.879999999999999716e+01,3.698161771259773217e-02
4.884000000000000341e+01,3.243988171539020221e-02
4.888000000000000256e+01,2.004793355684670111e-02
4.892000000000000171e+01,3.708633654532639962e-02
4.896000000000000085e+01,4.862908509378024990e-02
4.900000000000000000e+01,3.623210781954581960e-02
4.903999999999999915e+01,3.050470894825433807e-02
4.907999999999999829e+01,4.989095555468026078e-02
4.911999999999999744e+01,4.572989688145227133e-02
4.915999999999999659e+01,1.959123879409175803e-02
4.920000000000000284e+01,3.701028895133504082e-02
4.924000000000000199e+01,5.168065862500904190e-02
4.928000000000000114e+01,4.280371440325304866e-02
4.932000000000000028e+01,4.452060355549561366e-02
4.935999999999999943e+01,5.055249184993108880e-02
4.939999999999999858e+01,4.480986993309513805e-02
4.943999999999999773e+01,3.003972468510833840e-02
4.947999999999999687e+01,3.763621434133448962e-02
4.952000000000000313e+01,4.444614346071512623e-02
4.956000000000000227e+01,4.065883476764740184e-02
4.960000000000000142e+01,3.922437726877685965e-02
4.964000000000000057e+01,5.113072494641748150e-02
4.967999999999999972e+01,2.614721902373219609e-02
4.971999999999999886e+01,2.666975112052691332e-02
4.975999999999999801e+01,4.563463299526318573e-02
4.979999999999999716e+01,2.810208181270809624e-02
4.984000000000000341e+01,4.902565334839040917e-02
4.988000000000000256e+01,3.776848457242323875e-02
4.992000000000000171e+01,5.476433208028042704e-02
4.996000000000000085e+01,2.662934380801064774e-02
5.000000000000000000e+01,2.753222152140986922e-02
5.003999999999999915e+01,4.413044490107830703e-02
5.007999999999999829e+01,3.718131130643691912e-02
5.011999999999999744e+01,4.396538404584506704e-02
5.015999999999999659e+01,3.897490564904588367e-02
5.020000000000000284e+01,2.966598705455609705e-02
5.024000000000000199e+01,4.586307847827437306e-02
5.028000000000000114e+01,6.009628742561200221e-02
5.032000000000000028e+01,4.057902434845086365e-02
5.035999999999999943e+01,2.027515550162029001e-02
5.039999999999999858e+01,1.762874795989468821e-02
5.043999999999999773e+01,5.226114981264760873e-02
5.047999999999999687e+01,3.312929377694190380e-02
5.052000000000000313e+01,3.714887065263813848e-02
5.056000000000000227e+01,4.823037108627193509e-02
5.060000000000000142e+01,3.497963253459127064e-02
5.064000000000000057e+01,5.900769260766925567e-02
5.067999999999999972e+01,1.906838189604342232e-02
5.071999999999999886e+01,3.642164274947212732e-02
5.075999999999999801e+01,4.553216320133074424e-02
5.079999999999999716e+01,3.148771491275402512e-02
5.084000000000000341e+01,4.569623336728989571e-02
5.088000000000000256e+01,4.263618384649763698e-02
5.092000000000000171e+01,3.957435241055277247e-02
5.096000000000000085e+01,6.241091922669033537e-02
5.100000000000000000e+01,4.443329131368693036e-02
5.103999999999999915e+01,5.196163034001161779e-02
5.107999999999999829e+01,3.084100748016414470e-02
5.111999999999999744e+01,5.602497850967335519e-02
5.115999999999999659e+01,3.764775716020112017e-02
5.120000000000000284e+01,5.223260722674163969e-02
5.124000000000000199e+01,6.838536616604297402e-02
5.128000000000000114e+01,7.119380563923989602e-02
5.132000000000000028e+01,6.536704755078445728e-02
5.135999999999999943e+01,8.779322820416975148e-02
5.139999999999999858e+01,7.175975461817206413e-02
5.143999999999999773e+01,7.691552937853278482e-02
5.147999999999999687e+01,7.500580598093069262e-02
5.152000000000000313e+01,7.937310043687759165e-02
5.156000000000000227e+01,5.469898015445809336e-02
5.160000000000000142e+01,7.554457390433463870e-02
5.164000000000000057e+01,3.948643126244594237e-02
5.167999999999999972e+01,4.659343631576717826e-02
5.171999999999999886e+01,5.762288642371948127e-02
5.175999999999999801e+01,6.237167730583365044e-02
5.179999999999999716e+01,6.790349289575993430e-02
5.184000000000000341e+01,6.205309388869778564e-02
5.188000000000000256e+01,4.599775914530191551e-02
5.192000000000000171e+01,6.251203004206061509e-02
5.196000000000000085e+01,8.491086809411806102e-02
5.200000000000000000e+01,4.491197230078550207e-02
5.203999999999999915e+01,4.847063182203327492e-02
5.207999999999999829e+01,5.752142503188152622e-02
5.211999999999999744e+01,3.949290837247916575e-02
5.215999999999999659e+01,5.050214138577033274e-02
5.220000000000000284e+01,3.443206022192282778e-02
5.224000000000000199e+01,4.308302736935105959e-02
5.228000000000000114e+01,4.663058830426830559e-02
5.232000000000000028e+01,4.742930290192866327e-02
5.235999999999999943e+01,6.745508128090378641e-02
5.239999999999999858e+01,5.216056761082701887e-02
5.243999999999999773e+01,6.668864254556844395e-02
5.247999999999999687e+01,4.746612914283536433e-02
5.252000000000000313e+01,6.866172916842409879e-02
5.256000000000000227e+01,5.022033147565500150e-02
5.260000000000000142e+01,7.494403193738402580e-02
5.264000000000000057e+01,5.139733626580780812e-02
5.267999999999999972e+01,4.747011414886062597e-02
5.271999999999999886e+01,6.630177947152936235e-02
5.275999999999999801e+01,5.334497640344749297e-02
5.279999999999999716e+01,4.744997627243965205e-02
5.284000000000000341e+01,5.411075499269063505e-02
5.288000000000000256e+01,4.075586900634945581e-02
5.292000000000000171e+01,6.271752384562749583e-02
5.296000000000000085e+01,6.701807169962348265e-02
5.300000000000000000e+01,5.758178046305689052e-02
5.303999999999999915e+01,4.304204208904353207e-02
5.307999999999999829e+01,4.733690172048665018e-02
5.311999999999999744e+01,2.847666768274286636e-02
5.315999999999999659e+01,4.257839951775627824e-02
5.320000000000000284e+01,3.587959540489283478e-02
5.324000000000000199e+01,7.195342797855727723e-02
5.328000000000000114e+01,3.660363666869780042e-02
5.332000000000000028e+01,5.579928788346882884e-02
5.335999999999999943e+01,6.322021564651301995e-02
5.339999999999999858e+01,5.141030471142580410e-02
5.343999999999999773e+01,7.060020954715619246e-02
5.347999999999999687e+01,7.016684437200074176e-02
5.352000000000000313e+01,6.227544418287246641e-02
5.356000000000000227e+01,7.557317818107095464e-02
5.360000000000000142e+01,8.298258087687393481e-02
5.364000000000000057e+01,6.292016484868828696e-02
5.367999999999999972e+01,7.385755166765603508e-02
5.371999999999999886e+01,6.595650956180695856e-02
5.375999999999999801e+01,7.296575879570299517e-02
5.379999999999999716e+01,6.623812586015657977e-02
5.384000000000000341e+01,6.539495884454132879e-02
5.388000000000000256e+01,6.298014250245249912e-02
5.392000000000000171e+01,5.624668564588163749e-02
5.396000000000000085e+01,4.166274307708774105e-02
5.400000000000000000e+01,6.239528317742520924e-02
5.403999999999999915e+01,5.879539905326483518e-02
5.407999999999999829e+01,5.833297889130712593e-02
5.411999999999999744e+01,3.353813019696377101e-02
5.415999999999999659e+01,3.385665342945060052e-02
5.420000000000000284e+01,3.770506116717445289e-02
5.424000000000000199e+01,5.803344241678111415e-02
5.428000000000000114e+01,4.225657637223541319e-02
5.432000000000000028e+01,4.688394958034781956e-02
5.435999999999999943e+01,5.150935563412429447e-02
5.439999999999999858e+01,5.872783801395997649e-02
5.443999999999999773e+01,6.455972368653514759e-02
5.447999999999999687e+01,6.517932656008136594e-02
5.452000000000000313e+01,6.098940894033449273e-02
5.456000000000000227e+01,6.452911698588713330e-02
5.460000000000000142e+01,7.161235522328915359e-02
5.464000000000000057e+01,5.970811400635712279e-02
5.467999999999999972e+01,7.975286073302258194e-02
5.471999999999999886e+01,6.472542173331115312e-02
5.475999999999999801e+01,6.792386295250098238e-02
5.479999999999999716e+01,7.047388538442662942e-02
5.484000000000000341e+01,6.591507237928402596e-02
5.488000000000000256e+01,5.936701763579015079e-02
5.492000000000000171e+01,6.247547518577883235e-02
5.496000000000000085e+01,6.830081202268412088e-02
5.500000000000000000e+01,6.688170354208415602e-02
5.503999999999999915e+01,4.500164460960431184e-02
5.507999999999999829e+01,7.524047723991179881e-02
5.511999999999999744e+01,6.159270401406256867e-02
5.515999999999999659e+01,5.927851989030872432e-02
5.520000000000000284e+01,6.764623598492840173e-02
5.524000000000000199e+01,5.850163585878735695e-02
5.528000000000000114e+01,6.692026993603737706e-02
5.532000000000000028e+01,5.750974663529529601e-02
5.535999999999999943e+01,6.309274774360502935e-02
5.539999999999999858e+01,6.354471247520881994e-02
5.543999999999999773e+01,7.016640466466848858e-02
5.547999999999999687e+01,6.813814998894450470e-02
5.552000000000000313e+01,6.159403109627813178e-02
5.556000000000000227e+01,4.926713132310743537e-02
5.560000000000000142e+01,5.822724687453992992e-02
5.564000000000000057e+01,6.654780342897920198e-02
5.567999999999999972e+01,6.872669215875677751e-02
5.571999999999999886e+01,5.652398625921865871e-02
5.575999999999999801e+01,6.457331723205837759e-02
5.579999999999999716e+01,6.178582493302561818e-02
5.584000000000000341e+01,7.368548690277254565e-02
5.588000000000000256e+01,7.205439600948759793e-02
5.592000000000000171e+01,6.649615478986431460e-02
5.596000000000000085e+01,5.018470537418586591e-02
5.600000000000000000e+01,8.638417023491942737e-02
5.603999999999999915e+01,7.169608755670463240e-02
5.607999999999999829e+01,6.132264215809204999e-02
5.611999999999999744e+01,6.585936101652893615e-02
5.615999999999999659e+01,5.744392463256051823e-02
5.620000000000000284e+01,6.472350220748650240e-02
5.624000000000000199e+01,3.668258095473713593e-02
5.628000000000000114e+01,2.983064742112291959e-02
5.632000000000000028e+01,5.201623955002689786e-02
5.635999999999999943e+01,5.143899054514695923e-02
5.639999999999999858e+01,5.910063163698055233e-02
5.643999999999999773e+01,2.634021206815648219e-02
5.647999999999999687e+01,5.832816698891245266e-02
5.652000000000000313e+01,4.047580882433030047e-02
5.656000000000000227e+01,4.577455832560711757e-02
5.660000000000000142e+01,3.655142087162936704e-02
5.664000000000000057e+01,3.282017155663676661e-02
5.667999999999999972e+01,4.517633735807694007e-02
5.671999999999999886e+01,5.478341988842089227e-02
5.675999999999999801e+01,5.340044989153164973e-02
5.679999999999999716e+01,5.986392144704953677e-02
5.684000000000000341e+01,4.984335809931716987e-02
5.688000000000000256e+01,5.041622103016876744e-02
5.692000000000000171e+01,6.511435112945711257e-02
5.696000000000000085e+01,5.783446179553436428e-02
5.700000000000000000e+01,5.918585725403179704e-02
5.703999999999999915e+01,6.995338936073797198e-02
5.707999999999999829e+01,8.621278591304541716e-02
5.711999999999999744e+01,8.873512151855908470e-02
5.715999999999999659e+01,4.926564967295783692e-02
5.720000000000000284e+01,6.865810847294938346e-02
5.724000000000000199e+01,6.057855469399287679e-02
5.728000000000000114e+01,6.544696768337847359e-02
5.732000000000000028e+01,7.384509717036956411e-02
5.735999999999999943e+01,6.301217471877403054e-02
5.739999999999999858e+01,4.943013237903459006e-02
5.743999999999999773e+01,4.801119418212838191e-02
5.747999999999999687e+01,6.778117908603749353e-02
5.752000000000000313e+01,4.516691014846944269e-02
5.756000000000000227e+01,3.667787391623438670e-02
5.760000000000000142e+01,4.937775432298279615e-02
5.764000000000000057e+01,5.422695085466071319e-02
5.767999999999999972e+01,4.651633729892794972e-02
5.771999999999999886e+01,5.567793686681673376e-02
5.775999999999999801e+01,4.129176590314906359e-02
5.779999999999999716e+01,5.790517593040357680e-02
5.784000000000000341e+01,5.254051913767905646e-02
5.788000000000000256e+01,4.795855965327977533e-02
5.792000000000000171e+01,5.828666749845037853e-02
5.796000000000000085e+01,4.192757800341376240e-02
5.800000000000000000e+01,5.617563172471298077e-02
5.803999999999999915e+01,6.531996906556614135e-02
5.807999999999999829e+01,9.212135415427781526e-02
5.811999999999999744e+01,7.261418304368873200e-02
5.815999999999999659e+01,9.705666469911543304e-02
5.820000000000000284e+01,9.912863314420085337e-02
5.824000000000000199e+01,9.374231240992215997e-02
5.828000000000000114e+01,1.028736126148510344e-01
5.832000000000000028e+01,1.006223492838644595e-01
5.835999999999999943e+01,1.066098705063358437e-01
5.839999999999999858e+01,1.224058821477865266e-01
5.843999999999999773e+01,1.056282655287068967e-01
5.847999999999999687e+01,1.304457224148930783e-01
5.852000000000000313e+01,1.148410066353337672e-01
5.856000000000000227e+01,1.192478747855030136e-01
5.860000000000000142e+01,1.134494453367479172e-01
5.864000000000000057e+01,1.056866832373176968e-01
5.867999999999999972e+01,9.556715932840202654e-02
5.871999999999999886e+01,1.066364917480381036e-01
5.875999999999999801e+01,7.963820060746276686e-02
5.879999999999999716e+01,7.657575052161555429e-02
5.884000000000000341e+01,6.134585488884814614e-02
5.888000000000000256e+01,5.592442382773237658e-02
5.892000000000000171e+01,4.932349904806616891e-02
5.896000000000000085e+01,5.017647250296533579e-02
5.900000000000000000e+01,5.298936397035711177e-02
5.903999999999999915e+01,4.324237211624234328e-02
5.907999999999999829e+01,6.174790329277749651e-02
5.911999999999999744e+01,3.865394847980851284e-02
5.915999999999999659e+01,5.126862548206204823e-02
5.920000000000000284e+01,4.308244344483973254e-02
5.924000000000000199e+01,3.136218842831719339e-02
5.928000000000000114e+01,3.926105156566483262e-02
5.932000000000000028e+01,3.773943234282892134e-02
5.935999999999999943e+01,5.779906199030709207e-02
5.939999999999999858e+01,2.566366143928147658e-02
5.943999999999999773e+01,4.218696878646008980e-02
5.947999999999999687e+01,4.065639105061946701e-02
5.952000000000000313e+01,2.578105013621183675e-02
5.956000000000000227e+01,3.523393635646265148e-02
5.960000000000000142e+01,3.448147112918929086e-02
5.964000000000000057e+01,2.784034935397751778e-02
5.967999999999999972e+01,2.708337902287382207e-02
5.971999999999999886e+01,3.574240102573139621e-02
5.975999999999999801e+01,1.810655576576839995e-02
5.979999999999999716e+01,1.184883355621053382e-02
5.984000000000000341e+01,2.207078330637612940e-02
5.988000000000000256e+01,2.797377160440491992e-02
5.992000000000000171e+01,2.681080726228830466e-02
5.996000000000000085e+01,2.486072020394375706e-02
