2.003999999999999915e+01,1.026250375042671720e-01
2.007999999999999829e+01,6.611559156531233994e-02
2.012000000000000099e+01,1.143744426065804870e-01
2.016000000000000014e+01,8.212746274319465689e-02
2.019999999999999929e+01,6.077266052006941033e-02
2.023999999999999844e+01,7.872392244307198361e-02
2.028000000000000114e+01,6.115800265332334978e-02
2.032000000000000028e+01,7.200614970878413401e-02
2.035999999999999943e+01,5.728197015446852974e-02
2.039999999999999858e+01,7.333967531055805844e-02
2.044000000000000128e+01,9.365963170901833723e-02
2.048000000000000043e+01,9.030151139973083274e-02
2.051999999999999957e+01,1.011504974357899378e-01
2.055999999999999872e+01,1.219445032351386959e-01
2.060000000000000142e+01,1.219018118834914594e-01
2.064000000000000057e+01,9.533964231670855050e-02
2.067999999999999972e+01,8.345813137941222870e-02
2.071999999999999886e+01,1.231953324699724267e-01
2.076000000000000156e+01,9.521290595755410591e-02
2.080000000000000071e+01,9.375024935123660308e-02
2.083999999999999986e+01,6.576809885075711459e-02
2.087999999999999901e+01,1.036115926557502481e-01
2.092000000000000171e+01,5.858137183898437517e-02
2.096000000000000085e+01,6.943192768149467065e-02
2.100000000000000000e+01,7.649408879996073829e-02
2.103999999999999915e+01,9.728975067094307316e-02
2.107999999999999829e+01,8.256816811306788573e-02
2.112000000000000099e+01,4.985123660289587921e-02
2.116000000000000014e+01,1.217922432911808100e-01
2.119999999999999929e+01,6.018807687941736539e-02
2.123999999999999844e+01,6.677735068768575477e-02
2.128000000000000114e+01,4.353214231640468307e-02
2.132000000000000028e+01,6.906420997173452758e-02
2.135999999999999943e+01,2.829729746908960994e-02
2.139999999999999858e+01,7.940205401131664176e-02
2.144000000000000128e+01,3.342611034547860599e-02
2.148000000000000043e+01,7.221835704248399934e-02
2.151999999999999957e+01,6.460133378746488186e-02
2.155999999999999872e+01,8.587184499505315372e-02
2.160000000000000142e+01,3.610770895622301274e-02
2.164000000000000057e+01,4.838063902367524538e-02
2.167999999999999972e+01,5.118234313005910752e-02
2.171999999999999886e+01,7.434740226332620106e-02
2.176000000000000156e+01,5.299743193918272227e-02
2.180000000000000071e+01,7.000627381003947380e-02
2.183999999999999986e+01,8.606804406910809058e-02
2.187999999999999901e+01,4.956417339820952395e-02
2.192000000000000171e+01,6.894100412726084093e-02
2.196000000000000085e+01,6.653390143321427641e-02
2.200000000000000000e+01,4.376355666234824776e-02
2.203999999999999915e+01,5.130140320650949937e-02
2.207999999999999829e+01,3.374035312862845581e-02
2.212000000000000099e+01,4.743461774888664551e-02
2.216000000000000014e+01,1.023290553060643981e-01
2.219999999999999929e+01,0.000000000000000000e+00
2.223999999999999844e+01,7.099569819302892215e-02
2.228000000000000114e+01,9.510850202637240181e-02
2.232000000000000028e+01,6.807632491797428742e-02
2.235999999999999943e+01,4.814763749746041321e-02
2.239999999999999858e+01,8.883526212084541518e-02
2.244000000000000128e+01,6.369738674687441815e-02
2.248000000000000043e+01,5.181933440906813515e-02
2.251999999999999957e+01,4.183554611495187564e-02
2.255999999999999872e+01,3.516671321080388352e-02
2.260000000000000142e+01,5.407037944679685820e-02
2.264000000000000057e+01,6.018779067086565959e-02
2.267999999999999972e+01,6.488449960387436544e-02
2.271999999999999886e+01,3.282121761529379310e-03
2.276000000000000156e+01,7.711927046390987250e-02
2.280000000000000071e+01,6.050551992390310746e-02
2.283999999999999986e+01,4.436531385905995856e-02
2.287999999999999901e+01,9.262990082734230690e-02
2.292000000000000171e+01,1.445265226636734124e-02
2.296000000000000085e+01,5.229875664928122087e-02
2.300000000000000000e+01,4.420903988273736096e-02
2.303999999999999915e+01,6.832169534553349244e-02
2.307999999999999829e+01,1.322137571396440336e-01
2.312000000000000099e+01,6.682257876130386076e-02
2.316000000000000014e+01,5.447061560878201786e-02
2.319999999999999929e+01,3.690939078084209263e-02
2.323999999999999844e+01,5.533904112210548398e-02
2.328000000000000114e+01,1.054974800505158600e-01
2.332000000000000028e+01,7.609697000037884962e-02
2.335999999999999943e+01,6.895394571855353871e-02
2.339999999999999858e+01,3.718548616047308991e-02
2.344000000000000128e+01,8.450228538244174137e-02
2.348000000000000043e+01,4.989229894583524505e-02
2.351999999999999957e+01,6.595367537599343410e-02
2.355999999999999872e+01,5.881029846875902856e-02
2.360000000000000142e+01,4.598406370069229449e-02
2.364000000000000057e+01,3.978765344737968113e-02
2.367999999999999972e+01,1.013109273026149282e-01
2.371999999999999886e+01,3.591873808512662664e-02
2.376000000000000156e+01,5.955664393583102317e-02
2.380000000000000071e+01,7.703811141931517226e-02
2.383999999999999986e+01,2.964109880698147584e-02
2.387999999999999901e+01,5.801435668931002876e-02
2.392000000000000171e+01,7.644264817811276258e-02
2.396000000000000085e+01,3.520166326465513917e-02
2.400000000000000000e+01,3.184575324954539571e-02
2.403999999999999915e+01,4.553806259308416232e-02
2.407999999999999829e+01,5.544173575557250627e-02
2.412000000000000099e+01,5.776825098231420236e-02
2.416000000000000014e+01,6.861880926778682332e-02
2.419999999999999929e+01,6.668299024492919946e-02
2.423999999999999844e+01,5.622287422418684871e-02
2.428000000000000114e+01,7.133512563976412979e-02
2.432000000000000028e+01,2.109529450249785984e-02
2.435999999999999943e+01,3.857509416509032063e-02
2.439999999999999858e+01,5.842257531588546798e-02
2.444000000000000128e+01,7.116643827185334392e-02
2.448000000000000043e+01,5.549626266593359752e-02
2.451999999999999957e+01,6.823982464566850925e-02
2.455999999999999872e+01,6.582915695801952460e-02
2.460000000000000142e+01,4.494930267565265536e-02
2.464000000000000057e+01,5.579813036305342200e-02
2.467999999999999972e+01,7.517096034371571756e-02
2.471999999999999886e+01,7.607459432224462914e-02
2.476000000000000156e+01,3.530435262213425796e-02
2.480000000000000071e+01,4.094328999676859204e-02
2.483999999999999986e+01,5.700047643088838184e-02
2.487999999999999901e+01,6.926896396785163501e-02
2.492000000000000171e+01,8.608284677113093794e-03
2.496000000000000085e+01,6.965357946833397595e-02
2.500000000000000000e+01,8.192150735566519626e-02
2.503999999999999915e+01,4.685490050236095286e-03
2.507999999999999829e+01,7.093941947796693348e-02
2.512000000000000099e+01,3.111462848368300171e-02
2.516000000000000014e+01,3.627829385981290455e-02
2.519999999999999929e+01,7.222346764971381006e-02
2.523999999999999844e+01,7.454533019645290248e-02
2.528000000000000114e+01,9.580957420132159286e-02
2.532000000000000028e+01,4.225036071099113472e-02
2.535999999999999943e+01,7.914181133872533191e-02
2.539999999999999858e+01,6.394090991298875815e-02
2.544000000000000128e+01,7.336515533049599302e-02
2.548000000000000043e+01,6.337301551084646711e-02
2.551999999999999957e+01,2.591388525309396354e-02
2.555999999999999872e+01,3.723169862659232027e-02
2.560000000000000142e+01,2.013538563565451037e-02
2.564000000000000057e+01,3.950332449296456439e-02
2.567999999999999972e+01,4.513764036242676192e-02
2.571999999999999886e+01,5.361309906587839041e-02
2.576000000000000156e+01,3.367441886167325121e-02
2.580000000000000071e+01,6.866900622958292677e-02
2.583999999999999986e+01,6.435745738891658629e-02
2.587999999999999901e+01,7.567328917777223218e-02
2.592000000000000171e+01,9.456589639520342205e-02
2.596000000000000085e+01,7.888800627025535639e-02
2.600000000000000000e+01,7.126045012963382053e-02
2.603999999999999915e+01,4.516359450530382097e-02
2.607999999999999829e+01,8.678623484120526199e-02
2.612000000000000099e+01,6.353021634038706622e-02
2.616000000000000014e+01,7.531771444026442996e-02
2.619999999999999929e+01,1.174130777314196239e-01
2.623999999999999844e+01,1.168873196644174967e-01
2.628000000000000114e+01,7.042548331192405309e-02
2.632000000000000028e+01,1.063636337530285136e-01
2.635999999999999943e+01,1.157818575588413501e-01
2.639999999999999858e+01,1.621378384599632683e-01
2.644000000000000128e+01,1.658726823239011494e-01
2.648000000000000043e+01,1.828670356434757283e-01
2.651999999999999957e+01,2.225921918301061453e-01
2.655999999999999872e+01,3.091999539434098776e-01
2.660000000000000142e+01,3.157749451147714437e-01
2.664000000000000057e+01,3.019863304559008976e-01
2.667999999999999972e+01,3.061928578472525309e-01
2.671999999999999886e+01,2.862472545178715855e-01
2.676000000000000156e+01,2.620392400811247802e-01
2.680000000000000071e+01,2.420929782937085994e-01
2.683999999999999986e+01,1.875761501761968042e-01
2.687999999999999901e+01,1.605257449771057832e-01
2.692000000000000171e+01,1.694659264531321041e-01
2.696000000000000085e+01,1.623045604587350643e-01
2.700000000000000000e+01,1.433037273043608895e-01
2.703999999999999915e+01,1.773418052026923264e-01
2.707999999999999829e+01,9.725040695940957713e-02
2.712000000000000099e+01,1.099773589955658493e-01
2.716000000000000014e+01,6.114052445559386983e-02
2.719999999999999929e+01,8.144379255538894413e-02
2.723999999999999844e+01,8.185697261523390555e-02
2.728000000000000114e+01,7.421918218335400719e-02
2.732000000000000028e+01,5.142694571352581651e-02
2.735999999999999943e+01,8.072646555523885215e-02
2.739999999999999858e+01,5.935417103530042648e-02
2.744000000000000128e+01,9.102075621001540218e-02
2.748000000000000043e+01,1.032707993573098171e-01
2.751999999999999957e+01,7.147892631859380230e-02
2.755999999999999872e+01,3.210962566487762099e-02
2.760000000000000142e+01,5.951257215606932383e-02
2.764000000000000057e+01,6.891965855870299529e-02
2.767999999999999972e+01,1.038988458542065840e-01
2.771999999999999886e+01,5.458309095896887037e-02
2.776000000000000156e+01,5.688549618985877521e-02
2.780000000000000071e+01,2.082874121243592433e-02
2.783999999999999986e+01,6.811898352273276780e-02
2.787999999999999901e+01,4.674191040198772545e-02
2.792000000000000171e+01,7.130020693581429203e-02
2.796000000000000085e+01,6.649706243797076644e-02
2.800000000000000000e+01,5.675515559181544545e-02
2.803999999999999915e+01,6.068989630800437907e-02
2.807999999999999829e+01,5.051674812256123914e-02
2.812000000000000099e+01,6.744824911339532270e-02
2.816000000000000014e+01,5.080321925111887238e-02
2.819999999999999929e+01,5.264146156060567350e-02
2.823999999999999844e+01,7.726376418687790071e-02
2.828000000000000114e+01,4.403714907809164886e-02
2.832000000000000028e+01,7.081816282566381904e-02
2.835999999999999943e+01,5.532973478216609425e-02
2.839999999999999858e+01,6.078329778189811572e-02
2.844000000000000128e+01,6.304603184516995029e-02
2.848000000000000043e+01,5.296659932226122081e-02
2.851999999999999957e+01,5.641238666756621251e-02
2.855999999999999872e+01,6.209314524292973425e-02
2.860000000000000142e+01,7.680323675429856500e-02
2.864000000000000057e+01,6.810769714082347270e-02
2.867999999999999972e+01,5.632450379254415329e-02
2.871999999999999886e+01,6.262092216086460883e-02
2.876000000000000156e+01,5.626396190318737334e-02
2.880000000000000071e+01,6.407081601037581398e-02
2.883999999999999986e+01,5.435228258170053672e-02
2.887999999999999901e+01,5.999949377521451854e-02
2.892000000000000171e+01,7.717854387182999931e-02
2.896000000000000085e+01,5.257830504633691227e-02
2.900000000000000000e+01,6.914639040057710129e-02
2.903999999999999915e+01,6.049928589928440376e-02
2.907999999999999829e+01,6.839330920789575552e-02
2.912000000000000099e+01,6.169209960082975425e-02
2.916000000000000014e+01,6.243631835058995744e-02
2.919999999999999929e+01,6.303682573004683320e-02
2.923999999999999844e+01,7.418522554092933652e-02
2.928000000000000114e+01,7.133127215906648333e-02
2.932000000000000028e+01,6.447721050834190337e-02
2.935999999999999943e+01,7.450612145651781815e-02
2.939999999999999858e+01,7.244318241309209705e-02
2.944000000000000128e+01,7.185261497606415526e-02
2.948000000000000043e+01,7.275842120368809784e-02
2.951999999999999957e+01,5.202108257691519244e-02
2.955999999999999872e+01,7.668835256212569451e-02
2.960000000000000142e+01,5.323561663598971178e-02
2.964000000000000057e+01,6.184175881412286302e-02
2.967999999999999972e+01,6.848339009660608934e-02
2.971999999999999886e+01,7.253340567406239836e-02
2.976000000000000156e+01,6.060456512002508622e-02
2.980000000000000071e+01,5.719932547617347790e-02
2.983999999999999986e+01,9.688791600407224702e-02
2.987999999999999901e+01,9.348153498817161899e-02
2.992000000000000171e+01,7.444693927961824886e-02
2.996000000000000085e+01,3.173352367746528485e-02
3.000000000000000000e+01,6.857841741065681673e-02
3.003999999999999915e+01,9.026865187114044287e-02
3.007999999999999829e+01,1.005927425420012483e-01
3.012000000000000099e+01,7.587244491937174262e-02
3.016000000000000014e+01,7.340909997815622812e-02
3.019999999999999929e+01,4.537265701906477433e-02
3.023999999999999844e+01,1.006830231993758457e-01
3.028000000000000114e+01,1.147926457872797124e-01
3.032000000000000028e+01,1.038027257772528994e-01
3.035999999999999943e+01,1.382744193103141450e-01
3.039999999999999858e+01,1.381752674266095438e-01
3.044000000000000128e+01,1.873262414332721448e-01
3.048000000000000043e+01,2.833595140576903870e-01
3.051999999999999957e+01,4.097003132064161446e-01
3.055999999999999872e+01,5.521416909228068493e-01
3.060000000000000142e+01,6.368075310027050406e-01
3.064000000000000057e+01,7.162635261474019632e-01
3.067999999999999972e+01,7.441003201396919620e-01
3.071999999999999886e+01,6.952189739936242008e-01
3.076000000000000156e+01,5.819321700847855938e-01
3.080000000000000071e+01,4.781160183457229262e-01
3.083999999999999986e+01,3.312048198035341673e-01
3.087999999999999901e+01,2.586426485080000059e-01
3.092000000000000171e+01,2.002867682484380518e-01
3.096000000000000085e+01,1.570843055437661506e-01
3.100000000000000000e+01,1.404008131148483107e-01
3.103999999999999915e+01,1.369764726597645366e-01
3.107999999999999829e+01,1.292893824303441852e-01
3.112000000000000099e+01,1.092889372256410502e-01
3.116000000000000014e+01,1.181752738902768357e-01
3.119999999999999929e+01,1.265873699920500028e-01
3.123999999999999844e+01,1.591505934179393567e-01
3.128000000000000114e+01,1.126278086673910411e-01
3.132000000000000028e+01,1.134608215100484929e-01
3.135999999999999943e+01,1.147667109013447706e-01
3.139999999999999858e+01,1.468536226565932967e-01
3.144000000000000128e+01,1.855697474445661133e-01
3.148000000000000043e+01,1.740873028461097094e-01
3.151999999999999957e+01,2.289032332562822847e-01
3.155999999999999872e+01,2.647758666142565609e-01
3.160000000000000142e+01,3.058570059796503759e-01
3.164000000000000057e+01,3.677742875195787464e-01
3.167999999999999972e+01,4.410564115510117733e-01
3.171999999999999886e+01,5.299654583843955713e-01
3.176000000000000156e+01,4.952733656397224626e-01
3.180000000000000071e+01,4.932565232103934827e-01
3.183999999999999986e+01,4.083651100844628012e-01
3.187999999999999901e+01,3.215787086048960131e-01
3.192000000000000171e+01,2.958814376749316910e-01
3.196000000000000085e+01,2.588178755724960256e-01
3.200000000000000000e+01,1.985488984777530608e-01
3.203999999999999915e+01,2.059363484796659927e-02
3.207999999999999829e+01,1.249057007636738131e-01
3.211999999999999744e+01,1.724916115393128335e-01
3.215999999999999659e+01,1.323184891878579905e-01
3.220000000000000284e+01,1.598205677782726097e-01
3.224000000000000199e+01,9.622972861741353745e-02
3.228000000000000114e+01,4.675727832797470229e-02
3.232000000000000028e+01,1.265044280221312434e-01
3.235999999999999943e+01,6.358872837354723195e-02
3.239999999999999858e+01,1.072719831322556799e-01
3.243999999999999773e+01,7.953135148329898430e-02
3.247999999999999687e+01,1.321555297016127062e-01
3.252000000000000313e+01,8.148426371050235262e-02
3.256000000000000227e+01,1.004580960073239021e-01
3.260000000000000142e+01,2.312004458800444584e-01
3.264000000000000057e+01,1.208148637799001807e-01
3.267999999999999972e+01,1.119842889457163121e-01
3.271999999999999886e+01,1.819816218452433298e-01
3.275999999999999801e+01,1.452628450492697565e-01
3.279999999999999716e+01,1.891886472104299388e-01
3.284000000000000341e+01,1.412326926575107611e-01
3.288000000000000256e+01,1.401072799803504410e-01
3.292000000000000171e+01,1.104884390844478037e-01
3.296000000000000085e+01,1.904132079623114260e-01
3.300000000000000000e+01,1.373478742014747345e-01
3.303999999999999915e+01,1.221150934667316612e-01
3.307999999999999829e+01,2.224896266696770875e-01
3.311999999999999744e+01,2.118207849770499529e-02
3.315999999999999659e+01,9.100799600457568084e-02
3.320000000000000284e+01,1.624351366349991721e-01
3.324000000000000199e+01,8.195008345632076585e-02
3.328000000000000114e+01,8.780497358593969404e-02
3.332000000000000028e+01,1.508755647181165005e-01
3.335999999999999943e+01,1.245756702536309074e-01
3.339999999999999858e+01,1.556427931209990179e-01
3.343999999999999773e+01,9.126898191622478951e-02
3.347999999999999687e+01,1.215301485950239790e-01
3.352000000000000313e+01,9.707599788527078444e-02
3.356000000000000227e+01,7.334734955734864559e-02
3.360000000000000142e+01,7.363451930979716953e-02
3.364000000000000057e+01,5.962667136804601642e-02
3.367999999999999972e+01,1.191357489960279542e-01
3.371999999999999886e+01,1.019264513002558631e-01
3.375999999999999801e+01,1.410704916334310777e-01
3.379999999999999716e+01,1.555882813809773280e-01
3.384000000000000341e+01,1.762615311855696421e-01
3.388000000000000256e+01,1.822533855075083309e-01
3.392000000000000171e+01,1.901386101686313168e-01
3.396000000000000085e+01,2.141241468539703818e-01
3.400000000000000000e+01,1.898051759065924049e-01
3.403999999999999915e+01,1.365978521125026934e-01
3.407999999999999829e+01,1.335874985052220576e-01
3.411999999999999744e+01,1.040566099164251940e-01
3.415999999999999659e+01,7.594550802461971784e-02
3.420000000000000284e+01,8.950720001970521866e-02
3.424000000000000199e+01,1.025944131307265500e-01
3.428000000000000114e+01,7.448056906881234118e-02
3.432000000000000028e+01,5.299571226164203480e-02
3.435999999999999943e+01,5.660886784049824760e-02
3.439999999999999858e+01,3.417503131456269688e-02
3.443999999999999773e+01,7.188299812777443343e-02
3.447999999999999687e+01,7.359910518999783491e-02
3.452000000000000313e+01,7.768210038168754661e-02
3.456000000000000227e+01,5.950660954425403271e-02
3.460000000000000142e+01,7.684753847996265985e-02
3.464000000000000057e+01,2.315279789673067162e-02
3.467999999999999972e+01,4.238609217656749695e-02
3.471999999999999886e+01,2.515394306322307760e-02
3.475999999999999801e+01,4.296463635243839840e-02
3.479999999999999716e+01,6.219506616576053748e-02
3.484000000000000341e+01,3.359448732181591346e-02
3.488000000000000256e+01,4.761377871079496005e-02
3.492000000000000171e+01,4.742515791354414562e-02
3.496000000000000085e+01,1.124463973564175656e-02
3.500000000000000000e+01,7.498532649395629746e-02
3.503999999999999915e+01,4.969484893555051186e-02
3.507999999999999829e+01,2.440339146853075930e-02
3.511999999999999744e+01,1.000294198640035853e-02
3.515999999999999659e+01,3.348669251294404681e-02
3.520000000000000284e+01,2.808199925442297906e-02
3.524000000000000199e+01,4.635455491212860102e-02
3.528000000000000114e+01,1.821676190079306659e-02
3.532000000000000028e+01,2.417463773602084379e-02
3.535999999999999943e+01,7.400399998658525012e-03
3.539999999999999858e+01,4.745293654958821633e-02
3.543999999999999773e+01,1.078696293713669874e-02
3.547999999999999687e+01,2.668567389511542973e-02
3.552000000000000313e+01,3.169137942131372565e-02
3.556000000000000227e+01,4.020094321309863362e-03
3.560000000000000142e+01,3.033417886640408373e-02
3.564000000000000057e+01,2.539196099576897236e-02
3.567999999999999972e+01,4.696834651166990199e-02
3.571999999999999886e+01,4.344476609592708843e-02
3.575999999999999801e+01,4.749718970066036522e-02
3.579999999999999716e+01,4.633936385131129376e-02
3.584000000000000341e+01,5.323110057818888213e-02
3.588000000000000256e+01,5.112406296048354476e-02
3.592000000000000171e+01,5.611945199267190376e-02
3.596000000000000085e+01,1.138948525560085773e-02
3.600000000000000000e+01,4.337596851891403760e-02
3.603999999999999915e+01,4.315898835372300457e-02
3.607999999999999829e+01,2.163053265353033147e-02
3.611999999999999744e+01,4.414254445838134561e-02
3.615999999999999659e+01,2.829474067161592832e-02
3.620000000000000284e+01,1.812864710202352278e-02
3.624000000000000199e+01,2.974546474408086907e-02
3.628000000000000114e+01,5.698884770628646207e-02
3.632000000000000028e+01,4.303101356948731832e-02
3.635999999999999943e+01,7.264006329553873709e-02
3.639999999999999858e+01,6.199501930569707026e-02
3.643999999999999773e+01,6.460870395597652360e-02
3.647999999999999687e+01,6.485347480765114858e-02
3.652000000000000313e+01,1.158432736990244738e-02
3.656000000000000227e+01,2.082464121042701052e-02
3.660000000000000142e+01,5.610992148660504109e-02
3.664000000000000057e+01,1.420303269788215396e-02
3.667999999999999972e+01,3.149064198848824936e-02
3.671999999999999886e+01,4.214723521940663686e-02
3.675999999999999801e+01,4.333142029066461287e-02
3.679999999999999716e+01,8.524106576674760072e-02
3.684000000000000341e+01,2.864810926764801979e-02
3.688000000000000256e+01,7.434403445872307670e-02
3.692000000000000171e+01,4.616272242578896290e-02
3.696000000000000085e+01,9.706560927071870848e-02
3.700000000000000000e+01,4.899231676988326928e-02
3.703999999999999915e+01,6.153418860821302516e-02
3.707999999999999829e+01,1.148014989007308667e-01
3.711999999999999744e+01,1.083985011110500246e-01
3.715999999999999659e+01,1.446151948133916065e-01
3.720000000000000284e+01,1.509961582856817197e-01
3.724000000000000199e+01,1.663737042357361362e-01
3.728000000000000114e+01,2.300537101987319699e-01
3.732000000000000028e+01,2.534795503223132851e-01
3.735999999999999943e+01,2.101315911384458723e-01
3.739999999999999858e+01,1.596789977588397025e-01
3.743999999999999773e+01,1.670001483961783550e-01
3.747999999999999687e+01,1.378556392697714850e-01
3.752000000000000313e+01,1.290732465271612617e-01
3.756000000000000227e+01,8.571944705863994429e-02
3.760000000000000142e+01,1.058221569921769384e-01
3.764000000000000057e+01,8.803850013666364438e-02
3.767999999999999972e+01,6.930652989047043910e-02
3.771999999999999886e+01,1.149781892936425215e-01
3.775999999999999801e+01,1.151864352625684429e-01
3.779999999999999716e+01,8.224395017283499254e-02
3.784000000000000341e+01,1.084958722240773887e-01
3.788000000000000256e+01,9.117863074310265936e-02
3.792000000000000171e+01,1.046419004898190563e-01
3.796000000000000085e+01,1.053177142111881570e-01
3.800000000000000000e+01,9.652102256293311477e-02
3.803999999999999915e+01,1.336589072105127673e-01
3.807999999999999829e+01,1.153884919628181821e-01
3.811999999999999744e+01,1.004318122768368959e-01
3.815999999999999659e+01,1.020486801828782292e-01
3.820000000000000284e+01,7.667112842790341221e-02
3.824000000000000199e+01,7.402346074903649875e-02
3.828000000000000114e+01,8.889646090949876456e-02
3.832000000000000028e+01,4.125766994943660948e-02
3.835999999999999943e+01,5.991671777529990889e-02
3.839999999999999858e+01,3.737438544028384713e-02
3.843999999999999773e+01,6.408155183457832360e-02
3.847999999999999687e+01,7.610696212861169097e-02
3.852000000000000313e+01,5.734940905629680452e-02
3.856000000000000227e+01,9.352412323421155360e-02
3.860000000000000142e+01,5.818929262110137529e-02
3.864000000000000057e+01,7.683959333188764007e-02
3.867999999999999972e+01,8.270238157283142655e-02
3.871999999999999886e+01,1.089271921234136326e-01
3.875999999999999801e+01,7.595513085114186103e-02
3.879999999999999716e+01,1.021774014605192488e-01
3.884000000000000341e+01,1.070879801643306178e-01
3.888000000000000256e+01,8.500408589843586049e-02
3.892000000000000171e+01,1.121696527321886100e-01
3.896000000000000085e+01,8.487398033767318273e-02
3.900000000000000000e+01,1.286117448298111920e-01
3.903999999999999915e+01,1.728217837959735714e-01
3.907999999999999829e+01,1.303681658658882303e-01
3.911999999999999744e+01,1.826262167831020355e-01
3.915999999999999659e+01,1.718988459005191538e-01
3.920000000000000284e+01,2.198922107141713378e-01
3.924000000000000199e+01,2.659900101860152577e-01
3.928000000000000114e+01,3.163485839359417851e-01
3.932000000000000028e+01,3.842277439942600181e-01
3.935999999999999943e+01,4.724688761893324207e-01
3.939999999999999858e+01,5.867547553136880367e-01
3.943999999999999773e+01,6.925151458341519684e-01
3.947999999999999687e+01,7.869086556507512986e-01
3.952000000000000313e+01,8.197374099273901926e-01
3.956000000000000227e+01,8.918707137562057463e-01
3.960000000000000142e+01,9.318002750698467507e-01
3.964000000000000057e+01,8.718063204198516214e-01
3.967999999999999972e+01,8.487490817778114982e-01
3.971999999999999886e+01,8.844125380665373015e-01
3.975999999999999801e+01,8.447778400069950733e-01
3.979999999999999716e+01,8.335556816554898774e-01
3.984000000000000341e+01,8.597437915960794985e-01
3.988000000000000256e+01,8.731442949926679908e-01
3.992000000000000171e+01,8.685479756084766301e-01
3.996000000000000085e+01,9.671874261121760075e-01
4.000000000000000000e+01,1.000000000000000000e+00
4.003999999999999915e+01,9.063693962339061105e-01
4.007999999999999829e+01,8.662502460753572775e-01
4.011999999999999744e+01,7.413616167990683126e-01
4.015999999999999659e+01,6.259429059141192742e-01
4.020000000000000284e+01,4.953687392619207097e-01
4.024000000000000199e+01,4.486141626251651249e-01
4.028000000000000114e+01,3.653937067182940757e-01
4.032000000000000028e+01,3.067972311351011006e-01
4.035999999999999943e+01,2.614591768831115992e-01
4.039999999999999858e+01,2.729475049437536383e-01
4.043999999999999773e+01,2.152939681031338093e-01
4.047999999999999687e+01,2.035748162742267442e-01
4.052000000000000313e+01,2.264244904645573153e-01
4.056000000000000227e+01,2.492727551409502362e-01
4.060000000000000142e+01,2.460735416627325145e-01
4.064000000000000057e+01,2.902293951350901069e-01
4.067999999999999972e+01,2.927101248783056109e-01
4.071999999999999886e+01,3.183941091050628280e-01
4.075999999999999801e+01,3.639663908880279020e-01
4.079999999999999716e+01,4.029073367591665678e-01
4.084000000000000341e+01,4.579480552960124573e-01
4.088000000000000256e+01,5.428219233562360246e-01
4.092000000000000171e+01,5.419791199278914950e-01
4.096000000000000085e+01,5.780729321617329441e-01
4.100000000000000000e+01,5.999583555669415480e-01
4.103999999999999915e+01,5.806421918481218247e-01
4.107999999999999829e+01,5.513797164753100333e-01
4.111999999999999744e+01,5.552653256025730233e-01
4.115999999999999659e+01,4.189742892798942742e-01
4.120000000000000284e+01,3.702912863322214143e-01
4.124000000000000199e+01,3.362873302101195283e-01
4.128000000000000114e+01,3.112796398494482863e-01
4.132000000000000028e+01,2.573830259255040498e-01
4.135999999999999943e+01,2.333195238952741890e-01
4.139999999999999858e+01,2.125695002907244668e-01
4.143999999999999773e+01,1.648248030249306884e-01
4.147999999999999687e+01,1.900076075353076543e-01
4.152000000000000313e+01,1.597818424711559271e-01
4.156000000000000227e+01,1.333431081168246213e-01
4.160000000000000142e+01,9.411663237886488953e-02
4.164000000000000057e+01,7.241056107259079277e-02
4.167999999999999972e+01,6.396280761594565212e-02
4.171999999999999886e+01,8.866309162229585317e-02
4.175999999999999801e+01,1.308837706529158706e-01
4.179999999999999716e+01,9.354405196294729441e-02
4.184000000000000341e+01,8.272245374550121766e-02
4.188000000000000256e+01,7.947637977032297185e-02
4.192000000000000171e+01,8.333226207424597465e-02
4.196000000000000085e+01,5.024856857687026723e-02
4.200000000000000000e+01,8.298886367977835465e-02
4.203999999999999915e+01,6.126767809741143905e-02
4.207999999999999829e+01,6.937954796426407111e-02
4.211999999999999744e+01,8.838187705008139494e-02
4.215999999999999659e+01,4.629280846015074169e-02
4.220000000000000284e+01,6.955414796411617251e-02
4.224000000000000199e+01,4.593102834156001513e-02
4.228000000000000114e+01,5.877085607225403241e-02
4.232000000000000028e+01,5.598149701065736894e-02
4.235999999999999943e+01,1.530540113498679404e-02
4.239999999999999858e+01,5.323951284030030429e-02
4.243999999999999773e+01,3.813280698436993105e-02
4.247999999999999687e+01,7.369597762350020564e-02
4.252000000000000313e+01,3.822286099004923443e-02
4.256000000000000227e+01,4.536901251490749187e-02
4.260000000000000142e+01,5.346072425448114562e-02
4.264000000000000057e+01,4.687035377004444836e-02
4.267999999999999972e+01,5.117039860329838236e-02
4.271999999999999886e+01,5.404817010704588559e-02
4.275999999999999801e+01,3.798176653311596818e-02
4.279999999999999716e+01,1.433674060237282756e-02
4.284000000000000341e+01,4.515008156333287503e-02
4.288000000000000256e+01,2.434326495127454165e-02
4.292000000000000171e+01,2.768666000818974932e-02
4.296000000000000085e+01,3.386984636701795282e-02
4.300000000000000000e+01,5.425837674862324378e-02
4.303999999999999915e+01,5.807053423872030051e-02
4.307999999999999829e+01,6.093395500442446572e-02
4.311999999999999744e+01,5.006238557117729387e-02
4.315999999999999659e+01,4.345128624290024721e-02
4.320000000000000284e+01,5.436046904990254197e-02
4.324000000000000199e+01,4.632543914956396142e-02
4.328000000000000114e+01,4.633938856566966608e-02
4.332000000000000028e+01,5.345518450769166929e-02
4.335999999999999943e+01,4.067962868023462103e-02
4.339999999999999858e+01,2.079896828624636443e-02
4.343999999999999773e+01,5.111454430063088611e-02
4.347999999999999687e+01,5.822380534659175877e-02
4.352000000000000313e+01,2.223702553915197708e-02
4.356000000000000227e+01,4.165568583364268052e-02
4.360000000000000142e+01,4.307723485326743484e-02
4.364000000000000057e+01,4.544426255667037562e-02
4.367999999999999972e+01,1.418653341067600999e-02
4.371999999999999886e+01,4.259631526964226256e-02
4.375999999999999801e+01,4.732619538218654776e-02
4.379999999999999716e+01,5.252797680792661850e-02
4.384000000000000341e+01,2.173716470424225805e-02
4.388000000000000256e+01,3.356551727729278900e-02
4.392000000000000171e+01,3.592090038153744613e-02
4.396000000000000085e+01,5.863789500492846973e-02
4.400000000000000000e+01,4.583584838303501885e-02
4.403999999999999915e+01,3.587350839631184285e-02
4.407999999999999829e+01,4.153712224770699651e-02
4.411999999999999744e+01,4.814617715321677788e-02
4.415999999999999659e+01,2.539252102591715854e-02
4.420000000000000284e+01,3.578670794168552910e-02
4.424000000000000199e+01,2.534234444553598933e-02
4.428000000000000114e+01,2.957678945375588273e-02
4.432000000000000028e+01,3.191527087289668801e-02
4.435999999999999943e+01,3.851412832284918653e-02
4.439999999999999858e+01,4.984692349516926108e-02
4.443999999999999773e+01,5.502166222474327850e-02
4.447999999999999687e+01,4.361991517381890587e-02
4.452000000000000313e+01,5.731538401437927949e-02
4.456000000000000227e+01,1.654917461393209249e-02
4.460000000000000142e+01,5.439300032517834643e-02
4.464000000000000057e+01,5.482347530881083453e-02
4.467999999999999972e+01,4.672805089805953660e-02
4.471999999999999886e+01,5.094357636101309178e-02
4.475999999999999801e+01,5.231597408630726115e-02
4.479999999999999716e+01,3.853255542674419859e-02
4.484000000000000341e+01,5.458197584583607959e-02
4.488000000000000256e+01,4.458358257915211870e-02
4.492000000000000171e+01,6.725941108367967936e-02
4.496000000000000085e+01,6.483454928554331642e-02
4.500000000000000000e+01,5.104237404241330350e-02
4.503999999999999915e+01,6.850371668099547451e-02
4.507999999999999829e+01,5.897010030005295916e-02
4.511999999999999744e+01,6.127383760740139074e-02
4.515999999999999659e+01,6.736432340209454195e-02
4.520000000000000284e+01,7.771511937568849337e-02
4.524000000000000199e+01,6.296520309598147014e-02
4.528000000000000114e+01,1.003056382870490676e-01
4.532000000000000028e+01,1.106510956437601473e-01
4.535999999999999943e+01,9.873722030392194371e-02
4.539999999999999858e+01,1.213917884150766541e-01
4.543999999999999773e+01,1.014237299815385906e-01
4.547999999999999687e+01,7.671822805640071685e-02
4.552000000000000313e+01,8.563403052011787919e-02
4.556000000000000227e+01,8.791812391117978520e-02
4.560000000000000142e+01,7.125781958238917857e-02
4.564000000000000057e+01,7.353830058683939741e-02
4.567999999999999972e+01,6.350428518288374347e-02
4.571999999999999886e+01,5.536271505555402650e-02
4.575999999999999801e+01,4.769289258696129269e-02
4.579999999999999716e+01,7.317078772922516738e-02
4.584000000000000341e+01,5.792028427818805836e-02
4.588000000000000256e+01,4.598290804263947124e-02
4.592000000000000171e+01,8.803009241442605326e-02
4.596000000000000085e+01,5.335794190604200432e-02
4.600000000000000000e+01,6.793469745977029350e-02
4.603999999999999915e+01,6.261989114506544274e-02
4.607999999999999829e+01,7.198375222349216729e-02
4.611999999999999744e+01,4.866979482312206590e-02
4.615999999999999659e+01,8.833811093511874379e-02
4.620000000000000284e+01,8.112165747587080089e-02
4.624000000000000199e+01,8.526890507500486938e-02
4.628000000000000114e+01,7.520734991920879908e-02
4.632000000000000028e+01,9.024286954365995372e-02
4.635999999999999943e+01,9.391096910573787371e-02
4.639999999999999858e+01,9.710363649894572513e-02
4.643999999999999773e+01,1.211312858187336694e-01
4.647999999999999687e+01,1.759387753038823554e-01
4.652000000000000313e+01,1.999626742616262276e-01
4.656000000000000227e+01,1.922558499014374034e-01
4.660000000000000142e+01,1.968598280321054717e-01
4.664000000000000057e+01,2.014619200064329263e-01
4.667999999999999972e+01,2.652577261087686877e-01
4.671999999999999886e+01,2.471249246496600438e-01
4.675999999999999801e+01,2.450914317570768997e-01
4.679999999999999716e+01,2.127478912138131006e-01
4.684000000000000341e+01,1.804024488351824718e-01
4.688000000000000256e+01,1.930437600846966473e-01
4.692000000000000171e+01,2.061567280545945624e-01
4.696000000000000085e+01,1.529687089511369835e-01
4.700000000000000000e+01,1.092500720163161188e-01
4.703999999999999915e+01,1.261458154693396172e-01
4.707999999999999829e+01,1.321476472428560756e-01
4.711999999999999744e+01,1.253613048916152606e-01
4.715999999999999659e+01,1.095753038987018618e-01
4.720000000000000284e+01,7.484477975372461067e-02
4.724000000000000199e+01,7.657681412214252525e-02
4.728000000000000114e+01,6.267927285841465301e-02
4.732000000000000028e+01,8.098220039022033245e-02
4.735999999999999943e+01,7.891989774465728302e-02
4.739999999999999858e+01,7.543495488036960905e-02
4.743999999999999773e+01,6.058250728696620152e-02
4.747999999999999687e+01,6.419713595239934234e-02
4.752000000000000313e+01,4.555226258779777188e-02
4.756000000000000227e+01,5.816070954917550162e-02
4.760000000000000142e+01,6.271659302974501304e-02
4.764000000000000057e+01,4.453940024550265969e-02
4.767999999999999972e+01,4.577639769579296136e-02
4.771999999999999886e+01,6.216549879855955835e-02
4.775999999999999801e+01,4.445595837242883458e-02
4.779999999999999716e+01,6.320893255841945890e-02
4.784000000000000341e+01,8.432775065071705656e-02
4.788000000000000256e+01,7.087435297934042977e-02
4.792000000000000171e+01,5.552470949640919001e-02
4.796000000000000085e+01,5.580071567848380459e-02
4.800000000000000000e+01,6.175750701517307428e-02
4.803999999999999915e+01,5.019040382997125294e-02
4.807999999999999829e+01,5.661676503916553832e-02
4.811999999999999744e+01,5.262269786527673521e-02
4.815999999999999659e+01,6.141287571319986593e-02
4.820000000000000284e+01,6.072974856115180564e-02
4.824000000000000199e+01,5.199400775541090924e-02
4.828000000000000114e+01,5.414824325462125332e-02
4.832000000000000028e+01,8.139939674381452273e-02
4.835999999999999943e+01,5.134718512633083126e-02
4.839999999999999858e+01,6.391378383958513931e-02
4.843999999999999773e+01,8.310826286831847487e-02
4.847999999999999687e+01,5.257640462073870369e-02
4.852000000000000313e+01,6.750473626064859567e-02
4.856000000000000227e+01,5.070218779236167900e-02
4.860000000000000142e+01,7.983338776731498110e-02
4.864000000000000057e+01,7.344518274357113297e-02
4.867999999999999972e+01,8.647108955922781781e-02
4.871999999999999886e+01,7.013392786027281001e-02
4.875999999999999801e+01,1.196202248105086574e-01
4.879999999999999716e+01,1.061203442318746915e-01
4.884000000000000341e+01,1.395013229363716856e-01
4.888000000000000256e+01,1.188938495602517298e-01
4.892000000000000171e+01,1.508500071239870233e-01
4.896000000000000085e+01,1.747534945895344027e-01
4.900000000000000000e+01,1.972342164041457901e-01
4.903999999999999915e+01,1.936667984092318717e-01
4.907999999999999829e+01,2.057249422767758462e-01
4.911999999999999744e+01,1.959970235094350144e-01
4.915999999999999659e+01,1.696922520723777583e-01
4.920000000000000284e+01,1.703785889470320059e-01
4.924000000000000199e+01,1.345983441311875140e-01
4.928000000000000114e+01,1.385954516941972081e-01
4.932000000000000028e+01,1.127558788781548443e-01
4.935999999999999943e+01,7.412795633225949254e-02
4.939999999999999858e+01,6.343825607377168163e-02
4.943999999999999773e+01,5.653496877146345356e-02
4.947999999999999687e+01,7.520207334814615896e-02
4.952000000000000313e+01,8.060725082439347544e-02
4.956000000000000227e+01,8.506318357579210898e-02
4.960000000000000142e+01,8.478134984764694460e-02
4.964000000000000057e+01,7.786748719470777680e-02
4.967999999999999972e+01,6.005950903491812098e-02
4.971999999999999886e+01,7.445181152234510435e-02
4.975999999999999801e+01,7.368790878506002728e-02
4.979999999999999716e+01,4.734937148531045970e-02
4.984000000000000341e+01,5.747318887161256135e-02
4.988000000000000256e+01,4.439018956064588045e-02
4.992000000000000171e+01,4.787981591494861605e-02
4.996000000000000085e+01,5.231442549579480572e-02
5.000000000000000000e+01,5.769401516737909796e-02
5.003999999999999915e+01,5.123233145514309583e-02
5.007999999999999829e+01,4.287423259786718455e-02
5.011999999999999744e+01,5.014161407211190080e-02
5.015999999999999659e+01,4.367345344567536564e-02
5.020000000000000284e+01,3.578243309414439605e-02
5.024000000000000199e+01,3.546628160157722087e-02
5.028000000000000114e+01,4.177786617744597142e-02
5.032000000000000028e+01,5.187579472177804296e-02
5.035999999999999943e+01,5.723589720626598432e-02
5.039999999999999858e+01,3.560062360912640694e-02
5.043999999999999773e+01,3.290575904859380924e-02
5.047999999999999687e+01,4.204782797844438397e-02
5.052000000000000313e+01,5.355553071564810724e-02
5.056000000000000227e+01,5.132765999411778579e-02
5.060000000000000142e+01,5.288611129041380365e-02
5.064000000000000057e+01,6.580791870651053754e-02
5.067999999999999972e+01,3.184460534117114494e-02
5.071999999999999886e+01,4.949765214972684513e-02
5.075999999999999801e+01,8.088186980747356924e-02
5.079999999999999716e+01,6.869591106789686707e-02
5.084000000000000341e+01,4.372148657367166957e-02
5.088000000000000256e+01,3.910813110427889538e-02
5.092000000000000171e+01,4.206959118516014756e-02
5.096000000000000085e+01,4.739665057953650062e-02
5.100000000000000000e+01,4.845939856854528105e-02
5.103999999999999915e+01,5.472912856360594852e-02
5.107999999999999829e+01,6.194375398266226129e-02
5.111999999999999744e+01,5.068711376809813263e-02
5.115999999999999659e+01,5.600300200883984864e-02
5.120000000000000284e+01,7.647072108699802528e-02
5.124000000000000199e+01,6.473378513064444173e-02
5.128000000000000114e+01,5.157390478245382076e-02
5.132000000000000028e+01,9.003033757107881119e-02
5.135999999999999943e+01,5.366127145526523867e-02
5.139999999999999858e+01,7.080277151410171999e-02
5.143999999999999773e+01,9.362478704829847731e-02
5.147999999999999687e+01,7.950648045953936927e-02
5.152000000000000313e+01,8.480206306800569527e-02
5.156000000000000227e+01,9.530458691705526175e-02
5.160000000000000142e+01,9.728066887740714763e-02
5.164000000000000057e+01,1.134614175265950403e-01
5.167999999999999972e+01,1.277456255985318090e-01
5.171999999999999886e+01,1.140872244525444612e-01
5.175999999999999801e+01,1.103713971417261547e-01
5.179999999999999716e+01,1.469062894813906450e-01
5.184000000000000341e+01,1.635491652608561663e-01
5.188000000000000256e+01,1.650356696179295091e-01
5.192000000000000171e+01,1.191633911562416798e-01
5.196000000000000085e+01,1.372200611698771444e-01
5.200000000000000000e+01,1.368053965621761903e-01
5.203999999999999915e+01,9.234689351982668104e-02
5.207999999999999829e+01,1.066081164444111357e-01
5.211999999999999744e+01,7.398410569856929409e-02
5.215999999999999659e+01,9.913268499332827943e-02
5.220000000000000284e+01,1.006007008867507019e-01
5.224000000000000199e+01,5.897199232122088408e-02
5.228000000000000114e+01,9.500558713804782562e-02
5.232000000000000028e+01,9.599305328945273441e-02
5.235999999999999943e+01,1.055023517568639824e-01
5.239999999999999858e+01,1.074322752741942305e-01
5.243999999999999773e+01,9.704717243202579113e-02
5.247999999999999687e+01,9.471032767108647499e-02
5.252000000000000313e+01,9.615965440931995012e-02
5.256000000000000227e+01,1.028158439930045576e-01
5.260000000000000142e+01,1.075754208759165803e-01
5.264000000000000057e+01,1.123326412316956735e-01
5.267999999999999972e+01,8.725291780077885917e-02
5.271999999999999886e+01,8.063985983820654013e-02
5.275999999999999801e+01,1.062268442016491704e-01
5.279999999999999716e+01,8.256071744916973487e-02
5.284000000000000341e+01,8.730610813220467115e-02
5.288000000000000256e+01,6.742375245049085641e-02
5.292000000000000171e+01,7.121725965906888778e-02
5.296000000000000085e+01,5.606579215962224916e-02
5.300000000000000000e+01,1.001075433309491919e-01
5.303999999999999915e+01,8.873982181582625028e-02
5.307999999999999829e+01,5.037651412012176394e-02
5.311999999999999744e+01,6.836502672360775246e-02
5.315999999999999659e+01,6.646141928532038612e-02
5.320000000000000284e+01,7.686809693001801780e-02
5.324000000000000199e+01,5.412283309521716962e-02
5.328000000000000114e+01,6.594539495776888249e-02
5.332000000000000028e+01,6.403216699102212695e-02
5.335999999999999943e+01,4.885671088653265048e-02
5.339999999999999858e+01,6.493411728045124509e-02
5.343999999999999773e+01,6.254007616404326508e-02
5.347999999999999687e+01,5.919648301386883082e-02
5.352000000000000313e+01,8.852643743677025834e-02
5.356000000000000227e+01,8.281016598428601883e-02
5.360000000000000142e+01,5.246609172255784631e-02
5.364000000000000057e+01,3.537939770467925932e-02
5.367999999999999972e+01,5.238693319873900800e-02
5.371999999999999886e+01,6.134142543378238999e-02
5.375999999999999801e+01,8.213259402317563129e-02
5.379999999999999716e+01,6.929821240443514996e-02
5.384000000000000341e+01,5.030503742870719164e-02
5.388000000000000256e+01,4.267496457255211262e-02
5.392000000000000171e+01,3.504243484349494481e-02
5.396000000000000085e+01,6.150411267573940161e-02
5.400000000000000000e+01,7.375638254263421068e-02
5.403999999999999915e+01,3.959683304781030228e-02
5.407999999999999829e+01,5.137060239090283226e-02
5.411999999999999744e+01,4.635047981920888821e-02
5.415999999999999659e+01,2.798113496044003085e-02
5.420000000000000284e+01,3.987842260336432049e-02
5.424000000000000199e+01,3.538881707588419079e-02
5.428000000000000114e+01,4.366416180606035730e-02
5.432000000000000028e+01,3.995460347195505663e-02
5.435999999999999943e+01,4.561382464761316868e-02
5.439999999999999858e+01,4.436698177023751938e-02
5.443999999999999773e+01,3.096935598861339997e-02
5.447999999999999687e+01,4.492312994988486435e-02
5.452000000000000313e+01,3.947013649560535825e-02
5.456000000000000227e+01,4.188497226035891446e-02
5.460000000000000142e+01,4.009877081775536922e-02
5.464000000000000057e+01,4.473742506073976472e-02
5.467999999999999972e+01,5.542009427682957623e-02
5.471999999999999886e+01,4.115001337105800988e-02
5.475999999999999801e+01,5.529522235652668816e-02
5.479999999999999716e+01,3.815138021781708244e-02
5.484000000000000341e+01,3.983167063775276684e-02
5.488000000000000256e+01,4.923834023543255389e-02
5.492000000000000171e+01,4.278054060126616071e-02
5.496000000000000085e+01,4.606045027670331582e-02
5.500000000000000000e+01,4.400586092720928238e-02
5.503999999999999915e+01,5.177855191919433775e-02
5.507999999999999829e+01,3.365841119773983758e-02
5.511999999999999744e+01,3.593767920608755689e-02
5.515999999999999659e+01,4.425473247736335519e-02
5.520000000000000284e+01,5.841856503696881558e-02
5.524000000000000199e+01,3.813581091179220339e-02
5.528000000000000114e+01,4.512444484182565052e-02
5.532000000000000028e+01,5.298830643364087906e-02
5.535999999999999943e+01,4.773311289886548320e-02
5.539999999999999858e+01,5.557500276963020513e-02
5.543999999999999773e+01,3.228365541093986685e-02
5.547999999999999687e+01,3.519522225307104846e-02
5.552000000000000313e+01,2.987817444379477910e-02
5.556000000000000227e+01,3.869858806733505324e-02
5.560000000000000142e+01,4.344154392389261432e-02
5.564000000000000057e+01,3.677902689453678431e-02
5.567999999999999972e+01,4.360927742589180284e-02
5.571999999999999886e+01,3.752859943755170596e-02
5.575999999999999801e+01,3.451531202310371971e-02
5.579999999999999716e+01,3.576150379915649796e-02
5.584000000000000341e+01,6.143060065530801805e-02
5.588000000000000256e+01,4.802483279908481562e-02
5.592000000000000171e+01,6.416249876845314670e-02
5.596000000000000085e+01,4.906458020968389178e-02
5.600000000000000000e+01,4.651248377545391666e-02
5.603999999999999915e+01,7.208833229239605678e-02
5.607999999999999829e+01,8.299488626685898318e-02
5.611999999999999744e+01,6.993492171822590642e-02
5.615999999999999659e+01,5.037492091400400107e-02
5.620000000000000284e+01,6.488219268385646277e-02
5.624000000000000199e+01,7.046604714246794410e-02
5.628000000000000114e+01,6.456578262023265902e-02
5.632000000000000028e+01,5.487091244244273608e-02
5.635999999999999943e+01,2.210711212105041790e-02
5.639999999999999858e+01,6.705906139000755717e-02
5.643999999999999773e+01,5.778565282599450875e-02
5.647999999999999687e+01,5.878245043783840440e-02
5.652000000000000313e+01,4.928101822503173912e-02
5.656000000000000227e+01,2.874383433057252704e-02
5.660000000000000142e+01,5.559095534005990130e-02
5.664000000000000057e+01,7.264814186141395347e-02
5.667999999999999972e+01,6.704354844958107518e-02
5.671999999999999886e+01,4.980056042850102699e-02
5.675999999999999801e+01,5.814549880550409083e-02
5.679999999999999716e+01,5.248484305481444095e-02
5.684000000000000341e+01,3.057209895823299189e-02
5.688000000000000256e+01,5.972213208660642064e-02
5.692000000000000171e+01,7.729087494928597868e-02
5.696000000000000085e+01,8.293670575676009848e-02
5.700000000000000000e+01,5.457120372471914449e-02
5.703999999999999915e+01,6.528090077315622242e-02
5.707999999999999829e+01,3.292486125993640544e-02
5.711999999999999744e+01,4.146785452232308600e-02
5.715999999999999659e+01,6.285345429317484856e-02
5.720000000000000284e+01,6.394147468607327967e-02
5.724000000000000199e+01,3.698573226894820432e-02
5.728000000000000114e+01,4.579762630510399862e-02
5.732000000000000028e+01,4.683750975652799936e-02
5.735999999999999943e+01,6.740164760083106055e-02
5.739999999999999858e+01,5.401451168043262113e-02
5.743999999999999773e+01,7.368241241401227160e-02
5.747999999999999687e+01,9.044403311930282463e-02
5.752000000000000313e+01,1.072029147292160173e-01
5.756000000000000227e+01,1.159084520428054765e-01
5.760000000000000142e+01,1.246112439894068447e-01
5.764000000000000057e+01,1.295227688143251732e-01
5.767999999999999972e+01,1.183303378703629283e-01
5.771999999999999886e+01,9.150751284907603089e-02
5.775999999999999801e+01,1.395051726406548176e-01
5.779999999999999716e+01,1.136239583178669660e-01
5.784000000000000341e+01,1.085768322171534600e-01
5.788000000000000256e+01,1.073154574177048598e-01
5.792000000000000171e+01,1.283088590508040805e-01
5.796000000000000085e+01,1.204120326256323537e-01
5.800000000000000000e+01,9.072844741680305414e-02
5.803999999999999915e+01,1.216583802493654554e-01
5.807999999999999829e+01,1.128060845869329892e-01
5.811999999999999744e+01,9.637396555426400169e-02
5.815999999999999659e+01,1.173506786148704045e-01
5.820000000000000284e+01,1.103842744570968926e-01
5.824000000000000199e+01,1.294611402643185138e-01
5.828000000000000114e+01,1.338546977476642308e-01
5.832000000000000028e+01,1.159879065335488041e-01
5.835999999999999943e+01,1.189551627760392360e-01
5.839999999999999858e+01,1.280759536911319496e-01
5.843999999999999773e+01,1.281962016674623450e-01
5.847999999999999687e+01,1.141066904682515315e-01
5.852000000000000313e+01,1.341110293485399396e-01
5.856000000000000227e+01,1.238043986513945732e-01
5.860000000000000142e+01,1.092328607458781936e-01
5.864000000000000057e+01,7.145381940173586854e-02
5.867999999999999972e+01,8.481694937887601649e-02
5.871999999999999886e+01,1.000715054959252504e-01
5.875999999999999801e+01,9.448637290373895770e-02
5.879999999999999716e+01,7.705928018637527022e-02
5.884000000000000341e+01,6.862707661192331277e-02
5.888000000000000256e+01,8.197600938333098053e-02
5.892000000000000171e+01,6.501394435505739033e-02
5.896000000000000085e+01,5.373180527075091528e-02
5.900000000000000000e+01,6.091583933335967954e-02
5.903999999999999915e+01,5.199581100970827180e-02
5.907999999999999829e+01,4.544074543107954472e-02
5.911999999999999744e+01,6.682314013917489692e-02
5.915999999999999659e+01,5.505312926858976774e-02
5.920000000000000284e+01,3.238825656949687049e-02
5.924000000000000199e+01,5.897125198096779541e-02
5.928000000000000114e+01,5.619035102523223940e-02
5.932000000000000028e+01,8.182045950455542338e-02
5.935999999999999943e+01,3.878078467407945068e-02
5.939999999999999858e+01,3.314984472691520634e-02
5.943999999999999773e+01,3.935513584975060264e-02
5.947999999999999687e+01,5.029318249636211685e-02
5.952000000000000313e+01,3.470870292510297439e-02
5.956000000000000227e+01,5.463868638448939746e-02
5.960000000000000142e+01,3.147136839675144376e-02
5.964000000000000057e+01,4.192424785860366515e-02
5.967999999999999972e+01,4.479718165381339767e-02
5.971999999999999886e+01,4.387868526546515741e-02
5.975999999999999801e+01,7.439912124551261580e-03
5.979999999999999716e+01,4.582146387043362079e-02
5.984000000000000341e+01,5.389194569311307054e-02
5.988000000000000256e+01,4.727899375970532475e-02
5.992000000000000171e+01,4.397806837413173464e-02
5.996000000000000085e+01,3.072935123447250935e-02
