2.003999999999999915e+01,3.292590043974624042e-02
2.007999999999999829e+01,9.977966741288080144e-02
2.012000000000000099e+01,6.860567341133731734e-02
2.016000000000000014e+01,9.065760909633217846e-02
2.019999999999999929e+01,7.902354875742581553e-02
2.023999999999999844e+01,8.052812920122109919e-02
2.028000000000000114e+01,6.283202705420605494e-02
2.032000000000000028e+01,7.646542619524412943e-02
2.035999999999999943e+01,6.348704166065906318e-02
2.039999999999999858e+01,9.969215100381915995e-02
2.044000000000000128e+01,9.008399853844097083e-02
2.048000000000000043e+01,1.087735222395924822e-01
2.051999999999999957e+01,8.367098468587477744e-02
2.055999999999999872e+01,1.020251725630981904e-01
2.060000000000000142e+01,1.264437437628496419e-01
2.064000000000000057e+01,2.094780896579535867e-01
2.067999999999999972e+01,3.120515285616971557e-01
2.071999999999999886e+01,3.263663239927143134e-01
2.076000000000000156e+01,2.335578692038959847e-01
2.080000000000000071e+01,1.990283073141871084e-01
2.083999999999999986e+01,1.362025805288057667e-01
2.087999999999999901e+01,1.148123439192388906e-01
2.092000000000000171e+01,9.409657622047375158e-02
2.096000000000000085e+01,7.978202852858509719e-02
2.100000000000000000e+01,4.997228285552366561e-02
2.103999999999999915e+01,9.730601253766020531e-02
2.107999999999999829e+01,8.231989702158393207e-02
2.112000000000000099e+01,9.327332674008494140e-02
2.116000000000000014e+01,7.491996005476748988e-02
2.119999999999999929e+01,2.624918974850537837e-02
2.123999999999999844e+01,6.516478283217479184e-02
2.128000000000000114e+01,5.085594708972395600e-02
2.132000000000000028e+01,7.090833712262352428e-02
2.135999999999999943e+01,7.512863002737811546e-02
2.139999999999999858e+01,4.734716238215935791e-02
2.144000000000000128e+01,7.043343796919637745e-02
2.148000000000000043e+01,6.993964395747005736e-02
2.151999999999999957e+01,3.441226774439238439e-02
2.155999999999999872e+01,6.491168055783634594e-02
2.160000000000000142e+01,5.364014591643634366e-02
2.164000000000000057e+01,3.596879149435303763e-02
2.167999999999999972e+01,4.288946206216618512e-02
2.171999999999999886e+01,4.913706047522584802e-02
2.176000000000000156e+01,6.414388490186777314e-02
2.180000000000000071e+01,4.782264990839900365e-02
2.183999999999999986e+01,6.619946349404559616e-02
2.187999999999999901e+01,4.785832406872896766e-02
2.192000000000000171e+01,2.951783096924989747e-02
2.196000000000000085e+01,5.935009266485179180e-02
2.200000000000000000e+01,7.537140920393735344e-02
2.203999999999999915e+01,6.377019257429840382e-02
2.207999999999999829e+01,6.631806084763636200e-02
2.212000000000000099e+01,3.652723819271778971e-02
2.216000000000000014e+01,5.221420965687068039e-02
2.219999999999999929e+01,8.276182084010066248e-03
2.223999999999999844e+01,2.800680913557283824e-02
2.228000000000000114e+01,4.066382505280045911e-02
2.232000000000000028e+01,3.647805681140518091e-02
2.235999999999999943e+01,4.610448126630686816e-02
2.239999999999999858e+01,4.158305794757480300e-02
2.244000000000000128e+01,3.066174544524445308e-02
2.248000000000000043e+01,4.736419977083655003e-02
2.251999999999999957e+01,5.564555047857871334e-02
2.255999999999999872e+01,3.765179456834168853e-02
2.260000000000000142e+01,6.917820959349392507e-02
2.264000000000000057e+01,6.668154900019400422e-02
2.267999999999999972e+01,5.407943133016098608e-02
2.271999999999999886e+01,2.396075896872761068e-02
2.276000000000000156e+01,6.391118651736393819e-02
2.280000000000000071e+01,5.501633627792277409e-02
2.283999999999999986e+01,2.725744927400350348e-02
2.287999999999999901e+01,4.261821851691235952e-02
2.292000000000000171e+01,4.214675529599196113e-02
2.296000000000000085e+01,3.493848986391896033e-02
2.300000000000000000e+01,3.514187120826960803e-02
2.303999999999999915e+01,4.039882044927835258e-02
2.307999999999999829e+01,4.262450414095755868e-02
2.312000000000000099e+01,5.192495628296350113e-02
2.316000000000000014e+01,3.865579682706471454e-02
2.319999999999999929e+01,6.311637920626700371e-02
2.323999999999999844e+01,4.984828684257027603e-02
2.328000000000000114e+01,3.557011907277576185e-02
2.332000000000000028e+01,2.634549490861897228e-02
2.335999999999999943e+01,3.463852375937604561e-02
2.339999999999999858e+01,4.225833470925816071e-02
2.344000000000000128e+01,2.764537768587579589e-02
2.348000000000000043e+01,8.653648749066090301e-03
2.351999999999999957e+01,3.951887884995349681e-02
2.355999999999999872e+01,4.040336850695761678e-02
2.360000000000000142e+01,5.543681120140080826e-02
2.364000000000000057e+01,3.375214819846794612e-02
2.367999999999999972e+01,2.958511044928305300e-02
2.371999999999999886e+01,2.946097785729824212e-02
2.376000000000000156e+01,2.158936990426546867e-02
2.380000000000000071e+01,2.786669763794291654e-02
2.383999999999999986e+01,3.313390138348228098e-02
2.387999999999999901e+01,4.210712848997838487e-02
2.392000000000000171e+01,5.377577174030546969e-02
2.396000000000000085e+01,3.849545108623236844e-02
2.400000000000000000e+01,2.388933214173844313e-02
2.403999999999999915e+01,4.836035382192472448e-02
2.407999999999999829e+01,4.352432577765331240e-02
2.412000000000000099e+01,5.485841315288666337e-02
2.416000000000000014e+01,6.518234877881542988e-02
2.419999999999999929e+01,2.093413059534475137e-02
2.423999999999999844e+01,3.631197854108948742e-02
2.428000000000000114e+01,1.295045777316592220e-02
2.432000000000000028e+01,5.460488284472726078e-02
2.435999999999999943e+01,4.404521563592628947e-02
2.439999999999999858e+01,5.639299786881096788e-02
2.444000000000000128e+01,3.438068041102508576e-02
2.448000000000000043e+01,4.620825129568080503e-03
2.451999999999999957e+01,4.897233205968898329e-02
2.455999999999999872e+01,2.628754106967584256e-02
2.460000000000000142e+01,5.244901167644468870e-02
2.464000000000000057e+01,4.323976149483390458e-02
2.467999999999999972e+01,2.560922030750322972e-02
2.471999999999999886e+01,4.772949658369503995e-02
2.476000000000000156e+01,5.132243744407350566e-02
2.480000000000000071e+01,4.885215229791491781e-02
2.483999999999999986e+01,4.267671308469406927e-02
2.487999999999999901e+01,2.841683343068419909e-02
2.492000000000000171e+01,4.346484850400658684e-02
2.496000000000000085e+01,1.370981338930184548e-02
2.500000000000000000e+01,2.572677894106025973e-02
2.503999999999999915e+01,2.629061101484608462e-02
2.507999999999999829e+01,2.314926820069511046e-02
2.512000000000000099e+01,2.809312407656371774e-02
2.516000000000000014e+01,3.202674144948466223e-02
2.519999999999999929e+01,4.404555057213353081e-02
2.523999999999999844e+01,2.507286975779771110e-02
2.528000000000000114e+01,4.214541075268351394e-02
2.532000000000000028e+01,2.351030405105231785e-02
2.535999999999999943e+01,5.372139301343367007e-02
2.539999999999999858e+01,4.283494068844551778e-02
2.544000000000000128e+01,4.037052720797107419e-02
2.548000000000000043e+01,4.262260202960378025e-02
2.551999999999999957e+01,4.790682210489769638e-02
2.555999999999999872e+01,6.329741019256869550e-02
2.560000000000000142e+01,1.400968554593674462e-02
2.564000000000000057e+01,2.502164140473931569e-02
2.567999999999999972e+01,5.759346399792382443e-02
2.571999999999999886e+01,3.053998218126901740e-02
2.576000000000000156e+01,5.132205758018941466e-02
2.580000000000000071e+01,7.176757478515009836e-02
2.583999999999999986e+01,5.279985210943844570e-02
2.587999999999999901e+01,6.212933713058083063e-02
2.592000000000000171e+01,6.943791396902602997e-02
2.596000000000000085e+01,9.291644660027179037e-02
2.600000000000000000e+01,3.655757559105457521e-02
2.603999999999999915e+01,6.576344406031903178e-02
2.607999999999999829e+01,8.385295674348169914e-02
2.612000000000000099e+01,8.543622351983606866e-02
2.616000000000000014e+01,1.186853528586249290e-01
2.619999999999999929e+01,1.115106073384492108e-01
2.623999999999999844e+01,1.033255296213906327e-01
2.628000000000000114e+01,1.409547565140522041e-01
2.632000000000000028e+01,1.142424761254475368e-01
2.635999999999999943e+01,1.633257379000170040e-01
2.639999999999999858e+01,2.167885402476814605e-01
2.644000000000000128e+01,2.995591054571398737e-01
2.648000000000000043e+01,3.954677701065635320e-01
2.651999999999999957e+01,5.200104548461695897e-01
2.655999999999999872e+01,7.230436077235012915e-01
2.660000000000000142e+01,8.388282107636625406e-01
2.664000000000000057e+01,9.812256159896085572e-01
2.667999999999999972e+01,8.830995628127645825e-01
2.671999999999999886e+01,7.846368716286086231e-01
2.676000000000000156e+01,6.433921815938274946e-01
2.680000000000000071e+01,4.879992620693807126e-01
2.683999999999999986e+01,3.571979198860293914e-01
2.687999999999999901e+01,3.412687529705245582e-01
2.692000000000000171e+01,2.990641011911546743e-01
2.696000000000000085e+01,2.181198481983513127e-01
2.700000000000000000e+01,2.156660251716707721e-01
2.703999999999999915e+01,1.374171232686585142e-01
2.707999999999999829e+01,1.299106823312959624e-01
2.712000000000000099e+01,1.240887761791246990e-01
2.716000000000000014e+01,8.895955310127302840e-02
2.719999999999999929e+01,7.741127238622513840e-02
2.723999999999999844e+01,8.506464766025458035e-02
2.728000000000000114e+01,5.903141269458565127e-02
2.732000000000000028e+01,5.624224176562314659e-02
2.735999999999999943e+01,6.726482976473963094e-02
2.739999999999999858e+01,1.092794369204524996e-01
2.744000000000000128e+01,1.196286274498444130e-01
2.748000000000000043e+01,1.326729252800962489e-01
2.751999999999999957e+01,1.591921002421837483e-01
2.755999999999999872e+01,1.419186032037509926e-01
2.760000000000000142e+01,1.128548826823579515e-01
2.764000000000000057e+01,8.446504808728137748e-02
2.767999999999999972e+01,6.752886924949727532e-02
2.771999999999999886e+01,4.520294691585708541e-02
2.776000000000000156e+01,3.904682421845879353e-02
2.780000000000000071e+01,4.771302602451633207e-02
2.783999999999999986e+01,3.717788938221776307e-02
2.787999999999999901e+01,5.291857943552600446e-02
2.792000000000000171e+01,2.838933501864197018e-01
2.796000000000000085e+01,1.562652901239879044e-01
2.800000000000000000e+01,2.238760405587087721e-01
2.803999999999999915e+01,1.550677102806100882e-01
2.807999999999999829e+01,1.922135244531873732e-01
2.812000000000000099e+01,4.730627469332465695e-02
2.816000000000000014e+01,1.004415054571757560e-01
2.819999999999999929e+01,2.570490183137761342e-01
2.823999999999999844e+01,2.072295046151720332e-01
2.828000000000000114e+01,1.042431326361832611e-02
2.832000000000000028e+01,2.197537972051609723e-01
2.835999999999999943e+01,2.332382282705202647e-01
2.839999999999999858e+01,1.034124481196588147e-01
2.844000000000000128e+01,1.559230543150508796e-01
2.848000000000000043e+01,7.770536578661760285e-02
2.851999999999999957e+01,1.537140617249826702e-01
2.855999999999999872e+01,1.406837856115040197e-01
2.860000000000000142e+01,9.396360524856774143e-02
2.864000000000000057e+01,1.236601440183072026e-01
2.867999999999999972e+01,8.042053488796564731e-02
2.871999999999999886e+01,1.864939033882124786e-01
2.876000000000000156e+01,7.166176337878010782e-02
2.880000000000000071e+01,1.576456220049148871e-01
2.883999999999999986e+01,1.513379143475524213e-01
2.887999999999999901e+01,5.926532553629598743e-02
2.892000000000000171e+01,9.280003824378416089e-02
2.896000000000000085e+01,1.540686134739746027e-01
2.900000000000000000e+01,2.455341696996719558e-01
2.903999999999999915e+01,7.198251079034938271e-02
2.907999999999999829e+01,1.164829034138867847e-01
2.912000000000000099e+01,1.111084134839134818e-01
2.916000000000000014e+01,-2.387525535708492908e-02
2.919999999999999929e+01,1.144129457620133294e-01
2.923999999999999844e+01,1.919160683048843352e-01
2.928000000000000114e+01,1.944482020484298579e-01
2.932000000000000028e+01,8.580407208293258647e-02
2.935999999999999943e+01,1.732931626565812344e-01
2.939999999999999858e+01,1.057165431304379344e-01
2.944000000000000128e+01,1.579461621808357086e-01
2.948000000000000043e+01,2.077691882473821361e-01
2.951999999999999957e+01,2.459417408398879845e-01
2.955999999999999872e+01,1.518657863595220259e-01
2.960000000000000142e+01,1.153942255148811824e-01
2.964000000000000057e+01,1.311371681852590843e-01
2.967999999999999972e+01,1.084771415879532269e-01
2.971999999999999886e+01,1.515063281917767846e-01
2.976000000000000156e+01,1.480477086117835128e-01
2.980000000000000071e+01,1.536844854617381573e-01
2.983999999999999986e+01,1.717853344280952099e-01
2.987999999999999901e+01,1.956128937275077306e-01
2.992000000000000171e+01,1.945121795647646312e-01
2.996000000000000085e+01,1.876846596623434060e-01
3.000000000000000000e+01,1.508758406225739201e-01
3.003999999999999915e+01,1.093508126498151795e-01
3.007999999999999829e+01,9.275394885200677342e-02
3.012000000000000099e+01,7.716762374713863337e-02
3.016000000000000014e+01,8.010896547938822776e-02
3.019999999999999929e+01,5.172151906092052609e-02
3.023999999999999844e+01,5.499958125002159942e-02
3.028000000000000114e+01,5.794069658883966439e-02
3.032000000000000028e+01,4.336459790856567187e-02
3.035999999999999943e+01,2.811467752205728046e-02
3.039999999999999858e+01,3.206613898311221761e-02
3.044000000000000128e+01,5.825079006252525948e-02
3.048000000000000043e+01,7.837172237470563241e-02
3.051999999999999957e+01,1.119672715577910427e-01
3.055999999999999872e+01,1.822813203221800848e-01
3.060000000000000142e+01,4.338302010158935906e-01
3.064000000000000057e+01,6.705567832546296403e-01
3.067999999999999972e+01,7.577138973042178982e-01
3.071999999999999886e+01,6.070421457915762264e-01
3.076000000000000156e+01,4.132511804980748549e-01
3.080000000000000071e+01,2.861599384587481532e-01
3.083999999999999986e+01,2.176835862276086664e-01
3.087999999999999901e+01,2.017584978526299200e-01
3.092000000000000171e+01,1.838120675267359561e-01
3.096000000000000085e+01,1.668761030207215057e-01
3.100000000000000000e+01,1.664465249848038342e-01
3.103999999999999915e+01,1.825233299488370764e-01
3.107999999999999829e+01,1.915257603464712022e-01
3.112000000000000099e+01,2.042335860086825772e-01
3.116000000000000014e+01,2.061614830919424601e-01
3.119999999999999929e+01,2.946642757518632694e-01
3.123999999999999844e+01,3.437533600614360862e-01
3.128000000000000114e+01,3.244580918037497375e-01
3.132000000000000028e+01,2.947197490021891131e-01
3.135999999999999943e+01,2.232096120302229092e-01
3.139999999999999858e+01,1.762906568027373388e-01
3.144000000000000128e+01,1.128649941390591355e-01
3.148000000000000043e+01,1.083910336768965643e-01
3.151999999999999957e+01,1.059380941995535230e-01
3.155999999999999872e+01,1.014637572489632267e-01
3.160000000000000142e+01,9.833669851158068076e-02
3.164000000000000057e+01,1.373179323121275497e-01
3.167999999999999972e+01,2.180705872647982213e-01
3.171999999999999886e+01,3.247618678634238143e-01
3.176000000000000156e+01,4.819831284810434102e-01
3.180000000000000071e+01,4.889610879141139677e-01
3.183999999999999986e+01,4.427137024025877832e-01
3.187999999999999901e+01,3.354930064161377734e-01
3.192000000000000171e+01,1.861635997615814220e-01
3.196000000000000085e+01,1.026205998673354325e-01
3.200000000000000000e+01,1.766788021790878238e-01
3.203999999999999915e+01,3.940421977789616836e-02
3.207999999999999829e+01,2.087765074859795345e-01
3.211999999999999744e+01,4.549459697504806832e-02
3.215999999999999659e+01,1.414810312987285212e-01
3.220000000000000284e+01,1.333262858366892345e-01
3.224000000000000199e+01,2.014147708972074402e-01
3.228000000000000114e+01,2.614853974485299437e-01
3.232000000000000028e+01,1.334317502395558075e-01
3.235999999999999943e+01,1.461648234023182891e-01
3.239999999999999858e+01,7.704517754230842674e-02
3.243999999999999773e+01,1.822121912629609541e-01
3.247999999999999687e+01,2.102427008276374076e-01
3.252000000000000313e+01,2.218093482088965562e-01
3.256000000000000227e+01,8.109702983233584017e-02
3.260000000000000142e+01,8.903695027866198597e-02
3.264000000000000057e+01,2.041963768734701146e-01
3.267999999999999972e+01,2.064342158100477553e-01
3.271999999999999886e+01,1.284051472695968421e-02
3.275999999999999801e+01,9.272387619069751008e-02
3.279999999999999716e+01,3.456085875373576810e-03
3.284000000000000341e+01,1.332265520527639024e-01
3.288000000000000256e+01,1.547850894446224090e-01
3.292000000000000171e+01,1.682202848082282598e-01
3.296000000000000085e+01,1.748869002016793794e-01
3.300000000000000000e+01,1.881762563308560510e-01
3.303999999999999915e+01,1.390849448849761361e-01
3.307999999999999829e+01,4.769136797193086752e-02
3.311999999999999744e+01,1.594533441540964824e-01
3.315999999999999659e+01,1.942580102035781353e-01
3.320000000000000284e+01,5.413050830960730586e-02
3.324000000000000199e+01,8.292993948532427495e-02
3.328000000000000114e+01,2.234050145376384466e-01
3.332000000000000028e+01,2.511855735696807979e-01
3.335999999999999943e+01,1.154890034172817437e-01
3.339999999999999858e+01,6.113494274615682844e-02
3.343999999999999773e+01,1.068558858377894327e-01
3.347999999999999687e+01,9.192118680804536868e-02
3.352000000000000313e+01,1.159961734215118334e-01
3.356000000000000227e+01,1.489435359298841299e-01
3.360000000000000142e+01,1.474867198633522669e-01
3.364000000000000057e+01,1.888117586587827745e-01
3.367999999999999972e+01,2.089137448706182565e-01
3.371999999999999886e+01,2.168881087515345807e-01
3.375999999999999801e+01,2.979624294933814754e-01
3.379999999999999716e+01,3.601717626508165182e-01
3.384000000000000341e+01,4.277705946812183635e-01
3.388000000000000256e+01,4.765044321869166821e-01
3.392000000000000171e+01,5.070470075290861578e-01
3.396000000000000085e+01,4.954806952257163055e-01
3.400000000000000000e+01,4.771766229509681323e-01
3.403999999999999915e+01,4.012677319700262424e-01
3.407999999999999829e+01,3.432124319205991925e-01
3.411999999999999744e+01,2.679764561038944226e-01
3.415999999999999659e+01,2.267637242300958034e-01
3.420000000000000284e+01,1.730864604679688834e-01
3.424000000000000199e+01,1.450107358169551164e-01
3.428000000000000114e+01,1.307461697588065963e-01
3.432000000000000028e+01,1.110912876307538211e-01
3.435999999999999943e+01,1.001945384203737910e-01
3.439999999999999858e+01,7.952818329621737237e-02
3.443999999999999773e+01,7.637851995660381588e-02
3.447999999999999687e+01,6.177490418462194127e-02
3.452000000000000313e+01,6.064555826897072982e-02
3.456000000000000227e+01,6.726372417328334297e-02
3.460000000000000142e+01,2.705679609048401713e-02
3.464000000000000057e+01,1.582005157394088257e-02
3.467999999999999972e+01,5.511303375575217489e-02
3.471999999999999886e+01,5.128645861227504321e-02
3.475999999999999801e+01,5.183869878143233800e-02
3.479999999999999716e+01,4.700058123893659234e-02
3.484000000000000341e+01,2.700293296050022135e-02
3.488000000000000256e+01,6.124054110195021466e-02
3.492000000000000171e+01,2.540914131457810282e-02
3.496000000000000085e+01,3.505442519963922199e-02
3.500000000000000000e+01,2.819269280553651086e-02
3.503999999999999915e+01,3.615265681851004276e-02
3.507999999999999829e+01,3.131114468428887465e-02
3.511999999999999744e+01,2.849034122177014280e-02
3.515999999999999659e+01,3.004831837042834172e-02
3.520000000000000284e+01,1.644673355183417715e-02
3.524000000000000199e+01,1.295067697034675037e-02
3.528000000000000114e+01,3.539293719184304077e-02
3.532000000000000028e+01,2.212668218038594398e-02
3.535999999999999943e+01,3.681994452558157160e-02
3.539999999999999858e+01,5.286015542013922097e-02
3.543999999999999773e+01,3.016002943036568198e-02
3.547999999999999687e+01,5.158907033849052109e-02
3.552000000000000313e+01,1.945557913295006824e-02
3.556000000000000227e+01,2.538762540313535890e-02
3.560000000000000142e+01,3.670901785987470967e-02
3.564000000000000057e+01,3.522888558737899412e-02
3.567999999999999972e+01,4.284363963340647591e-02
3.571999999999999886e+01,2.384527746784494140e-02
3.575999999999999801e+01,4.291243542728029325e-02
3.579999999999999716e+01,1.717560278919182462e-02
3.584000000000000341e+01,6.420167864879533504e-02
3.588000000000000256e+01,2.330466376609547155e-02
3.592000000000000171e+01,3.596907924817248359e-02
3.596000000000000085e+01,2.606277268570668729e-02
3.600000000000000000e+01,5.051641835510281564e-02
3.603999999999999915e+01,4.700944838910362661e-02
3.607999999999999829e+01,2.598476470302533980e-02
3.611999999999999744e+01,3.999375866969182708e-02
3.615999999999999659e+01,4.524359778314931968e-02
3.620000000000000284e+01,3.903933524797156135e-02
3.624000000000000199e+01,4.462485377455705643e-02
3.628000000000000114e+01,1.584924544733170085e-02
3.632000000000000028e+01,3.052899531362393559e-02
3.635999999999999943e+01,4.183945962653938533e-02
3.639999999999999858e+01,2.956855997632864066e-02
3.643999999999999773e+01,1.999199031433086804e-02
3.647999999999999687e+01,2.422638838718225648e-02
3.652000000000000313e+01,1.026929873703117009e-02
3.656000000000000227e+01,2.191354692953995098e-02
3.660000000000000142e+01,4.972682785608109612e-02
3.664000000000000057e+01,3.475725280599806927e-02
3.667999999999999972e+01,3.831477895927643679e-02
3.671999999999999886e+01,3.344996959296540201e-02
3.675999999999999801e+01,4.239610367048337464e-02
3.679999999999999716e+01,2.001287702323619258e-02
3.684000000000000341e+01,1.447239812046710941e-02
3.688000000000000256e+01,1.667922976920865191e-02
3.692000000000000171e+01,1.282178395725255306e-02
3.696000000000000085e+01,1.570103800953541462e-02
3.700000000000000000e+01,4.283412007023472412e-02
3.703999999999999915e+01,3.594287726001391126e-02
3.707999999999999829e+01,5.027364427697750965e-02
3.711999999999999744e+01,3.529623030197049510e-02
3.715999999999999659e+01,4.693070586441738107e-02
3.720000000000000284e+01,8.046091667493152078e-02
3.724000000000000199e+01,1.456560288175089424e-01
3.728000000000000114e+01,1.963651343765755453e-01
3.732000000000000028e+01,2.167554378459625453e-01
3.735999999999999943e+01,1.613497671414158563e-01
3.739999999999999858e+01,1.419882667919302455e-01
3.743999999999999773e+01,1.165624438698524140e-01
3.747999999999999687e+01,8.945157780861726082e-02
3.752000000000000313e+01,4.684408059601659347e-02
3.756000000000000227e+01,4.836556983373557078e-02
3.760000000000000142e+01,6.706660879882352100e-02
3.764000000000000057e+01,6.184930831060710815e-02
3.767999999999999972e+01,4.551464569402285248e-02
3.771999999999999886e+01,7.263521981585531473e-02
3.775999999999999801e+01,6.977382159206509116e-02
3.779999999999999716e+01,8.948184239547590790e-02
3.784000000000000341e+01,8.291343098523339117e-02
3.788000000000000256e+01,1.147472236979235338e-01
3.792000000000000171e+01,1.526438971600345695e-01
3.796000000000000085e+01,1.612323167571143578e-01
3.800000000000000000e+01,1.782416855729439809e-01
3.803999999999999915e+01,1.693114727400514830e-01
3.807999999999999829e+01,1.748658246674985040e-01
3.811999999999999744e+01,1.460588901144303509e-01
3.815999999999999659e+01,1.105138346948263406e-01
3.820000000000000284e+01,6.755691910722061433e-02
3.824000000000000199e+01,8.523545884479984125e-02
3.828000000000000114e+01,6.821583030562089478e-02
3.832000000000000028e+01,3.401516163386118785e-02
3.835999999999999943e+01,5.236510790100773471e-02
3.839999999999999858e+01,5.218653543264183819e-02
3.843999999999999773e+01,2.606834661409628343e-02
3.847999999999999687e+01,3.767857403497713170e-02
3.852000000000000313e+01,2.435978191236711984e-02
3.856000000000000227e+01,4.944313492021203821e-02
3.860000000000000142e+01,3.612274481787201841e-02
3.864000000000000057e+01,4.132928588175201201e-02
3.867999999999999972e+01,2.733354808777905751e-02
3.871999999999999886e+01,3.119099868841433004e-02
3.875999999999999801e+01,4.582740798465079896e-02
3.879999999999999716e+01,4.193526384391733225e-02
3.884000000000000341e+01,4.579026021755302350e-02
3.888000000000000256e+01,5.436058239447152940e-02
3.892000000000000171e+01,6.225634025396616089e-02
3.896000000000000085e+01,5.566594578382857983e-02
3.900000000000000000e+01,7.198173415217996862e-02
3.903999999999999915e+01,5.359928831100404384e-02
3.907999999999999829e+01,8.574618745215054072e-02
3.911999999999999744e+01,1.411361269370088600e-01
3.915999999999999659e+01,1.695757838620840507e-01
3.920000000000000284e+01,3.142340189127564853e-01
3.924000000000000199e+01,5.100953208964887908e-01
3.928000000000000114e+01,6.662053491149182438e-01
3.932000000000000028e+01,5.959392748222247516e-01
3.935999999999999943e+01,5.411682579921872627e-01
3.939999999999999858e+01,5.018922951546597178e-01
3.943999999999999773e+01,5.208936081283246367e-01
3.947999999999999687e+01,5.840237409853135109e-01
3.952000000000000313e+01,5.218381286784692374e-01
3.956000000000000227e+01,4.397764253392456579e-01
3.960000000000000142e+01,3.614193815937013499e-01
3.964000000000000057e+01,2.557751457309648813e-01
3.967999999999999972e+01,1.679840149793387361e-01
3.971999999999999886e+01,1.260060228684623529e-01
3.975999999999999801e+01,9.480690269954356042e-02
3.979999999999999716e+01,1.023466880022217279e-01
3.984000000000000341e+01,1.152754516560049874e-01
3.988000000000000256e+01,1.302245110341469225e-01
3.992000000000000171e+01,2.074932195696530812e-01
3.996000000000000085e+01,4.097390061051489618e-01
4.000000000000000000e+01,6.705988877854568431e-01
4.003999999999999915e+01,6.932922274439162758e-01
4.007999999999999829e+01,5.563092459591758576e-01
4.011999999999999744e+01,4.941100091604932465e-01
4.015999999999999659e+01,3.271439145309094076e-01
4.020000000000000284e+01,2.167706902014482906e-01
4.024000000000000199e+01,1.252611261480374438e-01
4.028000000000000114e+01,9.000755753879778609e-02
4.032000000000000028e+01,1.123574525662238838e-01
4.035999999999999943e+01,9.529284805007222359e-02
4.039999999999999858e+01,1.152827573750310475e-01
4.043999999999999773e+01,1.197757822279849754e-01
4.047999999999999687e+01,1.646919931383584168e-01
4.052000000000000313e+01,2.476733112263853898e-01
4.056000000000000227e+01,4.381145236478926619e-01
4.060000000000000142e+01,7.528590227157380133e-01
4.064000000000000057e+01,9.611522827326328677e-01
4.067999999999999972e+01,1.000000000000000000e+00
4.071999999999999886e+01,8.454845490358293691e-01
4.075999999999999801e+01,7.340872031633383088e-01
4.079999999999999716e+01,5.684531312866240027e-01
4.084000000000000341e+01,3.913645552243677495e-01
4.088000000000000256e+01,3.402635810957295726e-01
4.092000000000000171e+01,3.107211515759442100e-01
4.096000000000000085e+01,2.279525859183323677e-01
4.100000000000000000e+01,1.923445195194466995e-01
4.103999999999999915e+01,1.621253273672938755e-01
4.107999999999999829e+01,1.356106664134276996e-01
4.111999999999999744e+01,9.562026948903928902e-02
4.115999999999999659e+01,7.954647176224977079e-02
4.120000000000000284e+01,5.707115735350783148e-02
4.124000000000000199e+01,5.581749187679298924e-02
4.128000000000000114e+01,5.119411401877475148e-02
4.132000000000000028e+01,3.073690742988509361e-02
4.135999999999999943e+01,3.150133936258518730e-02
4.139999999999999858e+01,4.203389721428715808e-02
4.143999999999999773e+01,4.144876674392138083e-02
4.147999999999999687e+01,3.850451028850373353e-02
4.152000000000000313e+01,3.825414311278942103e-02
4.156000000000000227e+01,3.530777509607161552e-02
4.160000000000000142e+01,2.831793110556453386e-02
4.164000000000000057e+01,2.638004139394392253e-02
4.167999999999999972e+01,5.610666782820897952e-02
4.171999999999999886e+01,6.258833668562382990e-02
4.175999999999999801e+01,3.639274285756105565e-02
4.179999999999999716e+01,3.108188146382475855e-02
4.184000000000000341e+01,5.271937151615023465e-02
4.188000000000000256e+01,7.671385170120728625e-02
4.192000000000000171e+01,1.047496581271505078e-01
4.196000000000000085e+01,1.482802964562761894e-01
4.200000000000000000e+01,2.110113102906993054e-01
4.203999999999999915e+01,2.245585092812815431e-01
4.207999999999999829e+01,2.573060768368696238e-01
4.211999999999999744e+01,2.536708034034076964e-01
4.215999999999999659e+01,1.853557805953048310e-01
4.220000000000000284e+01,1.514001721464733885e-01
4.224000000000000199e+01,1.093586172135999762e-01
4.228000000000000114e+01,1.040345451093269286e-01
4.232000000000000028e+01,5.727459593037419194e-02
4.235999999999999943e+01,4.521091514577001147e-02
4.239999999999999858e+01,3.584104729766282582e-02
4.243999999999999773e+01,4.904019593985037284e-02
4.247999999999999687e+01,5.718518851806207726e-02
4.252000000000000313e+01,6.297096488743253451e-02
4.256000000000000227e+01,5.056472954179309920e-02
4.260000000000000142e+01,2.939878064947976793e-02
4.264000000000000057e+01,3.113869881239270110e-02
4.267999999999999972e+01,3.456180187380203384e-02
4.271999999999999886e+01,3.461506762866126824e-02
4.275999999999999801e+01,4.376260548624698321e-02
4.279999999999999716e+01,3.067569582002752440e-02
4.284000000000000341e+01,2.701991923190313546e-02
4.288000000000000256e+01,4.020636639624936004e-02
4.292000000000000171e+01,3.115835562635320757e-02
4.296000000000000085e+01,2.615158087355378552e-02
4.300000000000000000e+01,4.135569861938840491e-02
4.303999999999999915e+01,1.276580141829946821e-02
4.307999999999999829e+01,2.998875136571779385e-02
4.311999999999999744e+01,2.362975436552479033e-02
4.315999999999999659e+01,2.535439101962055908e-02
4.320000000000000284e+01,4.055254450842041281e-02
4.324000000000000199e+01,1.700968443446890244e-02
4.328000000000000114e+01,3.725844666433549696e-02
4.332000000000000028e+01,2.786162211398100774e-02
4.335999999999999943e+01,3.160143260208748278e-02
4.339999999999999858e+01,4.140364842964788794e-02
4.343999999999999773e+01,3.234004036767186563e-02
4.347999999999999687e+01,9.463623680914735187e-03
4.352000000000000313e+01,3.138941222408139775e-02
4.356000000000000227e+01,2.063778192521187674e-02
4.360000000000000142e+01,3.245506748241059475e-02
4.364000000000000057e+01,2.810145512462475237e-02
4.367999999999999972e+01,2.442033716471162311e-02
4.371999999999999886e+01,2.949654010836702533e-02
4.375999999999999801e+01,1.638062723264010687e-02
4.379999999999999716e+01,9.053871034082263281e-04
4.384000000000000341e+01,3.259039985255459543e-02
4.388000000000000256e+01,2.351313602265745969e-02
4.392000000000000171e+01,4.677392984180428481e-02
4.396000000000000085e+01,2.489315723803528502e-02
4.400000000000000000e+01,2.120198288529630271e-02
4.403999999999999915e+01,2.828930916892017505e-02
4.407999999999999829e+01,2.931173683575814121e-02
4.411999999999999744e+01,1.921624368076347428e-02
4.415999999999999659e+01,2.495225948659543502e-02
4.420000000000000284e+01,2.597083792784436046e-02
4.424000000000000199e+01,4.147344672698815432e-02
4.428000000000000114e+01,4.686872457069658771e-02
4.432000000000000028e+01,4.047232841052359614e-02
4.435999999999999943e+01,2.700040559556421416e-02
4.439999999999999858e+01,3.474985757111791890e-02
4.443999999999999773e+01,5.159343590327679363e-02
4.447999999999999687e+01,4.350747764022882408e-02
4.452000000000000313e+01,4.788431795009512326e-02
4.456000000000000227e+01,7.920927373611258426e-02
4.460000000000000142e+01,7.954106003460481578e-02
4.464000000000000057e+01,9.233563449557412317e-02
4.467999999999999972e+01,1.647545018412834017e-01
4.471999999999999886e+01,2.829860740595243618e-01
4.475999999999999801e+01,4.342293668850688571e-01
4.479999999999999716e+01,4.773367201862053766e-01
4.484000000000000341e+01,4.517216766250150561e-01
4.488000000000000256e+01,3.796175151649165969e-01
4.492000000000000171e+01,3.287346833834365323e-01
4.496000000000000085e+01,2.397844246542582547e-01
4.500000000000000000e+01,1.595913757839846348e-01
4.503999999999999915e+01,1.083676082420736569e-01
4.507999999999999829e+01,7.533334525725760011e-02
4.511999999999999744e+01,5.341435713052928441e-02
4.515999999999999659e+01,6.518079074096734538e-02
4.520000000000000284e+01,5.201762529357507880e-02
4.524000000000000199e+01,8.433025169115981878e-02
4.528000000000000114e+01,5.903708427159671396e-02
4.532000000000000028e+01,7.652475843143859147e-02
4.535999999999999943e+01,1.148968561826356899e-01
4.539999999999999858e+01,1.088009984169901467e-01
4.543999999999999773e+01,9.226084114602255137e-02
4.547999999999999687e+01,1.060373986944546376e-01
4.552000000000000313e+01,7.467225448428685408e-02
4.556000000000000227e+01,7.362381815322716072e-02
4.560000000000000142e+01,5.808865344834179822e-02
4.564000000000000057e+01,4.053086977890703324e-02
4.567999999999999972e+01,2.869842573495881219e-02
4.571999999999999886e+01,4.684580777387567507e-02
4.575999999999999801e+01,3.399991969104078360e-02
4.579999999999999716e+01,4.540709618455850832e-02
4.584000000000000341e+01,2.918967477263359131e-02
4.588000000000000256e+01,2.812987727394806320e-02
4.592000000000000171e+01,2.706864401365344577e-02
4.596000000000000085e+01,4.453370688290740620e-02
4.600000000000000000e+01,3.740596920707632556e-02
4.603999999999999915e+01,3.398233243145957344e-02
4.607999999999999829e+01,5.481173594117518671e-02
4.611999999999999744e+01,2.915191397746452057e-02
4.615999999999999659e+01,3.852489865991663015e-02
4.620000000000000284e+01,6.541355490406280948e-02
4.624000000000000199e+01,5.625588064980718839e-02
4.628000000000000114e+01,4.440179607735031397e-02
4.632000000000000028e+01,3.928359935502825917e-02
4.635999999999999943e+01,4.595430574759597209e-02
4.639999999999999858e+01,5.329727056812585961e-02
4.643999999999999773e+01,6.501803741873271592e-02
4.647999999999999687e+01,6.157826372098731266e-02
4.652000000000000313e+01,1.073197178958157083e-01
4.656000000000000227e+01,1.658606615817855012e-01
4.660000000000000142e+01,2.284425255015892497e-01
4.664000000000000057e+01,2.623891183660552184e-01
4.667999999999999972e+01,2.821857570784203628e-01
4.671999999999999886e+01,2.662728915662950224e-01
4.675999999999999801e+01,2.493479136725197109e-01
4.679999999999999716e+01,2.085038016620645307e-01
4.684000000000000341e+01,1.824803623656909013e-01
4.688000000000000256e+01,1.328746499280059334e-01
4.692000000000000171e+01,9.337345244487019191e-02
4.696000000000000085e+01,8.519944513272170727e-02
4.700000000000000000e+01,6.961281422050770440e-02
4.703999999999999915e+01,5.200344288864340581e-02
4.707999999999999829e+01,3.675061057056384223e-02
4.711999999999999744e+01,4.945627538628805109e-02
4.715999999999999659e+01,5.306496314306325540e-02
4.720000000000000284e+01,5.498776451526541514e-02
4.724000000000000199e+01,3.063331818956400304e-02
4.728000000000000114e+01,3.120554387614280292e-02
4.732000000000000028e+01,2.773379735809070046e-02
4.735999999999999943e+01,5.794728171918887838e-02
4.739999999999999858e+01,6.087290075482046370e-02
4.743999999999999773e+01,4.055306598276036539e-02
4.747999999999999687e+01,4.852856502885231210e-02
4.752000000000000313e+01,7.671456444710914035e-02
4.756000000000000227e+01,6.009555304499307471e-02
4.760000000000000142e+01,5.492846926758881976e-02
4.764000000000000057e+01,5.009666842796846320e-02
4.767999999999999972e+01,5.166376953786748494e-02
4.771999999999999886e+01,4.413384500677721561e-02
4.775999999999999801e+01,4.670836255717544794e-02
4.779999999999999716e+01,4.288079085157345954e-02
4.784000000000000341e+01,5.286320135942919329e-02
4.788000000000000256e+01,3.421023323742899969e-02
4.792000000000000171e+01,5.227425865347931633e-02
4.796000000000000085e+01,3.833421934278165299e-02
4.800000000000000000e+01,3.921475211193897747e-02
4.803999999999999915e+01,3.672498604516209741e-02
4.807999999999999829e+01,3.625480432286621452e-02
4.811999999999999744e+01,4.386782595678688501e-02
4.815999999999999659e+01,5.316355707923701990e-02
4.820000000000000284e+01,5.470969258158926707e-02
4.824000000000000199e+01,3.705271986125566880e-02
4.828000000000000114e+01,3.960618158031777025e-02
4.832000000000000028e+01,1.958784897980196671e-02
4.835999999999999943e+01,3.258092467347267762e-02
4.839999999999999858e+01,4.658295320347836943e-02
4.843999999999999773e+01,4.205559199138968196e-02
4.847999999999999687e+01,4.089525208496478520e-02
4.852000000000000313e+01,3.737517544783706264e-02
4.856000000000000227e+01,3.317969818816094568e-02
4.860000000000000142e+01,5.290017467897523834e-02
4.864000000000000057e+01,5.442811199262653776e-02
4.867999999999999972e+01,5.191195911669155283e-02
4.871999999999999886e+01,4.063556176178373391e-02
4.875999999999999801e+01,4.788521762622244965e-02
4.879999999999999716e+01,5.951247078213920544e-02
4.884000000000000341e+01,5.159969574752397425e-02
4.888000000000000256e+01,5.783368061823712658e-02
4.892000000000000171e+01,7.754068609281281055e-02
4.896000000000000085e+01,9.522478458074247476e-02
4.900000000000000000e+01,1.556894053946685785e-01
4.903999999999999915e+01,2.164891876912775903e-01
4.907999999999999829e+01,2.173247710972726621e-01
4.911999999999999744e+01,1.699865291906101639e-01
4.915999999999999659e+01,1.553227582595593514e-01
4.920000000000000284e+01,1.312249653764666069e-01
4.924000000000000199e+01,1.071254487096679614e-01
4.928000000000000114e+01,6.887575233129515639e-02
4.932000000000000028e+01,5.521568307210941717e-02
4.935999999999999943e+01,4.829123793198182579e-02
4.939999999999999858e+01,4.843928135642665278e-02
4.943999999999999773e+01,2.769977287551305539e-02
4.947999999999999687e+01,3.087614180188347907e-02
4.952000000000000313e+01,5.965272424369252174e-02
4.956000000000000227e+01,3.722363196030032545e-02
4.960000000000000142e+01,4.308968957733566585e-02
4.964000000000000057e+01,3.750047957676564542e-02
4.967999999999999972e+01,4.437362050030878996e-02
4.971999999999999886e+01,4.922378850443676762e-02
4.975999999999999801e+01,5.104037637202360478e-02
4.979999999999999716e+01,6.430870100630622921e-02
4.984000000000000341e+01,4.119351491341009808e-02
4.988000000000000256e+01,5.243707691180247293e-02
4.992000000000000171e+01,3.369761164026580796e-02
4.996000000000000085e+01,4.796941585708592443e-02
5.000000000000000000e+01,4.708037415272819243e-02
5.003999999999999915e+01,5.225316174363081601e-02
5.007999999999999829e+01,5.742415267776688342e-02
5.011999999999999744e+01,2.958028775030464505e-02
5.015999999999999659e+01,4.620118409291259359e-02
5.020000000000000284e+01,3.283902887457117170e-02
5.024000000000000199e+01,5.417245843186669491e-02
5.028000000000000114e+01,4.451222574094126222e-02
5.032000000000000028e+01,4.192440180123611915e-02
5.035999999999999943e+01,4.573524731128544851e-02
5.039999999999999858e+01,5.459728713830314800e-02
5.043999999999999773e+01,3.953987706537828023e-02
5.047999999999999687e+01,4.907199347741399154e-02
5.052000000000000313e+01,6.399216171164089084e-02
5.056000000000000227e+01,5.600347338246818713e-02
5.060000000000000142e+01,6.418260323631719277e-02
5.064000000000000057e+01,6.865434077909862709e-02
5.067999999999999972e+01,8.424087082970936613e-02
5.071999999999999886e+01,7.253924753275665938e-02
5.075999999999999801e+01,7.902663603220312638e-02
5.079999999999999716e+01,7.776420335207821777e-02
5.084000000000000341e+01,6.706760644393588988e-02
5.088000000000000256e+01,7.253880342779513157e-02
5.092000000000000171e+01,6.520715008674486668e-02
5.096000000000000085e+01,7.235894411910434587e-02
5.100000000000000000e+01,6.333920172966220341e-02
5.103999999999999915e+01,7.486652225521939208e-02
5.107999999999999829e+01,6.146373361152190212e-02
5.111999999999999744e+01,7.669283091837378330e-02
5.115999999999999659e+01,6.699181211567949157e-02
5.120000000000000284e+01,7.177421986552044719e-02
5.124000000000000199e+01,7.385978699908773981e-02
5.128000000000000114e+01,6.583741590171440783e-02
5.132000000000000028e+01,7.566714010303966786e-02
5.135999999999999943e+01,5.854552335012966346e-02
5.139999999999999858e+01,9.127844694333270281e-02
5.143999999999999773e+01,9.672315472634886169e-02
5.147999999999999687e+01,1.274310380720021230e-01
5.152000000000000313e+01,1.180497178720946311e-01
5.156000000000000227e+01,1.386477171137735775e-01
5.160000000000000142e+01,1.622755990740883669e-01
5.164000000000000057e+01,1.916283036081734836e-01
5.167999999999999972e+01,2.031250731496791195e-01
5.171999999999999886e+01,2.584127327942506436e-01
5.175999999999999801e+01,2.800116584699282596e-01
5.179999999999999716e+01,3.171045623929352186e-01
5.184000000000000341e+01,3.376889891054197790e-01
5.188000000000000256e+01,3.215528601976325174e-01
5.192000000000000171e+01,3.006986241871336674e-01
5.196000000000000085e+01,2.865797867362195328e-01
5.200000000000000000e+01,2.377615907485566837e-01
5.203999999999999915e+01,2.078060313439493434e-01
5.207999999999999829e+01,1.812171809318888216e-01
5.211999999999999744e+01,1.394673006809260818e-01
5.215999999999999659e+01,1.300547632289839606e-01
5.220000000000000284e+01,9.807009485332672527e-02
5.224000000000000199e+01,9.336974360149780106e-02
5.228000000000000114e+01,1.007946497986486750e-01
5.232000000000000028e+01,9.070043339654798586e-02
5.235999999999999943e+01,6.948758132259133524e-02
5.239999999999999858e+01,7.623276832320008412e-02
5.243999999999999773e+01,8.567089725372387110e-02
5.247999999999999687e+01,1.143084925113600075e-01
5.252000000000000313e+01,1.207107969997751190e-01
5.256000000000000227e+01,1.247530142727670960e-01
5.260000000000000142e+01,9.476955678814431849e-02
5.264000000000000057e+01,1.018395512800342878e-01
5.267999999999999972e+01,8.330556196551947012e-02
5.271999999999999886e+01,9.003464063912371140e-02
5.275999999999999801e+01,7.082286065037178557e-02
5.279999999999999716e+01,5.127218011928266067e-02
5.284000000000000341e+01,7.820723585245908938e-02
5.288000000000000256e+01,6.134742298285886242e-02
5.292000000000000171e+01,5.492847246160616204e-02
5.296000000000000085e+01,6.164532414383569470e-02
5.300000000000000000e+01,3.736827760793362541e-02
5.303999999999999915e+01,6.597744038310977832e-02
5.307999999999999829e+01,4.203315139761874819e-02
5.311999999999999744e+01,3.560393363860788613e-02
5.315999999999999659e+01,3.793121782876978515e-02
5.320000000000000284e+01,5.844730213644042105e-02
5.324000000000000199e+01,4.123210909190370976e-02
5.328000000000000114e+01,6.410212374248834555e-02
5.332000000000000028e+01,5.833628782339584512e-02
5.335999999999999943e+01,4.650474821370460810e-02
5.339999999999999858e+01,4.444029347929185497e-02
5.343999999999999773e+01,6.022775012585339371e-02
5.347999999999999687e+01,4.064198400895347590e-02
5.352000000000000313e+01,4.766668813989791836e-02
5.356000000000000227e+01,2.875046420557136537e-02
5.360000000000000142e+01,3.476036400049727776e-02
5.364000000000000057e+01,4.615804494624635435e-02
5.367999999999999972e+01,5.586927734381157140e-02
5.371999999999999886e+01,4.199764320514320221e-02
5.375999999999999801e+01,5.439959057778470664e-02
5.379999999999999716e+01,4.523987196786133369e-02
5.384000000000000341e+01,3.877297383275203624e-02
5.388000000000000256e+01,3.365142103967066339e-02
5.392000000000000171e+01,4.705547381713462429e-02
5.396000000000000085e+01,2.845494134598908903e-02
5.400000000000000000e+01,4.353906370980015206e-02
5.403999999999999915e+01,3.335595219791129967e-02
5.407999999999999829e+01,4.439337570126537097e-02
5.411999999999999744e+01,4.026959585843003370e-02
5.415999999999999659e+01,6.646177781336767842e-02
5.420000000000000284e+01,4.380595791581810144e-02
5.424000000000000199e+01,3.866511208066792521e-02
5.428000000000000114e+01,5.878719889795253062e-02
5.432000000000000028e+01,3.780923551249418257e-02
5.435999999999999943e+01,4.243106575483935466e-02
5.439999999999999858e+01,6.288351660070043425e-02
5.443999999999999773e+01,4.392024641168154608e-02
5.447999999999999687e+01,5.224109901832928171e-02
5.452000000000000313e+01,6.830773184221432259e-02
5.456000000000000227e+01,7.595048146150780444e-02
5.460000000000000142e+01,7.483247649040405958e-02
5.464000000000000057e+01,9.257688254288232166e-02
5.467999999999999972e+01,7.023181090828606310e-02
5.471999999999999886e+01,9.336170869412528661e-02
5.475999999999999801e+01,1.154788000691657351e-01
5.479999999999999716e+01,9.279025252745344565e-02
5.484000000000000341e+01,9.940700404405641843e-02
5.488000000000000256e+01,9.018875045038063365e-02
5.492000000000000171e+01,9.680107234832611984e-02
5.496000000000000085e+01,8.286223137646044068e-02
5.500000000000000000e+01,8.340648729328430100e-02
5.503999999999999915e+01,6.710512047226623034e-02
5.507999999999999829e+01,6.932925858756690263e-02
5.511999999999999744e+01,6.784561573547659430e-02
5.515999999999999659e+01,5.456935847000803086e-02
5.520000000000000284e+01,5.139689783891949332e-02
5.524000000000000199e+01,4.047423084208192495e-02
5.528000000000000114e+01,5.144573058743505400e-02
5.532000000000000028e+01,5.837256409900835885e-02
5.535999999999999943e+01,4.036891713573222823e-02
5.539999999999999858e+01,5.268112439571111943e-02
5.543999999999999773e+01,5.151635337299129147e-02
5.547999999999999687e+01,6.213969427193154205e-02
5.552000000000000313e+01,5.760171036958117857e-02
5.556000000000000227e+01,4.194481318371529738e-02
5.560000000000000142e+01,3.335986668983135367e-02
5.564000000000000057e+01,4.228977280324560523e-02
5.567999999999999972e+01,3.538460440346627434e-02
5.571999999999999886e+01,4.127813085145266847e-02
5.575999999999999801e+01,2.123053837615202985e-02
5.579999999999999716e+01,3.924672748283038887e-02
5.584000000000000341e+01,4.951265817157363830e-02
5.588000000000000256e+01,3.248998786395229654e-02
5.592000000000000171e+01,3.432961753524920584e-02
5.596000000000000085e+01,3.279826128175446914e-02
5.600000000000000000e+01,9.888022709663274457e-02
5.603999999999999915e+01,5.376492178388091181e-02
5.607999999999999829e+01,5.176853064419551648e-02
5.611999999999999744e+01,1.172921164982966280e-01
5.615999999999999659e+01,7.213503334048246285e-02
5.620000000000000284e+01,1.048120547453089690e-01
5.624000000000000199e+01,5.502783049277767957e-02
5.628000000000000114e+01,9.946935373220414101e-02
5.632000000000000028e+01,6.211700852126632311e-02
5.635999999999999943e+01,6.912858181802500335e-02
5.639999999999999858e+01,6.240102791542648242e-02
5.643999999999999773e+01,9.431034122040689305e-02
5.647999999999999687e+01,6.824360431128873028e-02
5.652000000000000313e+01,6.894660218117402983e-02
5.656000000000000227e+01,9.642944009574305753e-02
5.660000000000000142e+01,1.111275196091247863e-01
5.664000000000000057e+01,9.241350928862931968e-02
5.667999999999999972e+01,8.964760166902512040e-02
5.671999999999999886e+01,9.817491615934233196e-02
5.675999999999999801e+01,1.127692311638853612e-01
5.679999999999999716e+01,8.127557356168725600e-02
5.684000000000000341e+01,6.928479122706580895e-02
5.688000000000000256e+01,1.156507919616055896e-01
5.692000000000000171e+01,1.086128532745415376e-01
5.696000000000000085e+01,6.540117224355737613e-02
5.700000000000000000e+01,9.872408864235997228e-02
5.703999999999999915e+01,9.205511160447141239e-02
5.707999999999999829e+01,8.418987324091192770e-02
5.711999999999999744e+01,6.641618865481728473e-02
5.715999999999999659e+01,6.216809620185728691e-02
5.720000000000000284e+01,7.635708282275825709e-02
5.724000000000000199e+01,8.417296428575268830e-02
5.728000000000000114e+01,1.123299032262423391e-01
5.732000000000000028e+01,6.236380297203357459e-02
5.735999999999999943e+01,1.020929122331963312e-01
5.739999999999999858e+01,8.885647791129315520e-02
5.743999999999999773e+01,9.876787587349752928e-02
5.747999999999999687e+01,1.186008101345981530e-01
5.752000000000000313e+01,7.806632745031059917e-02
5.756000000000000227e+01,8.762373311300748757e-02
5.760000000000000142e+01,1.347333206591264931e-01
5.764000000000000057e+01,1.101949283351186804e-01
5.767999999999999972e+01,9.677072124343488735e-02
5.771999999999999886e+01,1.028823938054308634e-01
5.775999999999999801e+01,8.877952850307367638e-02
5.779999999999999716e+01,9.791808298636556218e-02
5.784000000000000341e+01,9.155824348425353754e-02
5.788000000000000256e+01,7.138434610489226284e-02
5.792000000000000171e+01,8.826344264280538976e-02
5.796000000000000085e+01,8.122243689337579897e-02
5.800000000000000000e+01,6.811532491644117782e-02
5.803999999999999915e+01,6.073248028995781311e-02
5.807999999999999829e+01,6.581125785698142827e-02
5.811999999999999744e+01,6.212897546078219313e-02
5.815999999999999659e+01,4.968562963121438136e-02
5.820000000000000284e+01,6.250487637979852684e-02
5.824000000000000199e+01,4.769844947775919025e-02
5.828000000000000114e+01,3.457385411737597114e-02
5.832000000000000028e+01,5.580727464752913147e-02
5.835999999999999943e+01,4.133018114078003402e-02
5.839999999999999858e+01,5.346313452409443695e-02
5.843999999999999773e+01,4.268654772529750785e-02
5.847999999999999687e+01,3.628671844270845576e-02
5.852000000000000313e+01,3.931666194108247164e-02
5.856000000000000227e+01,5.548192182253454396e-02
5.860000000000000142e+01,3.492604309922978101e-02
5.864000000000000057e+01,5.714985039679690293e-02
5.867999999999999972e+01,5.814843626967849954e-02
5.871999999999999886e+01,6.352375883789362909e-02
5.875999999999999801e+01,7.799196545053725671e-02
5.879999999999999716e+01,7.763543062559927210e-02
5.884000000000000341e+01,1.200585644708046101e-01
5.888000000000000256e+01,1.554049119983182958e-01
5.892000000000000171e+01,1.587462439791499924e-01
5.896000000000000085e+01,1.172815761480715535e-01
5.900000000000000000e+01,1.283657326606952587e-01
5.903999999999999915e+01,1.151928252763811666e-01
5.907999999999999829e+01,9.595371797062690611e-02
5.911999999999999744e+01,8.816553888760994551e-02
5.915999999999999659e+01,6.454198338871949825e-02
5.920000000000000284e+01,4.057897212417260063e-02
5.924000000000000199e+01,4.255219904530856828e-02
5.928000000000000114e+01,5.193392532067803852e-02
5.932000000000000028e+01,4.009037464903003611e-02
5.935999999999999943e+01,2.959169390944300926e-02
5.939999999999999858e+01,3.290199251119355073e-02
5.943999999999999773e+01,2.037689040605034432e-02
5.947999999999999687e+01,2.839811901515440148e-02
5.952000000000000313e+01,3.271118494083558731e-02
5.956000000000000227e+01,4.241151843576968644e-02
5.960000000000000142e+01,1.707496615060360989e-02
5.964000000000000057e+01,4.192910727718735658e-02
5.967999999999999972e+01,2.972514818941894219e-02
5.971999999999999886e+01,1.718168822409945826e-02
5.975999999999999801e+01,2.114211969408630321e-02
5.979999999999999716e+01,3.284787332207218108e-02
5.984000000000000341e+01,1.827528615624489372e-02
5.988000000000000256e+01,3.469190038866945547e-02
5.992000000000000171e+01,2.045088398340864574e-02
5.996000000000000085e+01,1.934506250612472167e-02
