2.003999999999999915e+01,4.047447757162695413e-03
2.007999999999999829e+01,7.776882926915077397e-03
2.012000000000000099e+01,4.485052667287980736e-03
2.016000000000000014e+01,4.742212860042954378e-03
2.019999999999999929e+01,5.732200539003187365e-03
2.023999999999999844e+01,7.262127901276555289e-03
2.028000000000000114e+01,6.863030164062404286e-03
2.032000000000000028e+01,6.039432865417408702e-03
2.035999999999999943e+01,5.292844569201261319e-03
2.039999999999999858e+01,5.664859902302855216e-03
2.044000000000000128e+01,7.927030460096417402e-03
2.048000000000000043e+01,6.408452657537010329e-03
2.051999999999999957e+01,6.239944170162774369e-03
2.055999999999999872e+01,3.602325057600171566e-03
2.060000000000000142e+01,4.475119665861775065e-03
2.064000000000000057e+01,7.315225034482577236e-03
2.067999999999999972e+01,5.140099996775446441e-03
2.071999999999999886e+01,5.665259815632317508e-03
2.076000000000000156e+01,2.679714842979071671e-03
2.080000000000000071e+01,2.201567000758982914e-03
2.083999999999999986e+01,5.773919402959392169e-03
2.087999999999999901e+01,7.995911496049862288e-03
2.092000000000000171e+01,4.778320308142292028e-03
2.096000000000000085e+01,4.608212620741767435e-03
2.100000000000000000e+01,5.672442441868732338e-03
2.103999999999999915e+01,4.884803773832015021e-03
2.107999999999999829e+01,7.491847019961806776e-03
2.112000000000000099e+01,6.048100102403021656e-03
2.116000000000000014e+01,6.571664943098916301e-03
2.119999999999999929e+01,4.394654931201503502e-03
2.123999999999999844e+01,5.728059868307270458e-03
2.128000000000000114e+01,4.862398593440650334e-03
2.132000000000000028e+01,4.806722105953798937e-03
2.135999999999999943e+01,2.474824408155579681e-03
2.139999999999999858e+01,3.383298934890765358e-03
2.144000000000000128e+01,4.445939688468149124e-03
2.148000000000000043e+01,3.579557645393628435e-03
2.151999999999999957e+01,4.063246836534027337e-03
2.155999999999999872e+01,4.238171573632338457e-03
2.160000000000000142e+01,5.801745274398553871e-03
2.164000000000000057e+01,3.160219505649040136e-03
2.167999999999999972e+01,8.234065306717079299e-03
2.171999999999999886e+01,4.164882072668028672e-03
2.176000000000000156e+01,6.846631163692551425e-03
2.180000000000000071e+01,6.210565338651098839e-03
2.183999999999999986e+01,3.221124072571264225e-03
2.187999999999999901e+01,3.973564439257552816e-03
2.192000000000000171e+01,1.793965879467978707e-03
2.196000000000000085e+01,0.000000000000000000e+00
2.200000000000000000e+01,5.419897817340571002e-03
2.203999999999999915e+01,3.046982371226446447e-03
2.207999999999999829e+01,2.911423480388862159e-03
2.212000000000000099e+01,3.778738791808095888e-03
2.216000000000000014e+01,4.800221711770923799e-03
2.219999999999999929e+01,5.821562013315923628e-03
2.223999999999999844e+01,6.765604621342988928e-03
2.228000000000000114e+01,5.201962328982081239e-03
2.232000000000000028e+01,7.804555848997536682e-03
2.235999999999999943e+01,2.922957327093044389e-03
2.239999999999999858e+01,4.792292358441117145e-03
2.244000000000000128e+01,4.578296131683172975e-03
2.248000000000000043e+01,4.672778431280953486e-03
2.251999999999999957e+01,3.031127809670951592e-03
2.255999999999999872e+01,2.739550418066727389e-03
2.260000000000000142e+01,5.456882098247553894e-03
2.264000000000000057e+01,3.737650772358398505e-03
2.267999999999999972e+01,2.134010476977650939e-03
2.271999999999999886e+01,6.123977071019331975e-03
2.276000000000000156e+01,5.638803313343944065e-03
2.280000000000000071e+01,6.399117047820136262e-04
2.283999999999999986e+01,5.786781175743271020e-03
2.287999999999999901e+01,4.838252336183541426e-03
2.292000000000000171e+01,6.204236815746625756e-03
2.296000000000000085e+01,7.184304376047905352e-03
2.300000000000000000e+01,7.122636303027420762e-03
2.303999999999999915e+01,7.176559951366033585e-03
2.307999999999999829e+01,5.687239632806753362e-03
2.312000000000000099e+01,7.592605143234554092e-03
2.316000000000000014e+01,6.488778954921983234e-03
2.319999999999999929e+01,7.236535711892680758e-03
2.323999999999999844e+01,8.215617301820323654e-03
2.328000000000000114e+01,5.182490449094192923e-03
2.332000000000000028e+01,7.935859516861607302e-03
2.335999999999999943e+01,6.792753023289566788e-03
2.339999999999999858e+01,4.569334088076995766e-03
2.344000000000000128e+01,6.280687658970117264e-03
2.348000000000000043e+01,6.641685910230529441e-03
2.351999999999999957e+01,5.690906494550057940e-03
2.355999999999999872e+01,5.897314348251761484e-03
2.360000000000000142e+01,4.599056808881684527e-03
2.364000000000000057e+01,2.606263047744753619e-03
2.367999999999999972e+01,3.545225279083641986e-03
2.371999999999999886e+01,8.650426009440475433e-03
2.376000000000000156e+01,4.612601619500758011e-03
2.380000000000000071e+01,3.159335268944540344e-03
2.383999999999999986e+01,5.216488856868731379e-03
2.387999999999999901e+01,5.614667285326811925e-03
2.392000000000000171e+01,8.520248831590637728e-03
2.396000000000000085e+01,8.570950518060508477e-03
2.400000000000000000e+01,6.384013636388014348e-03
2.403999999999999915e+01,2.383791598571583480e-03
2.407999999999999829e+01,2.048300263525286956e-03
2.412000000000000099e+01,5.994780922900768728e-03
2.416000000000000014e+01,7.240692410010809120e-03
2.419999999999999929e+01,4.050043884737171244e-03
2.423999999999999844e+01,4.639859097070391306e-03
2.428000000000000114e+01,4.457984163954415054e-03
2.432000000000000028e+01,6.513470084741484166e-03
2.435999999999999943e+01,4.055241148328348963e-03
2.439999999999999858e+01,4.065838674924527295e-03
2.444000000000000128e+01,3.034703331601716712e-03
2.448000000000000043e+01,5.938342490175489707e-03
2.451999999999999957e+01,7.375895597115478958e-03
2.455999999999999872e+01,6.228613027193825348e-03
2.460000000000000142e+01,5.775588811277388053e-03
2.464000000000000057e+01,3.779323622149396034e-03
2.467999999999999972e+01,5.447790287209337140e-03
2.471999999999999886e+01,1.024090282018923909e-02
2.476000000000000156e+01,8.359957011464152002e-03
2.480000000000000071e+01,4.511417201335049532e-03
2.483999999999999986e+01,4.983428343259752903e-03
2.487999999999999901e+01,5.609612313488808628e-03
2.492000000000000171e+01,6.042771005407510977e-03
2.496000000000000085e+01,3.582474180631255167e-03
2.500000000000000000e+01,5.018375279716361451e-03
2.503999999999999915e+01,2.442071313639930519e-03
2.507999999999999829e+01,3.183301785987415269e-03
2.512000000000000099e+01,5.081722521403378261e-03
2.516000000000000014e+01,2.929360846010700074e-03
2.519999999999999929e+01,3.670180504088318280e-03
2.523999999999999844e+01,6.108276718547109990e-03
2.528000000000000114e+01,6.463047124944222913e-03
2.532000000000000028e+01,2.381259668270883662e-03
2.535999999999999943e+01,4.317437502495543797e-03
2.539999999999999858e+01,4.131712183011422047e-03
2.544000000000000128e+01,4.640246829517440628e-03
2.548000000000000043e+01,3.296921507351562204e-03
2.551999999999999957e+01,4.769622980884192717e-03
2.555999999999999872e+01,4.004688879960797109e-03
2.560000000000000142e+01,4.126902931725547410e-03
2.564000000000000057e+01,8.955445230074386004e-03
2.567999999999999972e+01,3.136440631368183751e-03
2.571999999999999886e+01,5.032815355359470527e-03
2.576000000000000156e+01,5.270218527660461456e-03
2.580000000000000071e+01,3.269986586072568847e-03
2.583999999999999986e+01,4.857333572885747658e-03
2.587999999999999901e+01,4.940019542014828340e-03
2.592000000000000171e+01,5.716966398268268600e-03
2.596000000000000085e+01,4.294856023608214016e-03
2.600000000000000000e+01,4.917221847167822270e-03
2.603999999999999915e+01,2.221780891347339710e-03
2.607999999999999829e+01,4.464134482067936595e-03
2.612000000000000099e+01,2.925750535762963473e-03
2.616000000000000014e+01,2.814601879831943321e-03
2.619999999999999929e+01,4.272413016932207776e-04
2.623999999999999844e+01,5.600950740424815583e-03
2.628000000000000114e+01,3.753406571000665951e-03
2.632000000000000028e+01,1.057021019086559375e-03
2.635999999999999943e+01,6.963300264454032849e-03
2.639999999999999858e+01,5.848326131949291816e-03
2.644000000000000128e+01,3.537312663862307062e-03
2.648000000000000043e+01,7.321421787847916945e-03
2.651999999999999957e+01,4.932984434719257620e-03
2.655999999999999872e+01,6.479325575068931031e-03
2.660000000000000142e+01,5.672300408961502595e-03
2.664000000000000057e+01,5.250916904234579144e-03
2.667999999999999972e+01,4.096425435660388734e-03
2.671999999999999886e+01,8.998479443795252483e-03
2.676000000000000156e+01,4.950401968375908214e-03
2.680000000000000071e+01,5.261456782239189514e-03
2.683999999999999986e+01,6.536817280248758549e-03
2.687999999999999901e+01,5.728855040644094572e-03
2.692000000000000171e+01,6.116664094292004715e-03
2.696000000000000085e+01,3.765331773026935665e-03
2.700000000000000000e+01,7.779166073244473539e-03
2.703999999999999915e+01,2.572826395721514430e-03
2.707999999999999829e+01,3.808808645064848657e-03
2.712000000000000099e+01,4.543149230517882359e-03
2.716000000000000014e+01,6.820459753166499724e-03
2.719999999999999929e+01,6.782982696706480602e-03
2.723999999999999844e+01,5.819510871402532558e-03
2.728000000000000114e+01,7.826379523011947614e-03
2.732000000000000028e+01,4.509409903205257794e-03
2.735999999999999943e+01,4.394246369418181898e-03
2.739999999999999858e+01,9.612786661314114047e-04
2.744000000000000128e+01,4.472142067660105948e-03
2.748000000000000043e+01,5.166709940309958601e-03
2.751999999999999957e+01,4.202309638761786946e-03
2.755999999999999872e+01,2.813423669557707247e-03
2.760000000000000142e+01,5.397895765553467617e-03
2.764000000000000057e+01,5.667581126813659061e-03
2.767999999999999972e+01,6.361487721175880169e-03
2.771999999999999886e+01,3.660435608266594722e-03
2.776000000000000156e+01,3.968302469335539991e-03
2.780000000000000071e+01,5.896295647640376406e-03
2.783999999999999986e+01,3.001960039523037319e-03
2.787999999999999901e+01,4.003827882072549284e-03
2.792000000000000171e+01,1.147806489988637902e-03
2.796000000000000085e+01,4.849841441309078391e-03
2.800000000000000000e+01,5.658426709784798031e-03
2.803999999999999915e+01,4.653734498235338919e-03
2.807999999999999829e+01,3.687488528093241930e-03
2.812000000000000099e+01,8.693876555176610968e-04
2.816000000000000014e+01,4.069257447123215791e-03
2.819999999999999929e+01,3.989902180383457335e-03
2.823999999999999844e+01,3.447484974997318350e-03
2.828000000000000114e+01,5.451056830317014927e-03
2.832000000000000028e+01,1.629283846151796450e-03
2.835999999999999943e+01,2.763449243534748211e-04
2.839999999999999858e+01,2.858188027048074939e-03
2.844000000000000128e+01,3.279556233953470623e-03
2.848000000000000043e+01,5.012431455589701733e-03
2.851999999999999957e+01,4.893452542404323237e-03
2.855999999999999872e+01,2.228223204406762879e-03
2.860000000000000142e+01,5.619542950894029255e-03
2.864000000000000057e+01,1.835303314412995357e-03
2.867999999999999972e+01,3.104595941742168547e-03
2.871999999999999886e+01,3.602206944113997208e-03
2.876000000000000156e+01,2.749472759329833153e-03
2.880000000000000071e+01,3.594021962672542137e-03
2.883999999999999986e+01,5.595768567874185272e-03
2.887999999999999901e+01,6.131437488411414609e-03
2.892000000000000171e+01,5.548226984421349844e-03
2.896000000000000085e+01,3.576094101150566369e-03
2.900000000000000000e+01,2.529693471199532043e-03
2.903999999999999915e+01,5.572386397643052519e-03
2.907999999999999829e+01,3.947063220983829980e-03
2.912000000000000099e+01,4.096179198402292998e-03
2.916000000000000014e+01,5.286760463977201868e-03
2.919999999999999929e+01,7.210186487024508768e-03
2.923999999999999844e+01,5.044260352973636494e-03
2.928000000000000114e+01,4.652773680045205716e-03
2.932000000000000028e+01,4.762666539288811993e-03
2.935999999999999943e+01,3.213594755349007039e-03
2.939999999999999858e+01,3.168919631300624699e-03
2.944000000000000128e+01,3.972822453083725038e-03
2.948000000000000043e+01,4.467976019539876900e-03
2.951999999999999957e+01,2.802656762758866209e-03
2.955999999999999872e+01,5.843673275158315153e-03
2.960000000000000142e+01,6.454174086328406251e-03
2.964000000000000057e+01,2.859590780220223893e-03
2.967999999999999972e+01,2.389662860419249166e-03
2.971999999999999886e+01,4.735769796241424273e-03
2.976000000000000156e+01,5.538645584284038713e-03
2.980000000000000071e+01,2.792256352914261521e-03
2.983999999999999986e+01,4.906513731775854689e-03
2.987999999999999901e+01,7.792194748980697458e-03
2.992000000000000171e+01,3.502318839575223070e-03
2.996000000000000085e+01,4.998951593020398154e-03
3.000000000000000000e+01,2.946319710859106149e-03
3.003999999999999915e+01,1.433646318501879176e-03
3.007999999999999829e+01,3.855758174607474241e-03
3.012000000000000099e+01,2.998648656904740264e-03
3.016000000000000014e+01,5.073307566990198705e-03
3.019999999999999929e+01,3.290081617829890368e-03
3.023999999999999844e+01,3.049831516476595675e-03
3.028000000000000114e+01,6.744367047392055801e-03
3.032000000000000028e+01,4.960759760257847477e-03
3.035999999999999943e+01,3.524223697363932598e-03
3.039999999999999858e+01,2.048983176164955768e-03
3.044000000000000128e+01,4.932881929516664231e-03
3.048000000000000043e+01,4.653292727702717374e-03
3.051999999999999957e+01,3.061939292155680357e-03
3.055999999999999872e+01,4.826708387245910552e-03
3.060000000000000142e+01,2.926481270355513458e-03
3.064000000000000057e+01,3.147894407843812147e-03
3.067999999999999972e+01,7.458404248935356778e-03
3.071999999999999886e+01,4.477625970848357270e-03
3.076000000000000156e+01,2.229695443920067660e-03
3.080000000000000071e+01,4.379482458323829056e-03
3.083999999999999986e+01,1.899834323047731779e-03
3.087999999999999901e+01,3.277817819596897005e-03
3.092000000000000171e+01,4.925718463181678712e-03
3.096000000000000085e+01,2.947201161567173256e-03
3.100000000000000000e+01,3.668988444141877553e-03
3.103999999999999915e+01,5.933753109747326622e-03
3.107999999999999829e+01,4.726410364159693185e-03
3.112000000000000099e+01,2.824545751147243718e-03
3.116000000000000014e+01,2.272770871795852868e-03
3.119999999999999929e+01,4.729921567884811870e-03
3.123999999999999844e+01,3.637810007964128924e-03
3.128000000000000114e+01,7.059149638301689088e-03
3.132000000000000028e+01,2.842004117502647340e-03
3.135999999999999943e+01,1.209431143951511913e-03
3.139999999999999858e+01,3.511645951982392960e-03
3.144000000000000128e+01,4.000589804688979220e-03
3.148000000000000043e+01,5.839624005146111692e-03
3.151999999999999957e+01,1.467543747706781011e-03
3.155999999999999872e+01,3.614949166248020672e-03
3.160000000000000142e+01,4.373437271746930498e-03
3.164000000000000057e+01,3.820163292826002713e-03
3.167999999999999972e+01,4.154049134293704565e-03
3.171999999999999886e+01,3.793414259754422559e-03
3.176000000000000156e+01,4.049896327611564491e-03
3.180000000000000071e+01,2.377375403203151570e-03
3.183999999999999986e+01,6.275752079617665218e-04
3.187999999999999901e+01,1.655236437517009201e-03
3.192000000000000171e+01,3.415747644305399192e-03
3.196000000000000085e+01,4.597471323445864386e-03
3.200000000000000000e+01,2.191356629108608730e-03
3.203999999999999915e+01,5.378866709550467369e-03
3.207999999999999829e+01,2.895349469781626980e-03
3.211999999999999744e+01,5.118172911909255399e-03
3.215999999999999659e+01,4.216089198771736171e-03
3.220000000000000284e+01,3.275304481582583423e-03
3.224000000000000199e+01,3.954654602121123949e-03
3.228000000000000114e+01,2.049183860707236814e-03
3.232000000000000028e+01,1.455227503098179128e-03
3.235999999999999943e+01,4.367946891757039244e-04
3.239999999999999858e+01,2.002936418292018510e-03
3.243999999999999773e+01,2.257317598212244935e-03
3.247999999999999687e+01,3.283127405952881821e-03
3.252000000000000313e+01,2.688556210574592417e-03
3.256000000000000227e+01,3.405499859568233197e-03
3.260000000000000142e+01,4.188735587100021990e-04
3.264000000000000057e+01,3.565959247077850856e-03
3.267999999999999972e+01,4.552578176342337267e-03
3.271999999999999886e+01,9.869207155641160616e-04
3.275999999999999801e+01,2.976311835335738228e-03
3.279999999999999716e+01,1.339288540922704308e-03
3.284000000000000341e+01,4.254297006384875901e-03
3.288000000000000256e+01,2.115520901750587903e-03
3.292000000000000171e+01,4.027268223415367450e-03
3.296000000000000085e+01,2.505489317593521861e-03
3.300000000000000000e+01,9.450109429438009832e-04
3.303999999999999915e+01,7.732034856615877449e-04
3.307999999999999829e+01,3.494592483803582623e-03
3.311999999999999744e+01,5.019954965481640899e-03
3.315999999999999659e+01,3.381834634993581817e-03
3.320000000000000284e+01,3.325273408571062517e-03
3.324000000000000199e+01,1.995530744106852224e-03
3.328000000000000114e+01,4.484846741208482410e-03
3.332000000000000028e+01,1.843223860725386751e-03
3.335999999999999943e+01,4.100831921388825574e-03
3.339999999999999858e+01,3.657888541621131390e-03
3.343999999999999773e+01,3.137668961467970485e-03
3.347999999999999687e+01,5.664956908073500580e-03
3.352000000000000313e+01,3.177039088692211986e-03
3.356000000000000227e+01,3.003655006909568444e-03
3.360000000000000142e+01,2.714417455855538865e-03
3.364000000000000057e+01,4.894024099645157000e-03
3.367999999999999972e+01,6.263381060933993251e-03
3.371999999999999886e+01,2.964730823417836142e-03
3.375999999999999801e+01,4.989665629897279200e-03
3.379999999999999716e+01,5.201334009962504078e-03
3.384000000000000341e+01,5.219994229462161447e-03
3.388000000000000256e+01,3.579698479792595492e-03
3.392000000000000171e+01,4.331092310433671752e-03
3.396000000000000085e+01,2.806289110537428175e-03
3.400000000000000000e+01,5.254856257631012467e-03
3.403999999999999915e+01,3.266882275593022827e-03
3.407999999999999829e+01,4.712192731038098575e-03
3.411999999999999744e+01,1.180876147844804299e-03
3.415999999999999659e+01,2.973145376258983993e-03
3.420000000000000284e+01,5.421113805432684930e-03
3.424000000000000199e+01,5.052799678368219416e-03
3.428000000000000114e+01,2.794064894162480352e-03
3.432000000000000028e+01,2.811287730087290958e-03
3.435999999999999943e+01,4.178606440568136300e-03
3.439999999999999858e+01,6.124469583753135681e-03
3.443999999999999773e+01,3.286594182042537182e-03
3.447999999999999687e+01,4.885020959623884163e-03
3.452000000000000313e+01,4.785915420284333338e-03
3.456000000000000227e+01,1.214709147975004660e-03
3.460000000000000142e+01,2.156960437102476043e-03
3.464000000000000057e+01,2.944782676818795408e-03
3.467999999999999972e+01,3.809641399469063192e-03
3.471999999999999886e+01,6.024596687526055303e-03
3.475999999999999801e+01,2.607107374302579383e-03
3.479999999999999716e+01,5.284756619478643558e-03
3.484000000000000341e+01,4.760348700527832107e-03
3.488000000000000256e+01,4.428710376108860834e-03
3.492000000000000171e+01,9.721701929466843028e-04
3.496000000000000085e+01,4.960984032801703074e-03
3.500000000000000000e+01,2.777267668914221686e-03
3.503999999999999915e+01,3.332441218026509829e-03
3.507999999999999829e+01,2.460126556389113581e-03
3.511999999999999744e+01,4.365279537204522740e-03
3.515999999999999659e+01,5.383030523821775472e-03
3.520000000000000284e+01,3.815966252053301037e-03
3.524000000000000199e+01,2.441672265667354635e-03
3.528000000000000114e+01,4.384932291808120441e-03
3.532000000000000028e+01,2.624627587857738219e-03
3.535999999999999943e+01,2.214420677493071990e-03
3.539999999999999858e+01,5.931897104482430731e-03
3.543999999999999773e+01,3.052490836865139837e-03
3.547999999999999687e+01,2.217578959868902674e-03
3.552000000000000313e+01,2.462722151988572424e-03
3.556000000000000227e+01,3.247834426956166826e-03
3.560000000000000142e+01,2.644037065000172902e-03
3.564000000000000057e+01,3.351760458027556056e-03
3.567999999999999972e+01,4.830918619770352244e-03
3.571999999999999886e+01,4.188193432190690131e-03
3.575999999999999801e+01,4.239748014987519686e-03
3.579999999999999716e+01,1.976531522330985009e-03
3.584000000000000341e+01,4.033887091054800741e-03
3.588000000000000256e+01,3.930782041570247964e-03
3.592000000000000171e+01,3.017431608211409728e-03
3.596000000000000085e+01,5.035860733012944256e-03
3.600000000000000000e+01,6.436932507115830475e-03
3.603999999999999915e+01,5.021725179233996889e-03
3.607999999999999829e+01,7.155538854686531100e-03
3.611999999999999744e+01,5.007125696311858290e-03
3.615999999999999659e+01,6.253423391071331709e-03
3.620000000000000284e+01,5.493571385434556711e-03
3.624000000000000199e+01,7.125413412257291385e-03
3.628000000000000114e+01,5.478045886494573892e-03
3.632000000000000028e+01,9.655776804541948283e-03
3.635999999999999943e+01,6.696540730460836741e-03
3.639999999999999858e+01,6.476197179259864274e-03
3.643999999999999773e+01,5.484186818010711520e-03
3.647999999999999687e+01,5.186457608839411398e-03
3.652000000000000313e+01,4.579992654310141402e-03
3.656000000000000227e+01,4.860696885034368996e-03
3.660000000000000142e+01,5.797104922189363040e-03
3.664000000000000057e+01,5.421760470072942671e-03
3.667999999999999972e+01,6.126473313146857738e-03
3.671999999999999886e+01,6.638183522460702930e-03
3.675999999999999801e+01,5.606676017202779673e-03
3.679999999999999716e+01,6.503932707893138668e-03
3.684000000000000341e+01,6.629523356147182071e-03
3.688000000000000256e+01,5.404784399766287932e-03
3.692000000000000171e+01,5.530146230657421655e-03
3.696000000000000085e+01,8.201513779432068052e-03
3.700000000000000000e+01,8.326647100005048902e-03
3.703999999999999915e+01,8.027312945323538187e-03
3.707999999999999829e+01,4.873124108517515665e-03
3.711999999999999744e+01,8.084121313774500842e-03
3.715999999999999659e+01,9.288970660903733342e-03
3.720000000000000284e+01,8.256206771082493304e-03
3.724000000000000199e+01,8.766432162276040913e-03
3.728000000000000114e+01,1.000951781670185968e-02
3.732000000000000028e+01,9.825119559004473133e-03
3.735999999999999943e+01,9.640607775379308325e-03
3.739999999999999858e+01,1.319800740786098055e-02
3.743999999999999773e+01,9.734174848558173332e-03
3.747999999999999687e+01,1.113100356087354942e-02
3.752000000000000313e+01,1.156327965603952748e-02
3.756000000000000227e+01,1.377001110189374211e-02
3.760000000000000142e+01,1.404775068585456532e-02
3.764000000000000057e+01,1.540554940727422058e-02
3.767999999999999972e+01,1.595310612231184283e-02
3.771999999999999886e+01,1.792792031170656677e-02
3.775999999999999801e+01,1.847525143335116554e-02
3.779999999999999716e+01,2.118281412555763840e-02
3.784000000000000341e+01,2.516332421868216346e-02
3.788000000000000256e+01,2.937518723935825249e-02
3.792000000000000171e+01,3.119512810106259484e-02
3.796000000000000085e+01,3.478952508106707142e-02
3.800000000000000000e+01,4.332173948244644884e-02
3.803999999999999915e+01,5.034931620154272508e-02
3.807999999999999829e+01,6.821707961292636235e-02
3.811999999999999744e+01,8.168688730075020221e-02
3.815999999999999659e+01,1.063440800177596901e-01
3.820000000000000284e+01,1.337787462878333999e-01
3.824000000000000199e+01,1.735967025944653852e-01
3.828000000000000114e+01,2.293856635759677076e-01
3.832000000000000028e+01,3.191999348446476481e-01
3.835999999999999943e+01,4.717798105456036950e-01
3.839999999999999858e+01,7.196461872651385150e-01
3.843999999999999773e+01,9.507697845773935841e-01
3.847999999999999687e+01,1.000000000000000000e+00
3.852000000000000313e+01,9.012465228527640759e-01
3.856000000000000227e+01,7.456681651365822949e-01
3.860000000000000142e+01,5.630853931226118547e-01
3.864000000000000057e+01,3.865206118842536287e-01
3.867999999999999972e+01,2.557087247068424718e-01
3.871999999999999886e+01,1.853092105207883034e-01
3.875999999999999801e+01,1.382875965094241821e-01
3.879999999999999716e+01,1.066197469559353739e-01
3.884000000000000341e+01,8.201148311199241148e-02
3.888000000000000256e+01,6.789620931218469380e-02
3.892000000000000171e+01,5.756142742133957269e-02
3.896000000000000085e+01,4.784377628990463260e-02
3.900000000000000000e+01,4.364260813783409076e-02
3.903999999999999915e+01,3.720383027982770291e-02
3.907999999999999829e+01,3.230804523385074484e-02
3.911999999999999744e+01,3.177141611960214440e-02
3.915999999999999659e+01,2.537088539221975594e-02
3.920000000000000284e+01,2.556701015406604577e-02
3.924000000000000199e+01,2.337121529005977902e-02
3.928000000000000114e+01,1.916927663626871031e-02
3.932000000000000028e+01,1.813058944416166829e-02
3.935999999999999943e+01,1.597304286219721620e-02
3.939999999999999858e+01,1.663154971206329616e-02
3.943999999999999773e+01,1.524533550325863837e-02
3.947999999999999687e+01,1.308746031825602785e-02
3.952000000000000313e+01,1.474865576956450701e-02
3.956000000000000227e+01,1.174185522920135651e-02
3.960000000000000142e+01,1.000800546724847293e-02
3.964000000000000057e+01,1.193891626816762259e-02
3.967999999999999972e+01,1.086066707271683175e-02
3.971999999999999886e+01,9.820886456178946206e-03
3.975999999999999801e+01,1.009263450102675097e-02
3.979999999999999716e+01,1.028711855051788436e-02
3.984000000000000341e+01,1.063580413699745202e-02
3.988000000000000256e+01,8.901191933248710220e-03
3.992000000000000171e+01,9.095349912820873545e-03
3.996000000000000085e+01,9.443709659665027248e-03
4.000000000000000000e+01,1.037062458577957258e-02
4.003999999999999915e+01,1.434505962748755352e-02
4.007999999999999829e+01,1.774072272406866310e-02
4.011999999999999744e+01,2.059619152821474605e-02
4.015999999999999659e+01,2.403021581867597484e-02
4.020000000000000284e+01,2.133029746027970477e-02
4.024000000000000199e+01,1.855311595089981919e-02
4.028000000000000114e+01,1.573724894322816106e-02
4.032000000000000028e+01,9.989378319226872513e-03
4.035999999999999943e+01,9.410795101094484791e-03
4.039999999999999858e+01,9.256457526121737375e-03
4.043999999999999773e+01,6.478737172548145948e-03
4.047999999999999687e+01,8.214485664305904225e-03
4.052000000000000313e+01,7.326851530985201665e-03
4.056000000000000227e+01,4.548808792029633390e-03
4.060000000000000142e+01,5.975614521243752773e-03
4.064000000000000057e+01,7.132269987432848270e-03
4.067999999999999972e+01,4.392483129876651078e-03
4.071999999999999886e+01,6.706251641248087494e-03
4.075999999999999801e+01,5.277888286119199190e-03
4.079999999999999716e+01,4.582391949207068743e-03
4.084000000000000341e+01,5.892822712984454279e-03
4.088000000000000256e+01,4.888492149979285425e-03
4.092000000000000171e+01,5.427157930018170276e-03
4.096000000000000085e+01,6.312915276012001121e-03
4.100000000000000000e+01,6.658480018316941321e-03
4.103999999999999915e+01,4.534973437161458377e-03
4.107999999999999829e+01,5.574721695182249803e-03
4.111999999999999744e+01,5.919967276075070728e-03
4.115999999999999659e+01,5.262089649155906289e-03
4.120000000000000284e+01,5.607122839579939400e-03
4.124000000000000199e+01,5.257653583159582408e-03
4.128000000000000114e+01,2.747734071291170390e-03
4.132000000000000028e+01,4.326931681501841077e-03
4.135999999999999943e+01,5.713135562250184173e-03
4.139999999999999858e+01,5.131777297487293173e-03
4.143999999999999773e+01,4.820356367952310581e-03
4.147999999999999687e+01,4.238786787377255005e-03
4.152000000000000313e+01,7.051938345935448473e-03
4.156000000000000227e+01,4.734166839713526732e-03
4.160000000000000142e+01,3.573617222169301038e-03
4.164000000000000057e+01,6.849383524169554670e-03
4.167999999999999972e+01,4.801339112019980919e-03
4.171999999999999886e+01,1.827327718576342861e-03
4.175999999999999801e+01,6.144373093829144823e-03
4.179999999999999716e+01,5.060452833354382035e-03
4.184000000000000341e+01,5.866728864806850137e-03
4.188000000000000256e+01,7.791649746334675802e-03
4.192000000000000171e+01,4.662803405794383425e-03
4.196000000000000085e+01,5.893118447026756898e-03
4.200000000000000000e+01,4.692941582997863480e-03
4.203999999999999915e+01,3.646970477822718271e-03
4.207999999999999829e+01,4.375463397349988424e-03
4.211999999999999744e+01,4.525188286570935685e-03
4.215999999999999659e+01,6.410799778086017503e-03
4.220000000000000284e+01,4.014196103474375159e-03
4.224000000000000199e+01,6.208219803547626939e-03
4.228000000000000114e+01,5.277355768936164808e-03
4.232000000000000028e+01,1.916000443152930319e-03
4.235999999999999943e+01,4.148289696535169269e-03
4.239999999999999858e+01,7.113449038581653484e-03
4.243999999999999773e+01,4.137557910050407468e-03
4.247999999999999687e+01,5.096475825950073577e-03
4.252000000000000313e+01,5.515204055085958477e-03
4.256000000000000227e+01,6.049561465040370102e-03
4.260000000000000142e+01,6.622392980713194197e-03
4.264000000000000057e+01,6.307836856529916263e-03
4.267999999999999972e+01,6.147487719379378206e-03
4.271999999999999886e+01,5.485526855201650065e-03
4.275999999999999801e+01,5.749324650192132007e-03
4.279999999999999716e+01,9.369268464743205765e-03
4.284000000000000341e+01,4.116266805598725251e-03
4.288000000000000256e+01,6.771565279354387068e-03
4.292000000000000171e+01,6.224822094743017765e-03
4.296000000000000085e+01,7.838320382886706031e-03
4.300000000000000000e+01,5.941156558740518651e-03
4.303999999999999915e+01,5.857036177495875129e-03
4.307999999999999829e+01,6.467209613925004388e-03
4.311999999999999744e+01,6.845815122453408411e-03
4.315999999999999659e+01,9.847593398710670354e-03
4.320000000000000284e+01,6.792589935060797807e-03
4.324000000000000199e+01,8.058172733610934751e-03
4.328000000000000114e+01,8.474946696414636590e-03
4.332000000000000028e+01,6.654119166729505208e-03
4.335999999999999943e+01,5.064655080878625350e-03
4.339999999999999858e+01,6.445562406699611654e-03
4.343999999999999773e+01,7.826367874293286078e-03
4.347999999999999687e+01,8.782718225183640953e-03
4.352000000000000313e+01,8.195863834142894794e-03
4.356000000000000227e+01,8.187571454118216380e-03
4.360000000000000142e+01,9.799435711998455423e-03
4.364000000000000057e+01,7.051932415293392896e-03
4.367999999999999972e+01,1.228988593857353699e-02
4.371999999999999886e+01,1.046804174564500145e-02
4.375999999999999801e+01,8.067432669618833721e-03
4.379999999999999716e+01,1.237922063814984527e-02
4.384000000000000341e+01,1.294888265079198811e-02
4.388000000000000256e+01,1.405852971260902577e-02
4.392000000000000171e+01,1.431936916685863127e-02
4.396000000000000085e+01,1.469584048856830902e-02
4.400000000000000000e+01,1.684677951951739708e-02
4.403999999999999915e+01,2.015494512157659998e-02
4.407999999999999829e+01,1.914232158935422895e-02
4.411999999999999744e+01,2.356903571006696910e-02
4.415999999999999659e+01,2.652970146888892350e-02
4.420000000000000284e+01,2.891160318898629636e-02
4.424000000000000199e+01,3.395525732529524471e-02
4.428000000000000114e+01,3.649126877986930834e-02
4.432000000000000028e+01,4.373364432850199157e-02
4.435999999999999943e+01,5.321341918839259111e-02
4.439999999999999858e+01,5.844956067995243226e-02
4.443999999999999773e+01,7.012805741273389626e-02
4.447999999999999687e+01,7.999330821433817129e-02
4.452000000000000313e+01,9.988862897223728388e-02
4.456000000000000227e+01,1.273064773276998407e-01
4.460000000000000142e+01,1.670304727728882388e-01
4.464000000000000057e+01,2.106892814076116172e-01
4.467999999999999972e+01,2.642238500019519210e-01
4.471999999999999886e+01,2.841958281347539139e-01
4.475999999999999801e+01,2.758131886334169169e-01
4.479999999999999716e+01,2.530795916375297439e-01
4.484000000000000341e+01,2.252922330231411085e-01
4.488000000000000256e+01,1.779845218930169448e-01
4.492000000000000171e+01,1.454519233262699107e-01
4.496000000000000085e+01,1.092543561048085338e-01
4.500000000000000000e+01,8.918211675781961834e-02
4.503999999999999915e+01,6.818391680071513028e-02
4.507999999999999829e+01,5.725436545049277653e-02
4.511999999999999744e+01,4.590036213077576532e-02
4.515999999999999659e+01,3.635940632230325736e-02
4.520000000000000284e+01,3.503537570632499903e-02
4.524000000000000199e+01,2.950629090993157552e-02
4.528000000000000114e+01,2.594456415878881178e-02
4.532000000000000028e+01,2.041528278473119309e-02
4.535999999999999943e+01,1.974667780424567767e-02
4.539999999999999858e+01,1.819069048042598613e-02
4.543999999999999773e+01,1.570874331410264391e-02
4.547999999999999687e+01,1.168359516714640757e-02
4.552000000000000313e+01,1.132321886695672811e-02
4.556000000000000227e+01,1.111705508060529743e-02
4.560000000000000142e+01,1.214527601091160321e-02
4.564000000000000057e+01,1.159171869169908775e-02
4.567999999999999972e+01,1.042082259799529363e-02
4.571999999999999886e+01,1.098581993833130238e-02
4.575999999999999801e+01,8.657401677789808986e-03
4.579999999999999716e+01,9.530824890175359013e-03
4.584000000000000341e+01,7.549410231136428027e-03
4.588000000000000256e+01,7.342466889112720697e-03
4.592000000000000171e+01,7.019693720263357230e-03
4.596000000000000085e+01,7.584107775546525959e-03
4.600000000000000000e+01,5.216529114588678087e-03
4.603999999999999915e+01,5.317818444442550668e-03
4.607999999999999829e+01,5.303278254515528256e-03
4.611999999999999744e+01,5.057175893776823944e-03
4.615999999999999659e+01,6.469812659589679882e-03
4.620000000000000284e+01,5.606275883788564007e-03
4.624000000000000199e+01,3.971091104430171485e-03
4.628000000000000114e+01,7.119429332289890951e-03
4.632000000000000028e+01,5.059698478089483427e-03
4.635999999999999943e+01,6.394698051126004347e-03
4.639999999999999858e+01,6.495119016482156504e-03
4.643999999999999773e+01,6.556866304769392619e-03
4.647999999999999687e+01,8.778861820796199020e-03
4.652000000000000313e+01,4.365418329134618247e-03
4.656000000000000227e+01,7.050152937858688781e-03
4.660000000000000142e+01,9.310438417252075646e-03
4.664000000000000057e+01,5.128172998893894968e-03
4.667999999999999972e+01,7.889775607482333447e-03
4.671999999999999886e+01,7.372188698155223742e-03
4.675999999999999801e+01,6.854506301779357373e-03
4.679999999999999716e+01,6.298150919185270188e-03
4.684000000000000341e+01,8.442130518210589837e-03
4.688000000000000256e+01,5.493774837624370785e-03
4.692000000000000171e+01,3.741228830884434260e-03
4.696000000000000085e+01,5.807767738036425514e-03
4.700000000000000000e+01,2.936281899583060608e-03
4.703999999999999915e+01,5.928492652868675404e-03
4.707999999999999829e+01,3.211127295458230616e-03
4.711999999999999744e+01,4.505735038637740004e-03
4.715999999999999659e+01,2.173955924898878390e-03
4.720000000000000284e+01,6.014494317388986190e-03
4.724000000000000199e+01,3.065284780169461303e-03
4.728000000000000114e+01,4.398091682099222396e-03
4.732000000000000028e+01,4.187701134410692916e-03
4.735999999999999943e+01,2.086915030489151952e-03
4.739999999999999858e+01,4.190990444139169359e-03
4.743999999999999773e+01,2.822989841921739063e-03
4.747999999999999687e+01,5.081187271838411186e-03
4.752000000000000313e+01,3.442955504172826899e-03
4.756000000000000227e+01,3.502043125631012360e-03
4.760000000000000142e+01,2.866640505273608704e-03
4.764000000000000057e+01,4.391488338730198220e-03
4.767999999999999972e+01,3.370122439222170488e-03
4.771999999999999886e+01,4.663317450773139458e-03
4.775999999999999801e+01,4.027540097772316745e-03
4.779999999999999716e+01,2.080031671871390101e-03
4.784000000000000341e+01,3.990187424539170385e-03
4.788000000000000256e+01,4.279991650383965784e-03
4.792000000000000171e+01,4.994055950491637502e-03
4.796000000000000085e+01,3.509105238338889633e-03
4.800000000000000000e+01,3.837207487474945857e-03
4.803999999999999915e+01,4.628147617088088084e-03
4.807999999999999829e+01,3.914469331476147160e-03
4.811999999999999744e+01,1.927638162984247590e-03
4.815999999999999659e+01,2.062480870271111034e-03
4.820000000000000284e+01,2.390118733565242508e-03
4.824000000000000199e+01,2.447620918459975786e-03
4.828000000000000114e+01,5.051150544654244359e-03
4.832000000000000028e+01,5.687131305022711733e-03
4.835999999999999943e+01,3.854054789228050955e-03
4.839999999999999858e+01,3.834032002334063736e-03
4.843999999999999773e+01,2.656589674441566396e-03
4.847999999999999687e+01,4.449528506891741592e-03
4.852000000000000313e+01,3.503367338708965242e-03
4.856000000000000227e+01,4.100217174957027783e-03
4.860000000000000142e+01,2.652363530846295770e-03
4.864000000000000057e+01,4.213468930053624988e-03
4.867999999999999972e+01,4.848620704413500286e-03
4.871999999999999886e+01,2.474629830431781825e-03
4.875999999999999801e+01,2.646667318883859973e-03
4.879999999999999716e+01,1.738441109049408467e-03
4.884000000000000341e+01,3.762019174477659877e-03
4.888000000000000256e+01,3.933782176528699027e-03
4.892000000000000171e+01,3.873988381051175940e-03
4.896000000000000085e+01,3.544060288875625162e-03
4.900000000000000000e+01,4.139902830613514592e-03
4.903999999999999915e+01,1.726603338099311083e-03
4.907999999999999829e+01,2.900927372236048601e-03
4.911999999999999744e+01,5.541108333598946528e-03
4.915999999999999659e+01,1.970208688749026330e-03
4.920000000000000284e+01,2.256975832348184774e-03
4.924000000000000199e+01,2.929428007398755633e-03
4.928000000000000114e+01,3.331746499840790299e-03
4.932000000000000028e+01,3.078155627128950286e-03
4.935999999999999943e+01,1.667146978925911896e-03
4.939999999999999858e+01,3.920917623324623145e-03
4.943999999999999773e+01,3.512745184459006506e-03
4.947999999999999687e+01,2.641551567137520769e-03
4.952000000000000313e+01,4.740741105949585615e-03
4.956000000000000227e+01,2.904927786069296317e-03
4.960000000000000142e+01,1.840575947797628252e-03
4.964000000000000057e+01,5.173977805377281969e-03
4.967999999999999972e+01,3.723670364073739577e-03
4.971999999999999886e+01,3.970686456998094062e-03
4.975999999999999801e+01,3.098863117973783398e-03
4.979999999999999716e+01,3.962941042630389009e-03
4.984000000000000341e+01,3.090938473970232525e-03
4.988000000000000256e+01,2.797510044593751015e-03
4.992000000000000171e+01,4.008517653597837814e-03
4.996000000000000085e+01,2.056074690134517425e-03
5.000000000000000000e+01,2.611084892771137894e-03
5.003999999999999915e+01,2.355876808232632534e-03
5.007999999999999829e+01,4.762432347039062888e-03
5.011999999999999744e+01,3.349718829601726518e-03
5.015999999999999659e+01,2.939933324013568189e-03
5.020000000000000284e+01,2.684369236561380979e-03
5.024000000000000199e+01,2.660181795867679229e-03
5.028000000000000114e+01,2.867371078693631108e-03
5.032000000000000028e+01,3.537402617384358735e-03
5.035999999999999943e+01,3.397216482989461137e-03
5.039999999999999858e+01,4.375691548802833168e-03
5.043999999999999773e+01,3.193733937480059109e-03
5.047999999999999687e+01,2.011687977898954805e-03
5.052000000000000313e+01,3.105630726729308091e-03
5.056000000000000227e+01,3.659399217794551736e-03
5.060000000000000142e+01,2.207045642491013444e-03
5.064000000000000057e+01,2.799215550298570897e-03
5.067999999999999972e+01,2.041082336080835957e-03
5.071999999999999886e+01,4.639110340138819996e-03
5.075999999999999801e+01,3.803646275438567290e-03
5.079999999999999716e+01,3.585335691459946850e-03
5.084000000000000341e+01,4.177066544617434596e-03
5.088000000000000256e+01,2.608365565011831668e-03
5.092000000000000171e+01,2.968455878053668021e-03
5.096000000000000085e+01,4.100010282584514235e-03
5.100000000000000000e+01,2.685357325329294515e-03
5.103999999999999915e+01,3.739581954034235795e-03
5.107999999999999829e+01,4.137900595077546179e-03
5.111999999999999744e+01,3.996046053012370161e-03
5.115999999999999659e+01,2.503889310056157860e-03
5.120000000000000284e+01,4.175006826856629376e-03
5.124000000000000199e+01,3.222762290576853053e-03
5.128000000000000114e+01,3.852111554419319125e-03
5.132000000000000028e+01,2.205297102079798767e-03
5.135999999999999943e+01,3.760334792472372172e-03
5.139999999999999858e+01,3.540717407303832671e-03
5.143999999999999773e+01,4.324030490342479702e-03
5.147999999999999687e+01,2.869757740174542007e-03
5.152000000000000313e+01,3.961518648962322059e-03
5.156000000000000227e+01,3.548667820748320142e-03
5.160000000000000142e+01,4.447368375231490131e-03
5.164000000000000057e+01,4.072922801819177548e-03
5.167999999999999972e+01,3.081149968093686419e-03
5.171999999999999886e+01,1.896403286053427971e-03
5.175999999999999801e+01,1.367389502933947414e-03
5.179999999999999716e+01,4.734625073671385950e-03
5.184000000000000341e+01,3.048112459115190267e-03
5.188000000000000256e+01,4.602030561117167497e-03
5.192000000000000171e+01,3.571165490909736315e-03
5.196000000000000085e+01,3.620387038666228723e-03
5.200000000000000000e+01,3.978143762534754914e-03
5.203999999999999915e+01,2.175470879714631964e-03
5.207999999999999829e+01,2.648789698992260692e-03
5.211999999999999744e+01,3.044868165358954448e-03
5.215999999999999659e+01,4.559611209426154242e-03
5.220000000000000284e+01,2.602287372207216006e-03
5.224000000000000199e+01,1.917938569933791675e-03
5.228000000000000114e+01,4.358288524038442940e-03
5.232000000000000028e+01,3.365149403071178002e-03
5.235999999999999943e+01,1.831839478592241178e-03
5.239999999999999858e+01,2.574521870300569646e-03
5.243999999999999773e+01,2.931343915742199401e-03
5.247999999999999687e+01,2.632262660163754622e-03
5.252000000000000313e+01,4.994949710362687340e-03
5.256000000000000227e+01,3.538372386750267360e-03
5.260000000000000142e+01,4.242055035339091680e-03
5.264000000000000057e+01,3.286817715755593287e-03
5.267999999999999972e+01,2.910159908738872182e-03
5.271999999999999886e+01,1.723288957546581643e-03
5.275999999999999801e+01,4.394091626549061040e-03
5.279999999999999716e+01,1.663949769150523074e-03
5.284000000000000341e+01,4.681782906071164929e-03
5.288000000000000256e+01,2.877335309072962932e-03
5.292000000000000171e+01,5.547802854204745247e-03
5.296000000000000085e+01,5.710644374779296970e-03
5.300000000000000000e+01,5.333316320021169558e-03
5.303999999999999915e+01,5.071637557512684823e-03
5.307999999999999829e+01,2.726686335967723994e-03
5.311999999999999744e+01,3.699323362439060122e-03
5.315999999999999659e+01,2.087179596297808210e-03
5.320000000000000284e+01,1.902323011093161580e-03
5.324000000000000199e+01,2.566090044626514327e-03
5.328000000000000114e+01,3.422661982837939959e-03
5.332000000000000028e+01,4.279151022835339657e-03
5.335999999999999943e+01,5.135557241379901973e-03
5.339999999999999858e+01,4.371622526145343794e-03
5.343999999999999773e+01,3.761915446702960002e-03
5.347999999999999687e+01,5.621090635653150369e-03
5.352000000000000313e+01,3.969623900505737935e-03
5.356000000000000227e+01,2.703850487017980028e-03
5.360000000000000142e+01,4.331312907443563356e-03
5.364000000000000057e+01,1.715159691372669572e-03
5.367999999999999972e+01,2.995259436934511691e-03
5.371999999999999886e+01,4.082389172240944233e-03
5.375999999999999801e+01,4.359307759162676932e-03
5.379999999999999716e+01,4.443256489351361110e-03
5.384000000000000341e+01,3.639839072816423646e-03
5.388000000000000256e+01,4.302287718088939998e-03
5.392000000000000171e+01,4.000215218298896862e-03
5.396000000000000085e+01,3.659483472543187139e-03
5.400000000000000000e+01,3.280092557582973360e-03
5.403999999999999915e+01,4.945231650434782009e-03
5.407999999999999829e+01,4.488522627349158731e-03
5.411999999999999744e+01,4.533240728371770029e-03
5.415999999999999659e+01,4.384989663512022830e-03
5.420000000000000284e+01,3.310795566848676128e-03
5.424000000000000199e+01,3.625313070982185640e-03
5.428000000000000114e+01,4.518413158129968958e-03
5.432000000000000028e+01,3.405398317699396323e-03
5.435999999999999943e+01,4.144026219517087974e-03
5.439999999999999858e+01,4.033866625198417877e-03
5.443999999999999773e+01,4.502289920938790969e-03
5.447999999999999687e+01,1.884426470087239994e-03
5.452000000000000313e+01,2.777041833546833611e-03
5.456000000000000227e+01,4.248240317349012002e-03
5.460000000000000142e+01,4.291988049860971308e-03
5.464000000000000057e+01,3.024017835635861660e-03
5.467999999999999972e+01,3.877734009263074117e-03
5.471999999999999886e+01,1.722319048726802040e-03
5.475999999999999801e+01,3.308848818652716448e-03
5.479999999999999716e+01,4.432367619360680355e-03
5.484000000000000341e+01,4.359901584929471406e-03
5.488000000000000256e+01,3.940157462594669723e-03
5.492000000000000171e+01,2.324428658643055805e-03
5.496000000000000085e+01,5.878015278393764961e-03
5.500000000000000000e+01,4.455014928845938728e-03
5.503999999999999915e+01,5.153701658001137199e-03
5.507999999999999829e+01,4.965024620029508812e-03
5.511999999999999744e+01,5.702129960432992042e-03
5.515999999999999659e+01,3.777303194421945207e-03
5.520000000000000284e+01,5.092913516147631707e-03
5.524000000000000199e+01,3.515126429397229073e-03
5.528000000000000114e+01,3.210320211442585676e-03
5.532000000000000028e+01,6.030218583716267546e-03
5.535999999999999943e+01,4.760814923947145720e-03
5.539999999999999858e+01,3.568487509407062934e-03
5.543999999999999773e+01,3.726296422568792059e-03
5.547999999999999687e+01,5.041353860540232976e-03
5.552000000000000313e+01,2.884350788404097150e-03
5.556000000000000227e+01,4.970802469052391405e-03
5.560000000000000142e+01,4.472478039520519019e-03
5.564000000000000057e+01,4.591316378813957433e-03
5.567999999999999972e+01,3.244128463438589790e-03
5.571999999999999886e+01,5.291688937417992310e-03
5.575999999999999801e+01,3.751456634064977407e-03
5.579999999999999716e+01,5.143041962421278195e-03
5.584000000000000341e+01,5.801575285835940642e-03
5.588000000000000256e+01,4.376841523497246658e-03
5.592000000000000171e+01,3.067762580213676069e-03
5.596000000000000085e+01,5.577785822089223119e-03
5.600000000000000000e+01,4.654327050922077089e-03
5.603999999999999915e+01,3.923678480954925080e-03
5.607999999999999829e+01,5.006098378036439450e-03
5.611999999999999744e+01,5.394044383435267660e-03
5.615999999999999659e+01,4.894628694259337345e-03
5.620000000000000284e+01,4.665178665189471073e-03
5.624000000000000199e+01,4.088453158096364698e-03
5.628000000000000114e+01,4.360357103591498695e-03
5.632000000000000028e+01,4.940804515406900348e-03
5.635999999999999943e+01,2.512123940267515978e-03
5.639999999999999858e+01,4.211167002105515450e-03
5.643999999999999773e+01,4.096987084361372773e-03
5.647999999999999687e+01,4.484238819635529352e-03
5.652000000000000313e+01,4.138439854908219570e-03
5.656000000000000227e+01,4.564115728236149867e-03
5.660000000000000142e+01,4.873982269975475796e-03
5.664000000000000057e+01,5.453815316193906873e-03
5.667999999999999972e+01,3.873227660021434562e-03
5.671999999999999886e+01,3.449890908255486173e-03
5.675999999999999801e+01,4.222382713587926814e-03
5.679999999999999716e+01,5.071953450790950280e-03
5.684000000000000341e+01,3.491060761133230050e-03
5.688000000000000256e+01,2.218712612452416761e-03
5.692000000000000171e+01,2.450813935359952289e-03
5.696000000000000085e+01,4.418830262200949648e-03
5.700000000000000000e+01,4.265004076671206901e-03
5.703999999999999915e+01,3.339550613104781945e-03
5.707999999999999829e+01,4.767253598645852450e-03
5.711999999999999744e+01,5.770527643048511263e-03
5.715999999999999659e+01,5.153467969223680598e-03
5.720000000000000284e+01,5.809392848731584173e-03
5.724000000000000199e+01,6.889595687859025909e-03
5.728000000000000114e+01,5.693646248221420972e-03
5.732000000000000028e+01,4.073268251251323246e-03
5.735999999999999943e+01,4.728892088855733700e-03
5.739999999999999858e+01,5.037242674511358161e-03
5.743999999999999773e+01,5.384095844285912216e-03
5.747999999999999687e+01,5.692296523079284215e-03
5.752000000000000313e+01,5.961844787652667045e-03
5.756000000000000227e+01,6.925714657449662769e-03
5.760000000000000142e+01,6.230674077461556548e-03
5.764000000000000057e+01,4.764007370854596822e-03
5.767999999999999972e+01,4.145972803477442070e-03
5.771999999999999886e+01,3.952217116854067278e-03
5.775999999999999801e+01,3.989852508092393141e-03
5.779999999999999716e+01,5.030430572566710855e-03
5.784000000000000341e+01,4.566408951545666145e-03
5.788000000000000256e+01,4.372356214600537846e-03
5.792000000000000171e+01,6.068530627580011327e-03
5.796000000000000085e+01,5.681441946387864525e-03
5.800000000000000000e+01,4.599882981288851841e-03
5.803999999999999915e+01,4.559844725923600274e-03
5.807999999999999829e+01,5.908525440429180514e-03
5.811999999999999744e+01,6.215537917935567980e-03
5.815999999999999659e+01,5.712347690787866576e-03
5.820000000000000284e+01,4.321799683885984601e-03
5.824000000000000199e+01,6.750358237530867077e-03
5.828000000000000114e+01,6.246947640619265191e-03
5.832000000000000028e+01,3.737429792248061003e-03
5.835999999999999943e+01,5.741415101458968544e-03
5.839999999999999858e+01,5.777870888663299252e-03
5.843999999999999773e+01,6.585805121698680778e-03
5.847999999999999687e+01,4.461770587983518097e-03
5.852000000000000313e+01,3.186369805483076165e-03
5.856000000000000227e+01,4.919947103075180371e-03
5.860000000000000142e+01,4.685995262466664812e-03
5.864000000000000057e+01,6.342271953484086844e-03
5.867999999999999972e+01,6.185329963545863584e-03
5.871999999999999886e+01,3.867971186037296241e-03
5.875999999999999801e+01,5.292564815109631303e-03
5.879999999999999716e+01,4.441009082342035202e-03
5.884000000000000341e+01,6.135501055827445767e-03
5.888000000000000256e+01,5.515266245064653038e-03
5.892000000000000171e+01,5.666510801267151190e-03
5.896000000000000085e+01,5.779105706652395980e-03
5.900000000000000000e+01,5.274387399021782802e-03
5.903999999999999915e+01,4.962485049680206983e-03
5.907999999999999829e+01,5.036286615042137073e-03
5.911999999999999744e+01,5.804412779314004067e-03
5.915999999999999659e+01,5.878070885753435004e-03
5.920000000000000284e+01,6.761786472417125916e-03
5.924000000000000199e+01,5.446508693475256464e-03
5.928000000000000114e+01,5.288486731655913167e-03
5.932000000000000028e+01,6.557763695234850899e-03
5.935999999999999943e+01,5.435159643838516526e-03
5.939999999999999858e+01,6.472828614045291092e-03
5.943999999999999773e+01,5.774435513620274421e-03
5.947999999999999687e+01,6.001833158539791359e-03
5.952000000000000313e+01,5.727651316130850066e-03
5.956000000000000227e+01,6.803613707826003561e-03
5.960000000000000142e+01,4.947609482083856723e-03
5.964000000000000057e+01,6.872136927599402714e-03
5.967999999999999972e+01,5.787542757338697517e-03
5.971999999999999886e+01,5.204386457752464487e-03
5.975999999999999801e+01,5.624176592700393801e-03
5.979999999999999716e+01,6.121051416607965756e-03
5.984000000000000341e+01,7.196519493334877469e-03
5.988000000000000256e+01,5.571486945536734472e-03
5.992000000000000171e+01,6.492504176543653464e-03
5.996000000000000085e+01,5.793193062606186161e-03
