2.003999999999999915e+01,5.621974399498704672e-02
2.007999999999999829e+01,5.613558091348328644e-02
2.012000000000000099e+01,9.581694120901576572e-02
2.016000000000000014e+01,3.885050434830696064e-02
2.019999999999999929e+01,6.511689230677086826e-02
2.023999999999999844e+01,8.028282661001827358e-02
2.028000000000000114e+01,9.359667077481885478e-02
2.032000000000000028e+01,5.419244251950124103e-02
2.035999999999999943e+01,7.120080299516624855e-02
2.039999999999999858e+01,1.098293993613745287e-02
2.044000000000000128e+01,4.232144224735230609e-02
2.048000000000000043e+01,5.701049011631989516e-02
2.051999999999999957e+01,7.678373426410116387e-02
2.055999999999999872e+01,2.071801950980549020e-02
2.060000000000000142e+01,4.788515582169883961e-02
2.064000000000000057e+01,9.493387371381939444e-02
2.067999999999999972e+01,5.319593532907290062e-02
2.071999999999999886e+01,2.717782137252619523e-02
2.076000000000000156e+01,4.971121563572150626e-02
2.080000000000000071e+01,7.686640650603873692e-02
2.083999999999999986e+01,9.847019962690521655e-02
2.087999999999999901e+01,4.700956311092805567e-02
2.092000000000000171e+01,5.103671598255020425e-02
2.096000000000000085e+01,7.540788947661639097e-02
2.100000000000000000e+01,5.076037952731978636e-02
2.103999999999999915e+01,4.183271500383646535e-02
2.107999999999999829e+01,4.492555417404126006e-02
2.112000000000000099e+01,3.183139894182870910e-02
2.116000000000000014e+01,6.543910599796134986e-02
2.119999999999999929e+01,7.592355323202942818e-02
2.123999999999999844e+01,1.062896214168495973e-01
2.128000000000000114e+01,9.411087715566626710e-02
2.132000000000000028e+01,3.291347044873364769e-02
2.135999999999999943e+01,4.708785791906466844e-02
2.139999999999999858e+01,6.218473701021519362e-02
2.144000000000000128e+01,5.230869984909788939e-02
2.148000000000000043e+01,6.185188134233919610e-02
2.151999999999999957e+01,6.121952926002405954e-02
2.155999999999999872e+01,9.526619655338268433e-02
2.160000000000000142e+01,5.624848145452768233e-02
2.164000000000000057e+01,7.456827516631575614e-02
2.167999999999999972e+01,4.248217592085934413e-02
2.171999999999999886e+01,5.617313962036481895e-02
2.176000000000000156e+01,4.997780655585223886e-02
2.180000000000000071e+01,6.921314772315616259e-02
2.183999999999999986e+01,5.838900039457105284e-02
2.187999999999999901e+01,5.866057316450061510e-02
2.192000000000000171e+01,6.262917994399176680e-02
2.196000000000000085e+01,4.902359330599071613e-02
2.200000000000000000e+01,3.449086548092132609e-02
2.203999999999999915e+01,4.677608176968748449e-02
2.207999999999999829e+01,8.819133502000882363e-02
2.212000000000000099e+01,1.307494380651993103e-02
2.216000000000000014e+01,6.373396612609662226e-02
2.219999999999999929e+01,5.103942436065563026e-02
2.223999999999999844e+01,5.313997067287142689e-02
2.228000000000000114e+01,7.419737008887572483e-02
2.232000000000000028e+01,7.074432904065199035e-02
2.235999999999999943e+01,7.607494936434558430e-02
2.239999999999999858e+01,5.874480665162790799e-02
2.244000000000000128e+01,9.089111848532901994e-02
2.248000000000000043e+01,5.043552371485671149e-02
2.251999999999999957e+01,7.656585639053167802e-02
2.255999999999999872e+01,8.049785457320557391e-02
2.260000000000000142e+01,5.020865172789173297e-02
2.264000000000000057e+01,5.968513761583417454e-02
2.267999999999999972e+01,7.332112542727325932e-02
2.271999999999999886e+01,6.152186293229395392e-02
2.276000000000000156e+01,7.885268201879812311e-02
2.280000000000000071e+01,8.878255978781944557e-02
2.283999999999999986e+01,4.460727635911764660e-02
2.287999999999999901e+01,6.979245226649813394e-02
2.292000000000000171e+01,7.000480903557274037e-02
2.296000000000000085e+01,6.651557934279785089e-02
2.300000000000000000e+01,7.181005301716707201e-02
2.303999999999999915e+01,5.721831391797223970e-02
2.307999999999999829e+01,3.984983232024013472e-02
2.312000000000000099e+01,8.351830100393994871e-02
2.316000000000000014e+01,6.059634228323820815e-02
2.319999999999999929e+01,8.992539624590720204e-02
2.323999999999999844e+01,2.769345364499550821e-02
2.328000000000000114e+01,7.320269432926418407e-02
2.332000000000000028e+01,8.449078123017535191e-02
2.335999999999999943e+01,7.866718462275598678e-02
2.339999999999999858e+01,1.121469085733206722e-01
2.344000000000000128e+01,7.857380544779268838e-02
2.348000000000000043e+01,6.904423265774026208e-02
2.351999999999999957e+01,4.009089663514706081e-02
2.355999999999999872e+01,3.009449770679575517e-02
2.360000000000000142e+01,6.356319486136771668e-02
2.364000000000000057e+01,7.945780883591717358e-02
2.367999999999999972e+01,6.390580091704414767e-02
2.371999999999999886e+01,5.621270752073877913e-02
2.376000000000000156e+01,5.730336736090885230e-02
2.380000000000000071e+01,6.347843870542939360e-02
2.383999999999999986e+01,4.514316932438534186e-02
2.387999999999999901e+01,3.235473474169791447e-02
2.392000000000000171e+01,6.904285181939101568e-02
2.396000000000000085e+01,9.278108716070908313e-02
2.400000000000000000e+01,4.622960585953368035e-02
2.403999999999999915e+01,4.129357733458621088e-02
2.407999999999999829e+01,3.034394561641950636e-02
2.412000000000000099e+01,5.314866516562623960e-02
2.416000000000000014e+01,9.583519726880682099e-02
2.419999999999999929e+01,7.516829652205292422e-02
2.423999999999999844e+01,1.016658782102759645e-01
2.428000000000000114e+01,5.879859771812379066e-02
2.432000000000000028e+01,5.754678837511133238e-02
2.435999999999999943e+01,4.057061527512015320e-02
2.439999999999999858e+01,5.919848399382753729e-02
2.444000000000000128e+01,2.325887845827511943e-02
2.448000000000000043e+01,2.061122976780801683e-02
2.451999999999999957e+01,3.507090898600934842e-02
2.455999999999999872e+01,8.929640292314632022e-02
2.460000000000000142e+01,9.959004813070809758e-02
2.464000000000000057e+01,3.820676455719296261e-02
2.467999999999999972e+01,5.589483736800644059e-02
2.471999999999999886e+01,6.202033244558682878e-02
2.476000000000000156e+01,6.721886744051339124e-02
2.480000000000000071e+01,7.518978933431491596e-02
2.483999999999999986e+01,6.789879701216119945e-02
2.487999999999999901e+01,5.505667203542461557e-02
2.492000000000000171e+01,9.955227109486788906e-02
2.496000000000000085e+01,1.826805115225134390e-02
2.500000000000000000e+01,3.408951233110884410e-02
2.503999999999999915e+01,7.071767989658372944e-02
2.507999999999999829e+01,6.110194000588606983e-02
2.512000000000000099e+01,7.691709219724257585e-02
2.516000000000000014e+01,8.903080228534215879e-02
2.519999999999999929e+01,7.201008044169918132e-02
2.523999999999999844e+01,9.059345553549012775e-02
2.528000000000000114e+01,5.553424758296289510e-02
2.532000000000000028e+01,3.480791176551732702e-02
2.535999999999999943e+01,6.402064014231524658e-02
2.539999999999999858e+01,3.357935876705593625e-02
2.544000000000000128e+01,1.020934595634028635e-01
2.548000000000000043e+01,8.228363709168591555e-02
2.551999999999999957e+01,8.559264272602297441e-02
2.555999999999999872e+01,5.005646111426201306e-02
2.560000000000000142e+01,3.810153090256162417e-02
2.564000000000000057e+01,1.173960032267944110e-03
2.567999999999999972e+01,5.487826227892950159e-02
2.571999999999999886e+01,7.389915017973013034e-02
2.576000000000000156e+01,9.199314361541871543e-02
2.580000000000000071e+01,2.546257913748341262e-02
2.583999999999999986e+01,3.892828324943265611e-02
2.587999999999999901e+01,6.302755188545901277e-02
2.592000000000000171e+01,2.978493511356688009e-02
2.596000000000000085e+01,3.492097079135891152e-02
2.600000000000000000e+01,5.716443149178071503e-02
2.603999999999999915e+01,7.709376196619226185e-02
2.607999999999999829e+01,1.196795392478774422e-01
2.612000000000000099e+01,1.039986081559458320e-01
2.616000000000000014e+01,3.883691416256293549e-02
2.619999999999999929e+01,8.095417701297885626e-02
2.623999999999999844e+01,7.636519047896754564e-02
2.628000000000000114e+01,4.217942483555555538e-02
2.632000000000000028e+01,3.342463001524770272e-02
2.635999999999999943e+01,3.854035752766148126e-02
2.639999999999999858e+01,5.290242955146401416e-02
2.644000000000000128e+01,3.119388034022562567e-02
2.648000000000000043e+01,5.572512445805057058e-02
2.651999999999999957e+01,6.083280219595933042e-02
2.655999999999999872e+01,4.790417031246444607e-02
2.660000000000000142e+01,5.439509304514087568e-02
2.664000000000000057e+01,3.915036704898978981e-02
2.667999999999999972e+01,4.055069265079364049e-02
2.671999999999999886e+01,5.397189202922016843e-02
2.676000000000000156e+01,4.658228664213058534e-02
2.680000000000000071e+01,3.687860089836206279e-02
2.683999999999999986e+01,4.890657574199222535e-02
2.687999999999999901e+01,7.110576268263837929e-02
2.692000000000000171e+01,3.920005614513120268e-02
2.696000000000000085e+01,6.324495336977838111e-02
2.700000000000000000e+01,5.815553677425885221e-02
2.703999999999999915e+01,4.047833065328037064e-03
2.707999999999999829e+01,6.138090634506312981e-02
2.712000000000000099e+01,7.755680451904808925e-02
2.716000000000000014e+01,2.991704602641872407e-02
2.719999999999999929e+01,4.007757922256722366e-02
2.723999999999999844e+01,3.405151959565362596e-02
2.728000000000000114e+01,6.409210881056208453e-02
2.732000000000000028e+01,3.494123230369663297e-02
2.735999999999999943e+01,7.468869105489707449e-02
2.739999999999999858e+01,2.010091794386974912e-02
2.744000000000000128e+01,3.024972293888111147e-02
2.748000000000000043e+01,5.056977940143333322e-02
2.751999999999999957e+01,2.603334264842505422e-02
2.755999999999999872e+01,5.421062271587244463e-02
2.760000000000000142e+01,6.481407944876241278e-02
2.764000000000000057e+01,4.258391999988497822e-02
2.767999999999999972e+01,3.514920558809053047e-02
2.771999999999999886e+01,4.759653732871788751e-02
2.776000000000000156e+01,3.414653143073382441e-02
2.780000000000000071e+01,5.213902804965939858e-02
2.783999999999999986e+01,7.752829149082063331e-02
2.787999999999999901e+01,4.927514249127175339e-02
2.792000000000000171e+01,5.338933997194484499e-02
2.796000000000000085e+01,4.316666405259918932e-02
2.800000000000000000e+01,9.213158644987495816e-02
2.803999999999999915e+01,3.520086786506469723e-02
2.807999999999999829e+01,4.300676938151992701e-02
2.812000000000000099e+01,3.185162755072940000e-02
2.816000000000000014e+01,6.323704492964490886e-02
2.819999999999999929e+01,3.913039868705035784e-02
2.823999999999999844e+01,1.086009439862325836e-02
2.828000000000000114e+01,3.252904590766152182e-02
2.832000000000000028e+01,3.939872959439271599e-02
2.835999999999999943e+01,4.117992702018971607e-02
2.839999999999999858e+01,3.463571449753027887e-02
2.844000000000000128e+01,5.722195626399050050e-02
2.848000000000000043e+01,3.680143998614354012e-02
2.851999999999999957e+01,5.845908849571459370e-02
2.855999999999999872e+01,7.456584582325638533e-02
2.860000000000000142e+01,5.321486951583667691e-02
2.864000000000000057e+01,6.145677866564822067e-02
2.867999999999999972e+01,6.414780450753553021e-02
2.871999999999999886e+01,5.481409704175270459e-02
2.876000000000000156e+01,6.443766788142832325e-02
2.880000000000000071e+01,6.296134675204390074e-02
2.883999999999999986e+01,4.067435734163018374e-02
2.887999999999999901e+01,1.699826014823081766e-02
2.892000000000000171e+01,2.846408332021513679e-02
2.896000000000000085e+01,6.859797685783743104e-02
2.900000000000000000e+01,4.676600664353539050e-02
2.903999999999999915e+01,1.845834065441724972e-02
2.907999999999999829e+01,7.430891825744843915e-02
2.912000000000000099e+01,3.767404903883690703e-02
2.916000000000000014e+01,5.329058358414418689e-02
2.919999999999999929e+01,5.133339978296082989e-02
2.923999999999999844e+01,7.157045209587972745e-02
2.928000000000000114e+01,5.897399583979928001e-02
2.932000000000000028e+01,3.758977195879754235e-02
2.935999999999999943e+01,4.857298904727760241e-02
2.939999999999999858e+01,1.562467237038197600e-02
2.944000000000000128e+01,6.960913117557090968e-02
2.948000000000000043e+01,3.388267504905274896e-02
2.951999999999999957e+01,6.797953200369691307e-02
2.955999999999999872e+01,7.849125965432146579e-02
2.960000000000000142e+01,5.431982755514653399e-02
2.964000000000000057e+01,6.760245328900207906e-02
2.967999999999999972e+01,3.880323580880758877e-02
2.971999999999999886e+01,5.716886034771807151e-02
2.976000000000000156e+01,2.050494167308669971e-02
2.980000000000000071e+01,2.221992741949942868e-02
2.983999999999999986e+01,3.965533602609186414e-02
2.987999999999999901e+01,4.599092353056939003e-02
2.992000000000000171e+01,5.047505344970113633e-02
2.996000000000000085e+01,5.634465472041279288e-02
3.000000000000000000e+01,5.943796756597521935e-02
3.003999999999999915e+01,3.894618260393788861e-02
3.007999999999999829e+01,4.342319714235807343e-02
3.012000000000000099e+01,4.512393112973406978e-02
3.016000000000000014e+01,3.572486238790684165e-02
3.019999999999999929e+01,3.326029728110992123e-02
3.023999999999999844e+01,4.836585345992297502e-02
3.028000000000000114e+01,6.115755763110203302e-02
3.032000000000000028e+01,2.816811622663023540e-02
3.035999999999999943e+01,5.991544453141901122e-02
3.039999999999999858e+01,5.605482949123496983e-02
3.044000000000000128e+01,3.045881506888113016e-02
3.048000000000000043e+01,3.723031510765571761e-02
3.051999999999999957e+01,2.087916687985381589e-02
3.055999999999999872e+01,5.862918645894268921e-02
3.060000000000000142e+01,5.013566079068937364e-02
3.064000000000000057e+01,4.903908567378793132e-02
3.067999999999999972e+01,1.973327429847964928e-02
3.071999999999999886e+01,6.210052692379738892e-02
3.076000000000000156e+01,5.406248239914895198e-02
3.080000000000000071e+01,4.879721847862536488e-02
3.083999999999999986e+01,2.410867164596579293e-02
3.087999999999999901e+01,2.577623094160718178e-02
3.092000000000000171e+01,1.865612760039384727e-02
3.096000000000000085e+01,4.667807848434889911e-02
3.100000000000000000e+01,5.481433891037146983e-02
3.103999999999999915e+01,7.404692049158972944e-02
3.107999999999999829e+01,7.293139881967540539e-02
3.112000000000000099e+01,4.406908780567569961e-02
3.116000000000000014e+01,2.861519604399371045e-02
3.119999999999999929e+01,5.662689905855124162e-02
3.123999999999999844e+01,6.521534540798949731e-02
3.128000000000000114e+01,2.062402046096290312e-02
3.132000000000000028e+01,5.510448759874170960e-02
3.135999999999999943e+01,4.842805784914683276e-02
3.139999999999999858e+01,2.510289020085965800e-02
3.144000000000000128e+01,4.616816916622884515e-02
3.148000000000000043e+01,6.214516659739357379e-02
3.151999999999999957e+01,6.286068813778133979e-02
3.155999999999999872e+01,4.554022814447304668e-02
3.160000000000000142e+01,2.821809298170272276e-02
3.164000000000000057e+01,3.910178599497843299e-02
3.167999999999999972e+01,3.703610383930062283e-02
3.171999999999999886e+01,3.034457394223195881e-02
3.176000000000000156e+01,3.752392071260922390e-02
3.180000000000000071e+01,2.712971974210412821e-02
3.183999999999999986e+01,3.245607286686193194e-02
3.187999999999999901e+01,2.205855567855435212e-02
3.192000000000000171e+01,4.310381135142814929e-02
3.196000000000000085e+01,1.790561101681614753e-02
3.200000000000000000e+01,1.443940985611797886e-02
3.203999999999999915e+01,3.640455485086214332e-02
3.207999999999999829e+01,4.033375243303219393e-02
3.211999999999999744e+01,3.686262025320758556e-02
3.215999999999999659e+01,6.668394886118797493e-02
3.220000000000000284e+01,2.575368084591319467e-02
3.224000000000000199e+01,4.724821567786015308e-02
3.228000000000000114e+01,2.434898767834815791e-02
3.232000000000000028e+01,4.214091967910199577e-02
3.235999999999999943e+01,2.802438130209179701e-02
3.239999999999999858e+01,3.101568789997797768e-02
3.243999999999999773e+01,3.677988271475741283e-02
3.247999999999999687e+01,0.000000000000000000e+00
3.252000000000000313e+01,6.223380632033460869e-03
3.256000000000000227e+01,5.498760919095647959e-02
3.260000000000000142e+01,5.519633351460340176e-02
3.264000000000000057e+01,6.141488549087570359e-02
3.267999999999999972e+01,3.433773395318694827e-02
3.271999999999999886e+01,2.066910403118097164e-02
3.275999999999999801e+01,3.011977728623035921e-02
3.279999999999999716e+01,2.199696841793909174e-02
3.284000000000000341e+01,5.826469802786229946e-02
3.288000000000000256e+01,2.932989216969927870e-02
3.292000000000000171e+01,3.276276087946631416e-02
3.296000000000000085e+01,6.255187220202072795e-02
3.300000000000000000e+01,6.366948145426144789e-02
3.303999999999999915e+01,1.623161534294441724e-02
3.307999999999999829e+01,3.935942565984304128e-03
3.311999999999999744e+01,3.186906423872012950e-02
3.315999999999999659e+01,7.737249880028729265e-02
3.320000000000000284e+01,8.194688118819282857e-03
3.324000000000000199e+01,2.363781204307707773e-02
3.328000000000000114e+01,3.815453494613608304e-02
3.332000000000000028e+01,3.093604744554534144e-02
3.335999999999999943e+01,6.579604232127385377e-02
3.339999999999999858e+01,4.054013434067520183e-02
3.343999999999999773e+01,6.013722225341934513e-02
3.347999999999999687e+01,5.106283959226994712e-02
3.352000000000000313e+01,1.747875138335874476e-02
3.356000000000000227e+01,4.863164285984126339e-02
3.360000000000000142e+01,4.833856336891455274e-02
3.364000000000000057e+01,3.740832754243288150e-02
3.367999999999999972e+01,5.745856201940267860e-02
3.371999999999999886e+01,4.190107100163784765e-02
3.375999999999999801e+01,3.559040744036857939e-02
3.379999999999999716e+01,1.679292586393734549e-02
3.384000000000000341e+01,2.527658073293713448e-02
3.388000000000000256e+01,3.838289048650365270e-02
3.392000000000000171e+01,3.206611942996238918e-02
3.396000000000000085e+01,1.603704912468623817e-02
3.400000000000000000e+01,3.699990470031882389e-02
3.403999999999999915e+01,6.258542565932478929e-02
3.407999999999999829e+01,2.389332598050124962e-02
3.411999999999999744e+01,4.623889837606750403e-02
3.415999999999999659e+01,1.401763431987865065e-02
3.420000000000000284e+01,1.370171077746969515e-02
3.424000000000000199e+01,6.240059802386750676e-02
3.428000000000000114e+01,5.052122211277117192e-02
3.432000000000000028e+01,4.465178409177000818e-02
3.435999999999999943e+01,4.802921289778948333e-02
3.439999999999999858e+01,3.290842847932789333e-02
3.443999999999999773e+01,5.061783641206294565e-02
3.447999999999999687e+01,5.121629050353067314e-02
3.452000000000000313e+01,3.239170315541539669e-02
3.456000000000000227e+01,2.697575815925976062e-02
3.460000000000000142e+01,1.554690026642281155e-02
3.464000000000000057e+01,3.509857566987721611e-02
3.467999999999999972e+01,4.170107275700309091e-02
3.471999999999999886e+01,3.951615655393226484e-02
3.475999999999999801e+01,2.900624772997000000e-02
3.479999999999999716e+01,4.392786616586529663e-02
3.484000000000000341e+01,3.526470175836066145e-02
3.488000000000000256e+01,1.827655260406941401e-02
3.492000000000000171e+01,1.839641378087979867e-02
3.496000000000000085e+01,4.071088640413043219e-02
3.500000000000000000e+01,3.389157014754733827e-02
3.503999999999999915e+01,3.077014880267234243e-02
3.507999999999999829e+01,4.429433024310219097e-02
3.511999999999999744e+01,6.845268251369431012e-02
3.515999999999999659e+01,4.544295266372731790e-02
3.520000000000000284e+01,4.509026805301397794e-02
3.524000000000000199e+01,3.040118773798505467e-02
3.528000000000000114e+01,3.975641204542342683e-02
3.532000000000000028e+01,5.049745941446490138e-02
3.535999999999999943e+01,6.077466029139722697e-02
3.539999999999999858e+01,7.382494361314619058e-02
3.543999999999999773e+01,3.831990905343742038e-02
3.547999999999999687e+01,2.500952006129064306e-02
3.552000000000000313e+01,7.366173109729874657e-02
3.556000000000000227e+01,3.861486073609674691e-02
3.560000000000000142e+01,4.240969342228371325e-02
3.564000000000000057e+01,1.429627095624312096e-02
3.567999999999999972e+01,3.658500790207943471e-02
3.571999999999999886e+01,3.575143779255591375e-02
3.575999999999999801e+01,5.433802335588575755e-02
3.579999999999999716e+01,4.980230711325909360e-02
3.584000000000000341e+01,5.497597285621804580e-02
3.588000000000000256e+01,5.506164578215584637e-02
3.592000000000000171e+01,3.711162326687936913e-02
3.596000000000000085e+01,7.834972138385588869e-02
3.600000000000000000e+01,5.299823462566580212e-02
3.603999999999999915e+01,6.140188129594580102e-02
3.607999999999999829e+01,5.731885955905871577e-02
3.611999999999999744e+01,5.462171337780796776e-02
3.615999999999999659e+01,4.406208448482763773e-02
3.620000000000000284e+01,4.459911533355783581e-02
3.624000000000000199e+01,7.380469424362917641e-02
3.628000000000000114e+01,5.445501039097773444e-02
3.632000000000000028e+01,1.003049053727382567e-01
3.635999999999999943e+01,4.627113989020343460e-02
3.639999999999999858e+01,7.362159005260239530e-02
3.643999999999999773e+01,6.813900146760036580e-02
3.647999999999999687e+01,7.791485339865128479e-02
3.652000000000000313e+01,6.688054099139259523e-02
3.656000000000000227e+01,7.017983826038319550e-02
3.660000000000000142e+01,1.076967237482706896e-01
3.664000000000000057e+01,6.798845133034041310e-02
3.667999999999999972e+01,6.018568215769307811e-02
3.671999999999999886e+01,5.561850008962070102e-02
3.675999999999999801e+01,5.798625210765199350e-02
3.679999999999999716e+01,7.330037541633244169e-02
3.684000000000000341e+01,8.028964258860807335e-02
3.688000000000000256e+01,8.080372842759414587e-02
3.692000000000000171e+01,9.195210320831742612e-02
3.696000000000000085e+01,1.058736627972221983e-01
3.700000000000000000e+01,7.771385949248171832e-02
3.703999999999999915e+01,1.129040100883693665e-01
3.707999999999999829e+01,9.722686019255077916e-02
3.711999999999999744e+01,1.028196273878557165e-01
3.715999999999999659e+01,8.066600157102699065e-02
3.720000000000000284e+01,1.107643070831519500e-01
3.724000000000000199e+01,1.311505285720786229e-01
3.728000000000000114e+01,8.587208526549880427e-02
3.732000000000000028e+01,9.284558116197774713e-02
3.735999999999999943e+01,1.012050339798447052e-01
3.739999999999999858e+01,1.072511019869740734e-01
3.743999999999999773e+01,1.095965336742574653e-01
3.747999999999999687e+01,1.313622338965659553e-01
3.752000000000000313e+01,1.133586955693676041e-01
3.756000000000000227e+01,1.087639964467534692e-01
3.760000000000000142e+01,1.485601481418522551e-01
3.764000000000000057e+01,1.652341187672712597e-01
3.767999999999999972e+01,1.227173034686477454e-01
3.771999999999999886e+01,1.828560204818689139e-01
3.775999999999999801e+01,1.666944891701258313e-01
3.779999999999999716e+01,1.755022639262614481e-01
3.784000000000000341e+01,1.524019278887613627e-01
3.788000000000000256e+01,1.926516008706244676e-01
3.792000000000000171e+01,1.750977578104655485e-01
3.796000000000000085e+01,2.236684372866936665e-01
3.800000000000000000e+01,2.380189262450754240e-01
3.803999999999999915e+01,2.440446378081024270e-01
3.807999999999999829e+01,2.699530753212828205e-01
3.811999999999999744e+01,3.217556759891623264e-01
3.815999999999999659e+01,3.213037928984701641e-01
3.820000000000000284e+01,3.263996842493314121e-01
3.824000000000000199e+01,3.407426970232748653e-01
3.828000000000000114e+01,4.142739826621676946e-01
3.832000000000000028e+01,4.267648521938315342e-01
3.835999999999999943e+01,4.767103517434889692e-01
3.839999999999999858e+01,4.776383095950085811e-01
3.843999999999999773e+01,4.979865989743929577e-01
3.847999999999999687e+01,5.308189518372935511e-01
3.852000000000000313e+01,5.456157798645878687e-01
3.856000000000000227e+01,5.849195457844895696e-01
3.860000000000000142e+01,6.302335304375644709e-01
3.864000000000000057e+01,6.797080642701011088e-01
3.867999999999999972e+01,7.185457724794926948e-01
3.871999999999999886e+01,7.481339118242508190e-01
3.875999999999999801e+01,7.670852307952672477e-01
3.879999999999999716e+01,8.230287906113921137e-01
3.884000000000000341e+01,8.974678721131921222e-01
3.888000000000000256e+01,8.784973111313489902e-01
3.892000000000000171e+01,9.335124424369903862e-01
3.896000000000000085e+01,9.950002341427240937e-01
3.900000000000000000e+01,9.806502769338477643e-01
3.903999999999999915e+01,9.958938876046363742e-01
3.907999999999999829e+01,9.713683620892827886e-01
3.911999999999999744e+01,9.547027616066381395e-01
3.915999999999999659e+01,1.000000000000000000e+00
3.920000000000000284e+01,9.375526575246271310e-01
3.924000000000000199e+01,8.769538133762239118e-01
3.928000000000000114e+01,9.328831452411319169e-01
3.932000000000000028e+01,8.676577808179120055e-01
3.935999999999999943e+01,8.264769887367290346e-01
3.939999999999999858e+01,8.796283144019998446e-01
3.943999999999999773e+01,8.708144613624813068e-01
3.947999999999999687e+01,8.504389991046441555e-01
3.952000000000000313e+01,8.101784054503290422e-01
3.956000000000000227e+01,8.119967010010914477e-01
3.960000000000000142e+01,7.916177801817625426e-01
3.964000000000000057e+01,7.670759493565756371e-01
3.967999999999999972e+01,8.105084261083611574e-01
3.971999999999999886e+01,7.674675861642892283e-01
3.975999999999999801e+01,7.748291733516644575e-01
3.979999999999999716e+01,7.197631874119617690e-01
3.984000000000000341e+01,7.229607406113667256e-01
3.988000000000000256e+01,7.062731860366090464e-01
3.992000000000000171e+01,6.872724120073185894e-01
3.996000000000000085e+01,6.715074376834379022e-01
4.000000000000000000e+01,6.229096582106047331e-01
4.003999999999999915e+01,6.404365377586447305e-01
4.007999999999999829e+01,5.654786896532989493e-01
4.011999999999999744e+01,5.598824321304536333e-01
4.015999999999999659e+01,5.334762491171504140e-01
4.020000000000000284e+01,4.844104710596772723e-01
4.024000000000000199e+01,4.889840779422947037e-01
4.028000000000000114e+01,5.074291205538130622e-01
4.032000000000000028e+01,4.384760497507924626e-01
4.035999999999999943e+01,3.894058545059201348e-01
4.039999999999999858e+01,3.486580863288131771e-01
4.043999999999999773e+01,3.310301252714817344e-01
4.047999999999999687e+01,3.254239408881459128e-01
4.052000000000000313e+01,3.429375688739887962e-01
4.056000000000000227e+01,3.336298630365462370e-01
4.060000000000000142e+01,2.998129162235368406e-01
4.064000000000000057e+01,2.641452152452284929e-01
4.067999999999999972e+01,2.918277070154000064e-01
4.071999999999999886e+01,2.404356364209101760e-01
4.075999999999999801e+01,2.630293788501815166e-01
4.079999999999999716e+01,2.467789340446895074e-01
4.084000000000000341e+01,2.074065181456508644e-01
4.088000000000000256e+01,2.170493487358954865e-01
4.092000000000000171e+01,1.929345984561189609e-01
4.096000000000000085e+01,1.831537465697751499e-01
4.100000000000000000e+01,1.812329430771182637e-01
4.103999999999999915e+01,1.104107951986877667e-01
4.107999999999999829e+01,1.602787038465739722e-01
4.111999999999999744e+01,1.629789214544490605e-01
4.115999999999999659e+01,1.319215739405128762e-01
4.120000000000000284e+01,1.669889615637986935e-01
4.124000000000000199e+01,1.525765757981616400e-01
4.128000000000000114e+01,1.612840522710347613e-01
4.132000000000000028e+01,1.635166387525033571e-01
4.135999999999999943e+01,1.574246656888551865e-01
4.139999999999999858e+01,1.087892004041415145e-01
4.143999999999999773e+01,1.179549612019988591e-01
4.147999999999999687e+01,1.035363748569329556e-01
4.152000000000000313e+01,1.353585687287565675e-01
4.156000000000000227e+01,1.056781410495825219e-01
4.160000000000000142e+01,1.032793590079627150e-01
4.164000000000000057e+01,1.392602582990800364e-01
4.167999999999999972e+01,8.923038754932496874e-02
4.171999999999999886e+01,1.127239747715677726e-01
4.175999999999999801e+01,1.126332332237988954e-01
4.179999999999999716e+01,9.358234597675393895e-02
4.184000000000000341e+01,8.840299682197480524e-02
4.188000000000000256e+01,8.969649967050923045e-02
4.192000000000000171e+01,7.434195491688938562e-02
4.196000000000000085e+01,8.025764484329449278e-02
4.200000000000000000e+01,8.386025179965390930e-02
4.203999999999999915e+01,9.439813930273655007e-02
4.207999999999999829e+01,8.782557165786854247e-02
4.211999999999999744e+01,9.373730634436784614e-02
4.215999999999999659e+01,8.623793548914659990e-02
4.220000000000000284e+01,9.908397897295372070e-02
4.224000000000000199e+01,6.060064250696588911e-02
4.228000000000000114e+01,9.332871053578228882e-02
4.232000000000000028e+01,8.443818280087836414e-02
4.235999999999999943e+01,8.941922727936191251e-02
4.239999999999999858e+01,1.054973383283143579e-01
4.243999999999999773e+01,9.429182087035652138e-02
4.247999999999999687e+01,7.013763691289467972e-02
4.252000000000000313e+01,8.158868376398631383e-02
4.256000000000000227e+01,8.425283176640799288e-02
4.260000000000000142e+01,5.963336176072595030e-02
4.264000000000000057e+01,9.281519657866478534e-02
4.267999999999999972e+01,1.135107960652115000e-01
4.271999999999999886e+01,7.871528469695289465e-02
4.275999999999999801e+01,1.003338318926099704e-01
4.279999999999999716e+01,7.894656068715655284e-02
4.284000000000000341e+01,6.911880296849377825e-02
4.288000000000000256e+01,1.078440049295943115e-01
4.292000000000000171e+01,8.414183849034682916e-02
4.296000000000000085e+01,8.540931670549339882e-02
4.300000000000000000e+01,6.355496556098319538e-02
4.303999999999999915e+01,9.117842068424962532e-02
4.307999999999999829e+01,9.614246974186625716e-02
4.311999999999999744e+01,9.139482060742931679e-02
4.315999999999999659e+01,7.924756612865760386e-02
4.320000000000000284e+01,8.790820965105919371e-02
4.324000000000000199e+01,7.390945760661753183e-02
4.328000000000000114e+01,8.996696970482032096e-02
4.332000000000000028e+01,1.083356658941660583e-01
4.335999999999999943e+01,8.647308869584467705e-02
4.339999999999999858e+01,1.039151444063406149e-01
4.343999999999999773e+01,1.037844161641387625e-01
4.347999999999999687e+01,1.129011531809373803e-01
4.352000000000000313e+01,1.136934723865093561e-01
4.356000000000000227e+01,9.367608920126491157e-02
4.360000000000000142e+01,9.446663026421048270e-02
4.364000000000000057e+01,1.234637869137019672e-01
4.367999999999999972e+01,1.099176009501228457e-01
4.371999999999999886e+01,7.787381331755083291e-02
4.375999999999999801e+01,1.027065679110397561e-01
4.379999999999999716e+01,1.053423817281121250e-01
4.384000000000000341e+01,9.549203633014062553e-02
4.388000000000000256e+01,1.059872155086674927e-01
4.392000000000000171e+01,1.076955850783809926e-01
4.396000000000000085e+01,1.306743205632029670e-01
4.400000000000000000e+01,9.353784873763891505e-02
4.403999999999999915e+01,1.391733480088370445e-01
4.407999999999999829e+01,1.265433173974661318e-01
4.411999999999999744e+01,1.393454256014407533e-01
4.415999999999999659e+01,1.373493053649680329e-01
4.420000000000000284e+01,1.284160660710071677e-01
4.424000000000000199e+01,1.879198516146116937e-01
4.428000000000000114e+01,1.563264392323151508e-01
4.432000000000000028e+01,1.427664900752181887e-01
4.435999999999999943e+01,1.588004578831073987e-01
4.439999999999999858e+01,1.822322791397216479e-01
4.443999999999999773e+01,1.723691685446648858e-01
4.447999999999999687e+01,1.856261301642515571e-01
4.452000000000000313e+01,2.007319365714277104e-01
4.456000000000000227e+01,2.001147046959665665e-01
4.460000000000000142e+01,1.934852160992404646e-01
4.464000000000000057e+01,2.081261380375512560e-01
4.467999999999999972e+01,2.218414069946378353e-01
4.471999999999999886e+01,2.249202466585308591e-01
4.475999999999999801e+01,2.196747498769488216e-01
4.479999999999999716e+01,2.153532801666611374e-01
4.484000000000000341e+01,2.323022341149187098e-01
4.488000000000000256e+01,2.210428835738605657e-01
4.492000000000000171e+01,2.685098235536250155e-01
4.496000000000000085e+01,2.359776432978979988e-01
4.500000000000000000e+01,2.519985618311226250e-01
4.503999999999999915e+01,2.638569246932142565e-01
4.507999999999999829e+01,2.382586352974309374e-01
4.511999999999999744e+01,2.635255427877210566e-01
4.515999999999999659e+01,2.402377701990581205e-01
4.520000000000000284e+01,2.830749952177837869e-01
4.524000000000000199e+01,2.787447995407699719e-01
4.528000000000000114e+01,2.489808338890775741e-01
4.532000000000000028e+01,3.024513413692039299e-01
4.535999999999999943e+01,3.166155427859536076e-01
4.539999999999999858e+01,3.219930317078513182e-01
4.543999999999999773e+01,2.977749987524465625e-01
4.547999999999999687e+01,3.211852599932066843e-01
4.552000000000000313e+01,2.923415204205017104e-01
4.556000000000000227e+01,2.745950547696972555e-01
4.560000000000000142e+01,2.966157844309050828e-01
4.564000000000000057e+01,2.811798985800610384e-01
4.567999999999999972e+01,2.675929336331550057e-01
4.571999999999999886e+01,2.549300561256814812e-01
4.575999999999999801e+01,2.579886461096508876e-01
4.579999999999999716e+01,2.684451814069035436e-01
4.584000000000000341e+01,2.608666721889552620e-01
4.588000000000000256e+01,2.856566879422765548e-01
4.592000000000000171e+01,2.568054749953392890e-01
4.596000000000000085e+01,2.561610298676445518e-01
4.600000000000000000e+01,2.471923296602264453e-01
4.603999999999999915e+01,2.530202792279559465e-01
4.607999999999999829e+01,2.144553714863013938e-01
4.611999999999999744e+01,2.406282675863634091e-01
4.615999999999999659e+01,2.237955657602546944e-01
4.620000000000000284e+01,2.388689918584257221e-01
4.624000000000000199e+01,2.322080553315850338e-01
4.628000000000000114e+01,2.371068580158784411e-01
4.632000000000000028e+01,2.082484341648755399e-01
4.635999999999999943e+01,2.237814359412502174e-01
4.639999999999999858e+01,2.050947983871286850e-01
4.643999999999999773e+01,1.771590985357952008e-01
4.647999999999999687e+01,2.084122096132529078e-01
4.652000000000000313e+01,2.105322877249564961e-01
4.656000000000000227e+01,2.121892542610175347e-01
4.660000000000000142e+01,1.662164712965925606e-01
4.664000000000000057e+01,1.674096406000769865e-01
4.667999999999999972e+01,1.903357723429866533e-01
4.671999999999999886e+01,1.758053594407896214e-01
4.675999999999999801e+01,1.843951683612310988e-01
4.679999999999999716e+01,1.791117581607419573e-01
4.684000000000000341e+01,1.622672216870406914e-01
4.688000000000000256e+01,1.481965209475339385e-01
4.692000000000000171e+01,1.595581427524894458e-01
4.696000000000000085e+01,1.598210642029412876e-01
4.700000000000000000e+01,1.133790984891302617e-01
4.703999999999999915e+01,1.215018000038997348e-01
4.707999999999999829e+01,8.523170982682673480e-02
4.711999999999999744e+01,1.049135462615478354e-01
4.715999999999999659e+01,8.020259625382950008e-02
4.720000000000000284e+01,1.077442337504816300e-01
4.724000000000000199e+01,7.887022089440978712e-02
4.728000000000000114e+01,9.577494816766414509e-02
4.732000000000000028e+01,9.002054759364511161e-02
4.735999999999999943e+01,9.767562927611841972e-02
4.739999999999999858e+01,8.868302294056595869e-02
4.743999999999999773e+01,6.674207556851603773e-02
4.747999999999999687e+01,7.855701228961263494e-02
4.752000000000000313e+01,8.204779366964912168e-02
4.756000000000000227e+01,9.848565238508308339e-02
4.760000000000000142e+01,7.006833548519278421e-02
4.764000000000000057e+01,8.511769211392668233e-02
4.767999999999999972e+01,5.808638664436001353e-02
4.771999999999999886e+01,5.371294794566852659e-02
4.775999999999999801e+01,7.847123126700120133e-02
4.779999999999999716e+01,5.698709796270785138e-02
4.784000000000000341e+01,4.336346187608640379e-02
4.788000000000000256e+01,7.736827746772946546e-02
4.792000000000000171e+01,8.778916849341750206e-02
4.796000000000000085e+01,2.098564440385913138e-02
4.800000000000000000e+01,4.250336779176856761e-02
4.803999999999999915e+01,4.274926471084478791e-02
4.807999999999999829e+01,4.484424001595868625e-02
4.811999999999999744e+01,4.925071437641547617e-02
4.815999999999999659e+01,4.625791148024553656e-02
4.820000000000000284e+01,2.569263697087622797e-02
4.824000000000000199e+01,4.073296860239859069e-02
4.828000000000000114e+01,5.346062934203656830e-02
4.832000000000000028e+01,4.630373611956312141e-02
4.835999999999999943e+01,1.371327502443922021e-02
4.839999999999999858e+01,3.383789821933910758e-02
4.843999999999999773e+01,4.563842644131712450e-02
4.847999999999999687e+01,2.136977963887187401e-02
4.852000000000000313e+01,3.039466712721310138e-02
4.856000000000000227e+01,5.329153365770011169e-02
4.860000000000000142e+01,1.792316689690623063e-02
4.864000000000000057e+01,5.977805653832555383e-02
4.867999999999999972e+01,4.752948053929773736e-02
4.871999999999999886e+01,3.851727905534455682e-02
4.875999999999999801e+01,3.089178253275418062e-02
4.879999999999999716e+01,4.638664169258719522e-02
4.884000000000000341e+01,3.413587425317297225e-02
4.888000000000000256e+01,1.032411440033160176e-02
4.892000000000000171e+01,4.801341580609987114e-02
4.896000000000000085e+01,1.726431056162779087e-02
4.900000000000000000e+01,2.027118914896545998e-02
4.903999999999999915e+01,4.639843916693670023e-02
4.907999999999999829e+01,3.368204526338928334e-02
4.911999999999999744e+01,1.680336340827898178e-02
4.915999999999999659e+01,3.553034806219857594e-02
4.920000000000000284e+01,4.639570565713151823e-02
4.924000000000000199e+01,3.876382379190157490e-02
4.928000000000000114e+01,1.725888553724422639e-02
4.932000000000000028e+01,3.413413255804373381e-02
4.935999999999999943e+01,3.528665626040571740e-02
4.939999999999999858e+01,3.227691038411640428e-02
4.943999999999999773e+01,1.955588101863690864e-02
4.947999999999999687e+01,4.522259502322830728e-03
4.952000000000000313e+01,1.492113113607940363e-02
4.956000000000000227e+01,3.503028502809282796e-02
4.960000000000000142e+01,3.248046068082783427e-02
4.964000000000000057e+01,3.594157948439618416e-02
4.967999999999999972e+01,3.061626663619099534e-02
4.971999999999999886e+01,3.916300894647988667e-02
4.975999999999999801e+01,4.447234138963931244e-02
4.979999999999999716e+01,2.619787262782186446e-02
4.984000000000000341e+01,2.734448343384412311e-02
4.988000000000000256e+01,2.294160202382496475e-02
4.992000000000000171e+01,2.593693627136088586e-02
4.996000000000000085e+01,9.972660258760446608e-03
5.000000000000000000e+01,3.100136000773511327e-02
5.003999999999999915e+01,3.954430737042415739e-02
5.007999999999999829e+01,2.219138167803112738e-02
5.011999999999999744e+01,5.570398095941974520e-02
5.015999999999999659e+01,5.915895003369917721e-02
5.020000000000000284e+01,2.839452912414050859e-02
5.024000000000000199e+01,3.832244408119400703e-02
5.028000000000000114e+01,8.944375813175425502e-03
5.032000000000000028e+01,3.135668173165377659e-02
5.035999999999999943e+01,2.694829687875485713e-02
5.039999999999999858e+01,1.745287197553945999e-02
5.043999999999999773e+01,1.026909836036354363e-02
5.047999999999999687e+01,2.851788088809810787e-02
5.052000000000000313e+01,1.023520420659097818e-02
5.056000000000000227e+01,6.749473891519653865e-03
5.060000000000000142e+01,1.528618429996552591e-02
5.064000000000000057e+01,3.769501023504390896e-02
5.067999999999999972e+01,3.143349421794482124e-02
5.071999999999999886e+01,2.655881177259006645e-02
5.075999999999999801e+01,5.359055646750489343e-02
5.079999999999999716e+01,7.559834802422002627e-03
5.084000000000000341e+01,1.609402971257807222e-02
5.088000000000000256e+01,3.757551980836969230e-02
5.092000000000000171e+01,1.928865062971252958e-02
5.096000000000000085e+01,3.845723825007394542e-02
5.100000000000000000e+01,2.386890642523388853e-02
5.103999999999999915e+01,3.193865922150729980e-02
5.107999999999999829e+01,1.226293240182674445e-02
5.111999999999999744e+01,3.929103377203899822e-02
5.115999999999999659e+01,3.163739010664979451e-02
5.120000000000000284e+01,1.658466866196052492e-02
5.124000000000000199e+01,5.517205395031996029e-02
5.128000000000000114e+01,1.376073370605101175e-02
5.132000000000000028e+01,1.766600064137302528e-02
5.135999999999999943e+01,4.053002883859492533e-02
5.139999999999999858e+01,3.749827059588942829e-02
5.143999999999999773e+01,3.400372099114479241e-02
5.147999999999999687e+01,1.987318566778816312e-02
5.152000000000000313e+01,4.782232433530714949e-02
5.156000000000000227e+01,4.386425248186156395e-02
5.160000000000000142e+01,3.481921931914962187e-02
5.164000000000000057e+01,4.704505601426591660e-02
5.167999999999999972e+01,4.169864944522762296e-02
5.171999999999999886e+01,1.831758419213317182e-02
5.175999999999999801e+01,2.083157711700576661e-02
5.179999999999999716e+01,1.039751509786277991e-02
5.184000000000000341e+01,2.030949997084967318e-02
5.188000000000000256e+01,5.010511631606451993e-02
5.192000000000000171e+01,2.903440593389094646e-02
5.196000000000000085e+01,3.894536534383018916e-02
5.200000000000000000e+01,3.498344684405538252e-02
5.203999999999999915e+01,5.136758835991861449e-02
5.207999999999999829e+01,2.937070085149157475e-02
5.211999999999999744e+01,2.725746056350276253e-02
5.215999999999999659e+01,4.687754229906713338e-02
5.220000000000000284e+01,2.950385701825642207e-02
5.224000000000000199e+01,3.756284336722946759e-02
5.228000000000000114e+01,4.885843782972541793e-02
5.232000000000000028e+01,2.500994532836466402e-02
5.235999999999999943e+01,2.890622255390963569e-02
5.239999999999999858e+01,3.650153381168588090e-02
5.243999999999999773e+01,4.964555390480850094e-02
5.247999999999999687e+01,2.579582535446763025e-02
5.252000000000000313e+01,2.599153267301218886e-02
5.256000000000000227e+01,5.023267848514348377e-02
5.260000000000000142e+01,4.071700984014002545e-02
5.264000000000000057e+01,2.010301354826952991e-02
5.267999999999999972e+01,2.769622602552129428e-02
5.271999999999999886e+01,3.158980481896347947e-02
5.275999999999999801e+01,3.640793299933153121e-02
5.279999999999999716e+01,2.319147336258853970e-02
5.284000000000000341e+01,1.968551120963887499e-02
5.288000000000000256e+01,4.022500854788944868e-02
5.292000000000000171e+01,3.255672896185935611e-02
5.296000000000000085e+01,4.541781834507635680e-03
5.300000000000000000e+01,4.588927044359299157e-02
5.303999999999999915e+01,3.405841559391983853e-02
5.307999999999999829e+01,3.794950855609416362e-02
5.311999999999999744e+01,2.473087078797736246e-02
5.315999999999999659e+01,4.295639959762662108e-02
5.320000000000000284e+01,4.314736683718120580e-02
5.324000000000000199e+01,2.437893904213610935e-02
5.328000000000000114e+01,4.630304659102984360e-02
5.332000000000000028e+01,2.892137039217820144e-02
5.335999999999999943e+01,2.078780775363835154e-02
5.339999999999999858e+01,1.820301694328486930e-02
5.343999999999999773e+01,3.873888628074826507e-02
5.347999999999999687e+01,3.152943348435755661e-02
5.352000000000000313e+01,2.940634234565485394e-02
5.356000000000000227e+01,4.670457487204687091e-02
5.360000000000000142e+01,4.134409162932697196e-02
5.364000000000000057e+01,4.338206814141710305e-02
5.367999999999999972e+01,3.016002284745293235e-02
5.371999999999999886e+01,5.670570567993914873e-02
5.375999999999999801e+01,2.914825620908993373e-02
5.379999999999999716e+01,5.985526189822975435e-02
5.384000000000000341e+01,4.524508338090197507e-02
5.388000000000000256e+01,3.248436383135340499e-02
5.392000000000000171e+01,2.943421263254339046e-02
5.396000000000000085e+01,5.597860832711927526e-02
5.400000000000000000e+01,3.998033858165431914e-02
5.403999999999999915e+01,4.340342399770403398e-02
5.407999999999999829e+01,6.069885066472936741e-02
5.411999999999999744e+01,5.024899719312739266e-02
5.415999999999999659e+01,3.424993234856222452e-02
5.420000000000000284e+01,2.611178204923369009e-02
5.424000000000000199e+01,4.664336092699607195e-02
5.428000000000000114e+01,3.757999798652392892e-02
5.432000000000000028e+01,4.932526271428828990e-02
5.435999999999999943e+01,4.026153372068610320e-02
5.439999999999999858e+01,5.015676546631015614e-02
5.443999999999999773e+01,4.525444331981495760e-02
5.447999999999999687e+01,4.405129169003749873e-02
5.452000000000000313e+01,4.331038688945604287e-02
5.456000000000000227e+01,3.748271500753129482e-02
5.460000000000000142e+01,5.153885307754796363e-02
5.464000000000000057e+01,3.831216317466235727e-02
5.467999999999999972e+01,4.589412456232810911e-02
5.471999999999999886e+01,3.081744367252873054e-02
5.475999999999999801e+01,1.851511558315215022e-02
5.479999999999999716e+01,4.505575039796404918e-02
5.484000000000000341e+01,3.737729969433108146e-02
5.488000000000000256e+01,2.368726681776160345e-02
5.492000000000000171e+01,4.282877013964161289e-02
5.496000000000000085e+01,3.838681084305958086e-02
5.500000000000000000e+01,4.550516294257467287e-02
5.503999999999999915e+01,3.366423811906512492e-02
5.507999999999999829e+01,3.939506452089989313e-02
5.511999999999999744e+01,3.032838165054366902e-02
5.515999999999999659e+01,4.993148832541668275e-02
5.520000000000000284e+01,5.519950902210536692e-02
5.524000000000000199e+01,3.827133960705385307e-02
5.528000000000000114e+01,3.752768040704505814e-02
5.532000000000000028e+01,4.603226337772964999e-02
5.535999999999999943e+01,4.621320544888068982e-02
5.539999999999999858e+01,6.257866560917933751e-02
5.543999999999999773e+01,5.813520291505640952e-02
5.547999999999999687e+01,5.091712373074550047e-02
5.552000000000000313e+01,3.398816001189747943e-02
5.556000000000000227e+01,2.815712639036671225e-02
5.560000000000000142e+01,5.145832923038654028e-02
5.564000000000000057e+01,6.181172909775062979e-02
5.567999999999999972e+01,6.892810755383192711e-02
5.571999999999999886e+01,5.801008979602333832e-02
5.575999999999999801e+01,7.021288441872816644e-02
5.579999999999999716e+01,5.883227154170601186e-02
5.584000000000000341e+01,6.733554998237699374e-02
5.588000000000000256e+01,3.884530287922604436e-02
5.592000000000000171e+01,6.029612524239154336e-02
5.596000000000000085e+01,5.030244384637928140e-02
5.600000000000000000e+01,7.822696800639868109e-02
5.603999999999999915e+01,3.863838617757931609e-02
5.607999999999999829e+01,6.008891738436459434e-02
5.611999999999999744e+01,6.581716884729359174e-02
5.615999999999999659e+01,3.177740487169213035e-02
5.620000000000000284e+01,4.212971220007830780e-02
5.624000000000000199e+01,4.323360028316067249e-02
5.628000000000000114e+01,2.861521912119356290e-02
5.632000000000000028e+01,6.440035171716311513e-02
5.635999999999999943e+01,6.041748199811050601e-02
5.639999999999999858e+01,6.013390878145560836e-02
5.643999999999999773e+01,5.707578206745277105e-02
5.647999999999999687e+01,3.875781727651236158e-02
5.652000000000000313e+01,4.587280495843377992e-02
5.656000000000000227e+01,4.975082897250890368e-02
5.660000000000000142e+01,4.715496563121579499e-02
5.664000000000000057e+01,5.288259498656428664e-02
5.667999999999999972e+01,4.288798134388003419e-02
5.671999999999999886e+01,4.445379195946445872e-02
5.675999999999999801e+01,7.006531666231081978e-02
5.679999999999999716e+01,5.174710552042272732e-02
5.684000000000000341e+01,7.412166332092166854e-02
5.688000000000000256e+01,4.840472812465925617e-02
5.692000000000000171e+01,4.534626338065505385e-02
5.696000000000000085e+01,5.338582059852618050e-02
5.700000000000000000e+01,4.755282799439154717e-02
5.703999999999999915e+01,6.946491220725738158e-02
5.707999999999999829e+01,6.594400073243596172e-02
5.711999999999999744e+01,7.675804803052026226e-02
5.715999999999999659e+01,5.797734248889035991e-02
5.720000000000000284e+01,6.462963404005063472e-02
5.724000000000000199e+01,5.417246520519126279e-02
5.728000000000000114e+01,5.712542955283759355e-02
5.732000000000000028e+01,6.146566054800303019e-02
5.735999999999999943e+01,6.164414428014867997e-02
5.739999999999999858e+01,7.384551493509486364e-02
5.743999999999999773e+01,7.864821726420083425e-02
5.747999999999999687e+01,5.108167948358540572e-02
5.752000000000000313e+01,7.391873420195660405e-02
5.756000000000000227e+01,7.594700517509431204e-02
5.760000000000000142e+01,7.705047094564596022e-02
5.764000000000000057e+01,6.335659280021162243e-02
5.767999999999999972e+01,4.688824252318117558e-02
5.771999999999999886e+01,6.371403021832001967e-02
5.775999999999999801e+01,4.493366986442551975e-02
5.779999999999999716e+01,6.083470686591411353e-02
5.784000000000000341e+01,7.118677396699270299e-02
5.788000000000000256e+01,7.506503770315620105e-02
5.792000000000000171e+01,5.397277891497102159e-02
5.796000000000000085e+01,7.958479714066339639e-02
5.800000000000000000e+01,9.409883942951192959e-02
5.803999999999999915e+01,7.670609639906578181e-02
5.807999999999999829e+01,5.931341575166040880e-02
5.811999999999999744e+01,7.244039105582093796e-02
5.815999999999999659e+01,5.042366260256796878e-02
5.820000000000000284e+01,8.482200584807399191e-02
5.824000000000000199e+01,7.529070773810549178e-02
5.828000000000000114e+01,8.795555127564856635e-02
5.832000000000000028e+01,7.287539026823934563e-02
5.835999999999999943e+01,8.692764682679568478e-02
5.839999999999999858e+01,5.936236275170123089e-02
5.843999999999999773e+01,6.786577216102657184e-02
5.847999999999999687e+01,6.897058148675520861e-02
5.852000000000000313e+01,8.348560536074095539e-02
5.856000000000000227e+01,8.875236222211969894e-02
5.860000000000000142e+01,6.951105922368144840e-02
5.864000000000000057e+01,7.570284780729331919e-02
5.867999999999999972e+01,7.079670507398953816e-02
5.871999999999999886e+01,7.837595392324467336e-02
5.875999999999999801e+01,7.439485866038406114e-02
5.879999999999999716e+01,7.457563542662466738e-02
5.884000000000000341e+01,4.839869590284455458e-02
5.888000000000000256e+01,8.094896292076858568e-02
5.892000000000000171e+01,6.725754298012949495e-02
5.896000000000000085e+01,7.668714539613713521e-02
5.900000000000000000e+01,6.345838637775806645e-02
5.903999999999999915e+01,7.797483541146260633e-02
5.907999999999999829e+01,7.769403501844113213e-02
5.911999999999999744e+01,7.833820133991062362e-02
5.915999999999999659e+01,7.759524677755542943e-02
5.920000000000000284e+01,6.621681306400974132e-02
5.924000000000000199e+01,5.345126371604302234e-02
5.928000000000000114e+01,7.490479079281729680e-02
5.932000000000000028e+01,7.231272329900793883e-02
5.935999999999999943e+01,9.515379463187881304e-02
5.939999999999999858e+01,7.637739094864068323e-02
5.943999999999999773e+01,7.794753285084879413e-02
5.947999999999999687e+01,5.778418090429676690e-02
5.952000000000000313e+01,9.727291358388233389e-02
5.956000000000000227e+01,9.375692761235512873e-02
5.960000000000000142e+01,7.498130829062030211e-02
5.964000000000000057e+01,7.516499354403000099e-02
5.967999999999999972e+01,8.968380555125184117e-02
5.971999999999999886e+01,9.957860710824886774e-02
5.975999999999999801e+01,7.802915425272631544e-02
5.979999999999999716e+01,7.867594278337865232e-02
5.984000000000000341e+01,1.052183196817345623e-01
5.988000000000000256e+01,8.320698239135070062e-02
5.992000000000000171e+01,9.772685374395161106e-02
5.996000000000000085e+01,7.987764771833437416e-02
