2.003999999999999915e+01,5.564236105753034983e-02
2.007999999999999829e+01,3.694090726932356544e-02
2.012000000000000099e+01,2.228651429482494950e-02
2.016000000000000014e+01,2.976152997113349491e-02
2.019999999999999929e+01,2.859897731422633704e-02
2.023999999999999844e+01,2.716531635146915771e-02
2.028000000000000114e+01,2.492077661798135571e-02
2.032000000000000028e+01,5.479142343792939296e-02
2.035999999999999943e+01,2.555586678901390976e-02
2.039999999999999858e+01,4.165990170586554575e-02
2.044000000000000128e+01,2.996448492317036957e-02
2.048000000000000043e+01,4.336722892952617897e-02
2.051999999999999957e+01,1.412680590946559234e-02
2.055999999999999872e+01,1.835100478592575912e-02
2.060000000000000142e+01,2.986090670725531290e-02
2.064000000000000057e+01,3.111393754155831332e-02
2.067999999999999972e+01,3.236575772364632536e-02
2.071999999999999886e+01,3.766465492100784518e-02
2.076000000000000156e+01,2.326068223442292679e-02
2.080000000000000071e+01,3.530430784018184082e-02
2.083999999999999986e+01,3.304278117204834109e-02
2.087999999999999901e+01,6.100725577135875100e-02
2.092000000000000171e+01,3.418371438313722727e-02
2.096000000000000085e+01,2.948960324779790337e-02
2.100000000000000000e+01,3.316074904833611614e-02
2.103999999999999915e+01,3.602103660011752445e-02
2.107999999999999829e+01,3.078355112595316731e-02
2.112000000000000099e+01,2.770395306065497748e-02
2.116000000000000014e+01,2.246407112444974777e-02
2.119999999999999929e+01,3.692465396931901567e-02
2.123999999999999844e+01,4.409712542613503788e-02
2.128000000000000114e+01,3.561502762773984671e-02
2.132000000000000028e+01,4.872259825817718687e-02
2.135999999999999943e+01,2.323531113176395199e-02
2.139999999999999858e+01,4.065867062128371290e-02
2.144000000000000128e+01,2.056671760413058755e-02
2.148000000000000043e+01,3.960701254822567713e-02
2.151999999999999957e+01,2.787914145816297942e-02
2.155999999999999872e+01,3.234322982770962418e-02
2.160000000000000142e+01,2.870955921266107533e-02
2.164000000000000057e+01,2.966276200025996096e-02
2.167999999999999972e+01,5.515404296455190918e-03
2.171999999999999886e+01,3.021618884424561585e-02
2.176000000000000156e+01,2.819710042588637749e-02
2.180000000000000071e+01,4.668815030763653895e-02
2.183999999999999986e+01,3.603035743101427879e-02
2.187999999999999901e+01,6.018665095680184735e-02
2.192000000000000171e+01,4.169981525980884923e-02
2.196000000000000085e+01,5.748729658044891833e-02
2.200000000000000000e+01,2.982199352103903980e-02
2.203999999999999915e+01,4.398781126925514762e-02
2.207999999999999829e+01,2.144799110993686822e-02
2.212000000000000099e+01,3.965975082848302580e-02
2.216000000000000014e+01,4.005787887416444731e-02
2.219999999999999929e+01,6.933261496825610104e-02
2.223999999999999844e+01,2.924553900365894910e-02
2.228000000000000114e+01,4.421399317943423141e-02
2.232000000000000028e+01,3.462167569045268567e-02
2.235999999999999943e+01,3.852248153823469023e-02
2.239999999999999858e+01,3.621475041094529557e-02
2.244000000000000128e+01,4.038311469582699098e-02
2.248000000000000043e+01,2.916682790110595655e-02
2.251999999999999957e+01,4.601750047814936323e-02
2.255999999999999872e+01,2.697220542638197049e-02
2.260000000000000142e+01,2.870695604929380043e-02
2.264000000000000057e+01,5.149163919948159668e-02
2.267999999999999972e+01,5.025533195083181637e-02
2.271999999999999886e+01,2.067986302357173456e-02
2.276000000000000156e+01,2.187021767362207561e-02
2.280000000000000071e+01,4.599970957880979150e-02
2.283999999999999986e+01,3.882129954828338753e-02
2.287999999999999901e+01,2.435482241396243544e-02
2.292000000000000171e+01,2.149228333041345446e-02
2.296000000000000085e+01,4.021945695995547687e-02
2.300000000000000000e+01,3.330633419653739741e-02
2.303999999999999915e+01,2.369320678211012110e-02
2.307999999999999829e+01,4.538568313080890843e-02
2.312000000000000099e+01,5.520204072396717176e-02
2.316000000000000014e+01,3.263096193227298797e-02
2.319999999999999929e+01,5.620920763109419488e-02
2.323999999999999844e+01,3.309607316317770415e-02
2.328000000000000114e+01,2.968345964173728369e-02
2.332000000000000028e+01,2.168164862256852926e-02
2.335999999999999943e+01,4.093716233986839648e-02
2.339999999999999858e+01,3.617170510020063789e-02
2.344000000000000128e+01,3.113522596299304196e-02
2.348000000000000043e+01,3.905212886047314952e-02
2.351999999999999957e+01,5.182584169797504331e-02
2.355999999999999872e+01,4.759561798372523994e-02
2.360000000000000142e+01,3.229894579265848997e-02
2.364000000000000057e+01,3.643291849651044551e-02
2.367999999999999972e+01,5.756856522295390050e-02
2.371999999999999886e+01,1.420038375941370251e-02
2.376000000000000156e+01,2.129971426771989571e-02
2.380000000000000071e+01,3.973312081659090278e-02
2.383999999999999986e+01,3.873362642200638140e-02
2.387999999999999901e+01,4.340060900585553799e-02
2.392000000000000171e+01,3.700115175371893050e-02
2.396000000000000085e+01,4.274543218003928891e-02
2.400000000000000000e+01,2.069035703605794432e-02
2.403999999999999915e+01,2.886136848772671501e-02
2.407999999999999829e+01,1.651994238659392628e-02
2.412000000000000099e+01,5.572558106821183521e-02
2.416000000000000014e+01,2.934786035101944954e-02
2.419999999999999929e+01,5.046891998940045837e-02
2.423999999999999844e+01,3.488440004585684207e-02
2.428000000000000114e+01,4.655722968117095156e-02
2.432000000000000028e+01,3.070059815950671248e-02
2.435999999999999943e+01,1.754171308010736563e-02
2.439999999999999858e+01,1.544703447033822334e-02
2.444000000000000128e+01,2.738530690771913065e-02
2.448000000000000043e+01,3.122589812798372971e-02
2.451999999999999957e+01,2.993755270865174067e-02
2.455999999999999872e+01,2.891798717967285215e-02
2.460000000000000142e+01,2.330925871628965196e-02
2.464000000000000057e+01,2.552611393325246794e-02
2.467999999999999972e+01,4.555432749288070016e-02
2.471999999999999886e+01,4.857863582376958228e-02
2.476000000000000156e+01,4.458481358823887519e-02
2.480000000000000071e+01,3.789103422626911855e-02
2.483999999999999986e+01,3.227569963285690374e-02
2.487999999999999901e+01,5.904556049721460670e-02
2.492000000000000171e+01,3.210705647439737048e-02
2.496000000000000085e+01,1.461345940771105988e-02
2.500000000000000000e+01,4.299934966372220835e-02
2.503999999999999915e+01,4.169671202468619442e-02
2.507999999999999829e+01,2.851800855519954700e-02
2.512000000000000099e+01,3.180124644705950576e-02
2.516000000000000014e+01,3.103510807095403307e-02
2.519999999999999929e+01,3.890422581412573966e-02
2.523999999999999844e+01,2.140299342264672874e-02
2.528000000000000114e+01,1.739496321551435229e-02
2.532000000000000028e+01,3.686590985504812484e-02
2.535999999999999943e+01,4.365114090738150127e-02
2.539999999999999858e+01,4.503757330991112889e-02
2.544000000000000128e+01,4.426383741264854066e-02
2.548000000000000043e+01,2.081861558628169545e-02
2.551999999999999957e+01,2.436089104950057982e-02
2.555999999999999872e+01,2.223448641083885027e-02
2.560000000000000142e+01,2.496494787760034778e-02
2.564000000000000057e+01,1.932787367776595683e-02
2.567999999999999972e+01,2.097663969599379563e-02
2.571999999999999886e+01,1.641695838777174066e-02
2.576000000000000156e+01,2.804934995006589868e-02
2.580000000000000071e+01,1.593072113411760082e-02
2.583999999999999986e+01,2.864051206864745222e-02
2.587999999999999901e+01,3.541174576963523196e-02
2.592000000000000171e+01,2.949727900487715201e-02
2.596000000000000085e+01,2.655048765903134447e-02
2.600000000000000000e+01,2.738103012967851510e-02
2.603999999999999915e+01,3.063947863446096764e-02
2.607999999999999829e+01,4.685137938068290736e-02
2.612000000000000099e+01,2.932649480727767682e-02
2.616000000000000014e+01,4.310729716499724778e-02
2.619999999999999929e+01,3.259731840052831897e-02
2.623999999999999844e+01,1.587890635096007169e-02
2.628000000000000114e+01,2.992641292784349247e-02
2.632000000000000028e+01,4.505240423712773834e-02
2.635999999999999943e+01,6.200183770484499722e-03
2.639999999999999858e+01,1.619623192758969446e-02
2.644000000000000128e+01,3.401791236971532517e-02
2.648000000000000043e+01,3.753459283259533152e-02
2.651999999999999957e+01,3.943090570347244916e-02
2.655999999999999872e+01,2.945119270774258433e-02
2.660000000000000142e+01,2.513803013750997781e-02
2.664000000000000057e+01,3.593742111011005713e-02
2.667999999999999972e+01,2.136650083179861270e-02
2.671999999999999886e+01,3.648196797111244449e-02
2.676000000000000156e+01,1.111352276015317893e-02
2.680000000000000071e+01,2.487746916425774557e-02
2.683999999999999986e+01,1.327110863786674401e-02
2.687999999999999901e+01,8.410849187669598367e-03
2.692000000000000171e+01,2.621995247081659527e-02
2.696000000000000085e+01,3.296269800587236370e-02
2.700000000000000000e+01,4.672143362992606935e-02
2.703999999999999915e+01,2.593375145926449590e-02
2.707999999999999829e+01,3.483246642716299191e-02
2.712000000000000099e+01,4.696877390947850478e-02
2.716000000000000014e+01,5.019781522416057878e-02
2.719999999999999929e+01,4.020141909143613856e-02
2.723999999999999844e+01,3.182330407848643627e-02
2.728000000000000114e+01,5.178216274215440007e-02
2.732000000000000028e+01,4.610084166408093265e-02
2.735999999999999943e+01,2.044694314670860921e-02
2.739999999999999858e+01,2.879762276860447709e-02
2.744000000000000128e+01,1.879504174636285191e-02
2.748000000000000043e+01,3.281126744138140872e-02
2.751999999999999957e+01,2.793446310748584280e-02
2.755999999999999872e+01,2.818446357659604509e-02
2.760000000000000142e+01,4.624590123595474778e-02
2.764000000000000057e+01,1.275813363514080589e-02
2.767999999999999972e+01,2.056186759161453270e-02
2.771999999999999886e+01,1.837880741193986464e-02
2.776000000000000156e+01,2.726004443062142110e-02
2.780000000000000071e+01,2.480506061090068104e-02
2.783999999999999986e+01,2.666723183743593961e-02
2.787999999999999901e+01,1.692329861328449939e-02
2.792000000000000171e+01,4.415270106716697590e-02
2.796000000000000085e+01,1.875336381173848405e-02
2.800000000000000000e+01,2.411999162722843967e-02
2.803999999999999915e+01,2.354812053478565204e-02
2.807999999999999829e+01,1.568832275205267121e-02
2.812000000000000099e+01,3.778483596307283254e-02
2.816000000000000014e+01,3.801959292942531932e-02
2.819999999999999929e+01,4.176185734549169026e-02
2.823999999999999844e+01,2.984974044442151309e-02
2.828000000000000114e+01,2.306444778822694039e-02
2.832000000000000028e+01,3.624969794408911677e-02
2.835999999999999943e+01,2.271525335094149931e-02
2.839999999999999858e+01,2.321386673522738558e-02
2.844000000000000128e+01,1.777399201261948419e-02
2.848000000000000043e+01,3.122512133251460070e-02
2.851999999999999957e+01,4.143662243064685780e-02
2.855999999999999872e+01,2.708752036022704993e-02
2.860000000000000142e+01,3.297885443508355441e-02
2.864000000000000057e+01,2.645444726374995142e-02
2.867999999999999972e+01,1.750007350854594287e-02
2.871999999999999886e+01,3.148499686385290014e-02
2.876000000000000156e+01,3.096861466634446593e-03
2.880000000000000071e+01,1.546048632462764319e-02
2.883999999999999986e+01,7.851573707165392796e-03
2.887999999999999901e+01,2.696036333552206954e-02
2.892000000000000171e+01,3.689204854832370262e-02
2.896000000000000085e+01,3.305857229330456948e-02
2.900000000000000000e+01,3.597125435998477921e-02
2.903999999999999915e+01,3.699375110871407080e-02
2.907999999999999829e+01,3.369709166716536308e-02
2.912000000000000099e+01,3.903579419507385850e-02
2.916000000000000014e+01,4.194454310035824335e-02
2.919999999999999929e+01,5.294888459032290329e-02
2.923999999999999844e+01,2.886709614630119519e-02
2.928000000000000114e+01,1.018204472224419274e-02
2.932000000000000028e+01,1.524596392773347464e-02
2.935999999999999943e+01,3.974068248299571920e-02
2.939999999999999858e+01,1.079704289520957809e-02
2.944000000000000128e+01,1.477849344201990697e-02
2.948000000000000043e+01,1.525045591706804780e-02
2.951999999999999957e+01,2.921573506747373108e-02
2.955999999999999872e+01,9.444321787185603473e-03
2.960000000000000142e+01,1.585085864960166652e-02
2.964000000000000057e+01,3.143254306780977197e-02
2.967999999999999972e+01,2.920079887268242635e-02
2.971999999999999886e+01,4.027797466969258028e-03
2.976000000000000156e+01,2.041623955643785682e-02
2.980000000000000071e+01,3.896280343731387680e-02
2.983999999999999986e+01,2.242325358576150937e-02
2.987999999999999901e+01,4.447640697228702478e-02
2.992000000000000171e+01,1.552018820954529851e-02
2.996000000000000085e+01,2.569644639007391193e-02
3.000000000000000000e+01,3.263311631268295959e-02
3.003999999999999915e+01,3.444099865003016903e-02
3.007999999999999829e+01,2.545249325988072422e-02
3.012000000000000099e+01,0.000000000000000000e+00
3.016000000000000014e+01,2.501519152858609069e-02
3.019999999999999929e+01,2.142153758549441428e-02
3.023999999999999844e+01,4.454562261175351590e-02
3.028000000000000114e+01,2.529668992943447450e-02
3.032000000000000028e+01,1.630246625464272514e-02
3.035999999999999943e+01,3.159701283708250125e-02
3.039999999999999858e+01,1.234523235353306332e-02
3.044000000000000128e+01,1.657256696994587747e-02
3.048000000000000043e+01,1.027341043239321863e-02
3.051999999999999957e+01,1.503862562036422171e-02
3.055999999999999872e+01,3.140798515894736853e-02
3.060000000000000142e+01,2.834462629163021080e-02
3.064000000000000057e+01,2.420078262799402191e-02
3.067999999999999972e+01,2.221508451805068868e-02
3.071999999999999886e+01,7.543815554826417170e-03
3.076000000000000156e+01,1.635167033239569995e-02
3.080000000000000071e+01,3.109607471886170413e-02
3.083999999999999986e+01,3.126571108491232875e-02
3.087999999999999901e+01,3.251395531520581000e-02
3.092000000000000171e+01,4.428681052707703070e-02
3.096000000000000085e+01,3.041958428665956712e-02
3.100000000000000000e+01,2.572754232556612175e-02
3.103999999999999915e+01,2.967091417891573601e-02
3.107999999999999829e+01,3.577244238699692214e-02
3.112000000000000099e+01,3.134749672277464122e-02
3.116000000000000014e+01,2.881082380099917947e-02
3.119999999999999929e+01,2.060562307198976831e-02
3.123999999999999844e+01,2.724321432526615946e-02
3.128000000000000114e+01,2.497365066160846594e-02
3.132000000000000028e+01,1.595601934105905784e-02
3.135999999999999943e+01,2.825844178292278089e-02
3.139999999999999858e+01,1.896908124102509099e-02
3.144000000000000128e+01,3.072989084925594958e-02
3.148000000000000043e+01,1.631086150156388359e-02
3.151999999999999957e+01,1.619486015190019917e-02
3.155999999999999872e+01,2.390462934055305119e-02
3.160000000000000142e+01,1.784930834824130855e-02
3.164000000000000057e+01,1.961976005445380949e-02
3.167999999999999972e+01,1.815066886710966013e-02
3.171999999999999886e+01,3.098461107831321920e-02
3.176000000000000156e+01,2.924381011149062085e-02
3.180000000000000071e+01,2.345381217394601828e-02
3.183999999999999986e+01,1.955210534061420716e-02
3.187999999999999901e+01,2.374606345892246381e-02
3.192000000000000171e+01,2.335105630183563832e-02
3.196000000000000085e+01,3.617954593395043827e-02
3.200000000000000000e+01,1.311232284176945193e-02
3.203999999999999915e+01,1.865208773105995685e-02
3.207999999999999829e+01,2.554037866020186787e-02
3.211999999999999744e+01,2.945902434942215820e-02
3.215999999999999659e+01,2.393076733900886127e-02
3.220000000000000284e+01,3.756350059325162111e-02
3.224000000000000199e+01,2.960447354591442398e-02
3.228000000000000114e+01,3.351952306614843641e-02
3.232000000000000028e+01,2.178030143984121050e-02
3.235999999999999943e+01,2.110550122383597627e-02
3.239999999999999858e+01,2.906615154580571500e-02
3.243999999999999773e+01,2.164241973403818742e-02
3.247999999999999687e+01,3.418934306513072424e-02
3.252000000000000313e+01,1.731782625309339144e-02
3.256000000000000227e+01,3.229194073378561375e-02
3.260000000000000142e+01,2.648396195130984371e-02
3.264000000000000057e+01,2.067509546767829290e-02
3.267999999999999972e+01,2.485111594521035444e-02
3.271999999999999886e+01,9.594475262347593181e-03
3.275999999999999801e+01,2.159541314036449514e-02
3.279999999999999716e+01,1.389380624570199160e-02
3.284000000000000341e+01,2.130492030997278852e-02
3.288000000000000256e+01,2.250778038638768727e-02
3.292000000000000171e+01,8.326271290311795109e-03
3.296000000000000085e+01,3.408697746277383755e-02
3.300000000000000000e+01,2.449176945852165124e-02
3.303999999999999915e+01,1.840419959655235568e-02
3.307999999999999829e+01,9.886781962139032376e-03
3.311999999999999744e+01,2.646786642960188493e-02
3.315999999999999659e+01,4.520716341719763220e-02
3.320000000000000284e+01,2.967009471856775146e-02
3.324000000000000199e+01,4.112073176957178194e-02
3.328000000000000114e+01,1.505637602465009599e-02
3.332000000000000028e+01,2.623538754427797923e-02
3.335999999999999943e+01,2.445901372498869575e-02
3.339999999999999858e+01,2.187211540904022283e-02
3.343999999999999773e+01,3.385818270859852069e-02
3.347999999999999687e+01,1.939457928493540373e-02
3.352000000000000313e+01,1.950394363698676817e-02
3.356000000000000227e+01,1.259541504547129730e-02
3.360000000000000142e+01,2.268882834230882481e-02
3.364000000000000057e+01,3.952852525289531072e-02
3.367999999999999972e+01,2.371118407345665716e-02
3.371999999999999886e+01,2.678498843012879979e-02
3.375999999999999801e+01,2.446021987870739337e-02
3.379999999999999716e+01,2.267436649412712599e-02
3.384000000000000341e+01,1.845868585907645826e-02
3.388000000000000256e+01,1.640123718602871233e-02
3.392000000000000171e+01,3.269516790462663469e-02
3.396000000000000085e+01,1.444286768648015210e-02
3.400000000000000000e+01,2.047943601501811539e-02
3.403999999999999915e+01,2.300663940363580767e-02
3.407999999999999829e+01,2.958128056222192326e-02
3.411999999999999744e+01,2.589941462878760439e-02
3.415999999999999659e+01,2.410590244559095152e-02
3.420000000000000284e+01,2.555017395519748602e-02
3.424000000000000199e+01,2.969245869272637076e-02
3.428000000000000114e+01,4.416350811695948612e-03
3.432000000000000028e+01,1.179557906544262576e-02
3.435999999999999943e+01,2.673076769228502000e-02
3.439999999999999858e+01,2.223334052309544964e-02
3.443999999999999773e+01,4.256456532671752668e-02
3.447999999999999687e+01,3.185808827734572246e-02
3.452000000000000313e+01,1.899168811176179389e-02
3.456000000000000227e+01,1.826931185216225037e-02
3.460000000000000142e+01,7.560327234281157341e-03
3.464000000000000057e+01,2.869703007453131352e-02
3.467999999999999972e+01,1.825626491732240675e-02
3.471999999999999886e+01,3.966118937845244941e-02
3.475999999999999801e+01,2.274150369002333333e-02
3.479999999999999716e+01,9.869275213432360597e-03
3.484000000000000341e+01,3.451034081783068558e-02
3.488000000000000256e+01,1.623874138061206715e-02
3.492000000000000171e+01,2.414523573991318381e-02
3.496000000000000085e+01,9.920271699713358038e-03
3.500000000000000000e+01,2.889043370104130842e-02
3.503999999999999915e+01,1.007576465852176063e-02
3.507999999999999829e+01,1.177159251059887654e-02
3.511999999999999744e+01,2.401282955775567874e-03
3.515999999999999659e+01,2.649598953538773866e-02
3.520000000000000284e+01,1.901324215889123662e-02
3.524000000000000199e+01,4.121711226214561791e-02
3.528000000000000114e+01,1.349129804002160288e-02
3.532000000000000028e+01,3.083559248991821905e-02
3.535999999999999943e+01,3.387512674362980203e-02
3.539999999999999858e+01,2.260990188126031641e-02
3.543999999999999773e+01,2.051998118974508734e-02
3.547999999999999687e+01,3.732125355891140195e-02
3.552000000000000313e+01,3.415016882996954606e-02
3.556000000000000227e+01,4.393279232708604404e-02
3.560000000000000142e+01,2.672603080150198762e-02
3.564000000000000057e+01,2.706103779455339489e-02
3.567999999999999972e+01,2.874466803680509816e-02
3.571999999999999886e+01,2.718886447599167325e-02
3.575999999999999801e+01,3.129985868446336778e-02
3.579999999999999716e+01,3.082199238761621288e-02
3.584000000000000341e+01,3.250241097786180089e-02
3.588000000000000256e+01,3.202294317542700441e-02
3.592000000000000171e+01,3.100290469536967630e-02
3.596000000000000085e+01,3.591955515760920231e-02
3.600000000000000000e+01,3.732689360501840331e-02
3.603999999999999915e+01,3.981297925007048349e-02
3.607999999999999829e+01,3.474146845311534837e-02
3.611999999999999744e+01,2.616064888164145591e-02
3.615999999999999659e+01,3.997955577501510760e-02
3.620000000000000284e+01,3.193692352460038991e-02
3.624000000000000199e+01,1.579692760760919440e-02
3.628000000000000114e+01,3.015323457054663869e-02
3.632000000000000028e+01,2.534686335493049891e-02
3.635999999999999943e+01,2.647719188264992252e-02
3.639999999999999858e+01,3.327433546131654263e-02
3.643999999999999773e+01,2.603663377909523277e-02
3.647999999999999687e+01,4.173843874753710437e-02
3.652000000000000313e+01,4.988265915511427145e-02
3.656000000000000227e+01,2.725911964759148223e-02
3.660000000000000142e+01,3.702109206827457893e-02
3.664000000000000057e+01,3.598685389849681088e-02
3.667999999999999972e+01,3.549160866303940898e-02
3.671999999999999886e+01,5.064896070157587360e-02
3.675999999999999801e+01,3.072038586565475904e-02
3.679999999999999716e+01,3.076258282381227199e-02
3.684000000000000341e+01,3.890057866649054147e-02
3.688000000000000256e+01,4.406905780160836478e-02
3.692000000000000171e+01,5.652368066397773366e-02
3.696000000000000085e+01,4.252872677216290587e-02
3.700000000000000000e+01,4.985397893740782516e-02
3.703999999999999915e+01,4.773246017569224287e-02
3.707999999999999829e+01,5.829480491148994470e-02
3.711999999999999744e+01,4.402689184847293630e-02
3.715999999999999659e+01,6.376382047006996789e-02
3.720000000000000284e+01,5.354266377570602448e-02
3.724000000000000199e+01,5.357640294684001131e-02
3.728000000000000114e+01,6.035652402117583359e-02
3.732000000000000028e+01,5.795976750177053716e-02
3.735999999999999943e+01,5.367305032602067566e-02
3.739999999999999858e+01,5.451340365883036027e-02
3.743999999999999773e+01,6.129048589778024470e-02
3.747999999999999687e+01,6.806681112814336188e-02
3.752000000000000313e+01,8.212929628731611975e-02
3.756000000000000227e+01,6.461439121650898454e-02
3.760000000000000142e+01,6.976913726678111993e-02
3.764000000000000057e+01,8.625833307355941504e-02
3.767999999999999972e+01,9.006214596513137383e-02
3.771999999999999886e+01,1.084390400433248580e-01
3.775999999999999801e+01,9.011071961470386305e-02
3.779999999999999716e+01,1.179321179145130516e-01
3.784000000000000341e+01,1.195738489949157018e-01
3.788000000000000256e+01,1.044819159732468250e-01
3.792000000000000171e+01,1.263635886555810051e-01
3.796000000000000085e+01,1.169377676814663952e-01
3.800000000000000000e+01,1.641872159635017203e-01
3.803999999999999915e+01,1.669047698971724003e-01
3.807999999999999829e+01,1.766386131086146172e-01
3.811999999999999744e+01,2.225364101071024836e-01
3.815999999999999659e+01,2.409051196645533299e-01
3.820000000000000284e+01,2.495572038455637354e-01
3.824000000000000199e+01,2.949130165989160002e-01
3.828000000000000114e+01,3.124698593790505297e-01
3.832000000000000028e+01,3.176112222981331001e-01
3.835999999999999943e+01,3.421836275903610280e-01
3.839999999999999858e+01,3.583888417691295514e-01
3.843999999999999773e+01,3.797211545391582788e-01
3.847999999999999687e+01,4.234532564200593208e-01
3.852000000000000313e+01,4.499119399355662741e-01
3.856000000000000227e+01,4.658443504780908073e-01
3.860000000000000142e+01,5.144322127265074096e-01
3.864000000000000057e+01,5.646386639243032857e-01
3.867999999999999972e+01,5.740916388702891338e-01
3.871999999999999886e+01,6.534443053664183987e-01
3.875999999999999801e+01,7.101258445279301501e-01
3.879999999999999716e+01,7.870480952612067815e-01
3.884000000000000341e+01,8.717963131117056896e-01
3.888000000000000256e+01,9.363023788203300724e-01
3.892000000000000171e+01,9.395436560483511057e-01
3.896000000000000085e+01,1.000000000000000000e+00
3.900000000000000000e+01,9.686944653396220017e-01
3.903999999999999915e+01,9.133683820428923905e-01
3.907999999999999829e+01,8.113513463005606052e-01
3.911999999999999744e+01,7.177000567811623322e-01
3.915999999999999659e+01,6.340338291997561493e-01
3.920000000000000284e+01,5.805940975733693277e-01
3.924000000000000199e+01,5.592700633895517637e-01
3.928000000000000114e+01,5.023203988328360792e-01
3.932000000000000028e+01,4.499580850846813806e-01
3.935999999999999943e+01,4.342995301517771356e-01
3.939999999999999858e+01,4.064954102931179758e-01
3.943999999999999773e+01,4.091876786425936441e-01
3.947999999999999687e+01,3.735554642947676585e-01
3.952000000000000313e+01,3.646412395003917339e-01
3.956000000000000227e+01,3.352149951534147410e-01
3.960000000000000142e+01,3.187425681229875130e-01
3.964000000000000057e+01,3.241301899814605370e-01
3.967999999999999972e+01,2.971308215379819817e-01
3.971999999999999886e+01,2.949602476410269070e-01
3.975999999999999801e+01,2.725475453644823909e-01
3.979999999999999716e+01,2.782022690645767349e-01
3.984000000000000341e+01,2.906034437945209659e-01
3.988000000000000256e+01,2.773647779353409226e-01
3.992000000000000171e+01,2.765401664885572264e-01
3.996000000000000085e+01,2.233570251361177705e-01
4.000000000000000000e+01,2.422326960770840865e-01
4.003999999999999915e+01,2.387071600192495480e-01
4.007999999999999829e+01,2.303229932547186942e-01
4.011999999999999744e+01,2.122222529587333706e-01
4.015999999999999659e+01,2.111236316881370256e-01
4.020000000000000284e+01,2.173112427133100100e-01
4.024000000000000199e+01,1.946203936003859658e-01
4.028000000000000114e+01,1.846134943932853101e-01
4.032000000000000028e+01,1.678587705526652929e-01
4.035999999999999943e+01,1.605493695081686711e-01
4.039999999999999858e+01,1.362364866356523263e-01
4.043999999999999773e+01,1.542949929635297479e-01
4.047999999999999687e+01,1.531909334436566961e-01
4.052000000000000313e+01,1.350833953360756068e-01
4.056000000000000227e+01,1.283103858325835567e-01
4.060000000000000142e+01,1.053435572190681291e-01
4.064000000000000057e+01,1.093646341744037992e-01
4.067999999999999972e+01,1.125753832119858466e-01
4.071999999999999886e+01,1.044502602847179468e-01
4.075999999999999801e+01,9.308583964747330075e-02
4.079999999999999716e+01,8.253040896774066493e-02
4.084000000000000341e+01,9.410494535251674730e-02
4.088000000000000256e+01,1.019004157226432172e-01
4.092000000000000171e+01,8.567538822130017773e-02
4.096000000000000085e+01,6.486163954803829401e-02
4.100000000000000000e+01,8.506986633416273313e-02
4.103999999999999915e+01,8.800474280143721906e-02
4.107999999999999829e+01,9.849576109925879674e-02
4.111999999999999744e+01,6.958279789406821014e-02
4.115999999999999659e+01,7.494467015637161500e-02
4.120000000000000284e+01,8.057577163224111105e-02
4.124000000000000199e+01,5.786821151759503901e-02
4.128000000000000114e+01,5.648097303112353806e-02
4.132000000000000028e+01,5.050502309366799308e-02
4.135999999999999943e+01,4.803693596010185501e-02
4.139999999999999858e+01,6.904825987496031325e-02
4.143999999999999773e+01,7.170670118203831267e-02
4.147999999999999687e+01,6.680769186113243163e-02
4.152000000000000313e+01,5.758986226225423083e-02
4.156000000000000227e+01,5.322932973024632752e-02
4.160000000000000142e+01,3.969203517561236544e-02
4.164000000000000057e+01,5.503187359987249394e-02
4.167999999999999972e+01,5.849609443679099768e-02
4.171999999999999886e+01,3.632052436936371309e-02
4.175999999999999801e+01,5.408740719332717078e-02
4.179999999999999716e+01,4.540484395567569165e-02
4.184000000000000341e+01,7.126702031977628915e-02
4.188000000000000256e+01,5.232752025299221288e-02
4.192000000000000171e+01,3.608624079407481838e-02
4.196000000000000085e+01,3.171929928786676456e-02
4.200000000000000000e+01,4.273521185687197133e-02
4.203999999999999915e+01,2.055454053257754765e-02
4.207999999999999829e+01,3.939587383047414570e-02
4.211999999999999744e+01,5.148943109952583419e-02
4.215999999999999659e+01,4.361081056771290432e-02
4.220000000000000284e+01,3.087361657470902299e-02
4.224000000000000199e+01,3.270962582006466807e-02
4.228000000000000114e+01,4.291146661656063122e-02
4.232000000000000028e+01,3.934850669993080613e-02
4.235999999999999943e+01,5.224795366941843711e-02
4.239999999999999858e+01,4.436557200118770167e-02
4.243999999999999773e+01,5.132628474432840426e-02
4.247999999999999687e+01,5.153923117955900440e-02
4.252000000000000313e+01,5.579984328667599719e-02
4.256000000000000227e+01,5.952006401341394803e-02
4.260000000000000142e+01,3.571131719064517263e-02
4.264000000000000057e+01,5.535356206395253970e-02
4.267999999999999972e+01,3.829072528322214480e-02
4.271999999999999886e+01,4.227836324191346778e-02
4.275999999999999801e+01,4.275687172332968272e-02
4.279999999999999716e+01,5.241088311471348016e-02
4.284000000000000341e+01,3.345639034724446487e-02
4.288000000000000256e+01,6.496992584127515846e-02
4.292000000000000171e+01,4.115626785992151232e-02
4.296000000000000085e+01,4.136183459602831708e-02
4.300000000000000000e+01,5.074290964262208325e-02
4.303999999999999915e+01,4.770863228042144383e-02
4.307999999999999829e+01,4.629306375913062876e-02
4.311999999999999744e+01,5.054449174623831115e-02
4.315999999999999659e+01,6.801971895163320958e-02
4.320000000000000284e+01,4.905976431683307243e-02
4.324000000000000199e+01,4.764178342040496783e-02
4.328000000000000114e+01,6.133680539002180770e-02
4.332000000000000028e+01,4.858242234197102105e-02
4.335999999999999943e+01,5.633875977001933516e-02
4.339999999999999858e+01,5.653769841506978838e-02
4.343999999999999773e+01,4.755992472227228707e-02
4.347999999999999687e+01,5.882298897339332394e-02
4.352000000000000313e+01,4.255711051739669015e-02
4.356000000000000227e+01,5.408887379531114592e-02
4.360000000000000142e+01,6.022232987068554949e-02
4.364000000000000057e+01,4.800296274399281499e-02
4.367999999999999972e+01,7.329712840124610884e-02
4.371999999999999886e+01,5.837772544476223929e-02
4.375999999999999801e+01,5.857133831557002901e-02
4.379999999999999716e+01,7.576716850121946456e-02
4.384000000000000341e+01,6.327497844064375321e-02
4.388000000000000256e+01,8.640712615708716349e-02
4.392000000000000171e+01,7.283422570271315399e-02
4.396000000000000085e+01,8.975783550821200829e-02
4.400000000000000000e+01,8.050194443030139757e-02
4.403999999999999915e+01,8.042158974557851725e-02
4.407999999999999829e+01,9.869288879888599153e-02
4.411999999999999744e+01,9.537274834146496072e-02
4.415999999999999659e+01,7.990717149065042213e-02
4.420000000000000284e+01,1.024949130101168171e-01
4.424000000000000199e+01,9.701395971935086737e-02
4.428000000000000114e+01,1.028676354823344213e-01
4.432000000000000028e+01,1.300417149613870837e-01
4.435999999999999943e+01,1.215903012407340833e-01
4.439999999999999858e+01,1.123286600519880357e-01
4.443999999999999773e+01,1.305947985869460037e-01
4.447999999999999687e+01,1.391444813217722065e-01
4.452000000000000313e+01,1.547106272310941333e-01
4.456000000000000227e+01,1.435575158334762846e-01
4.460000000000000142e+01,1.348328116381925512e-01
4.464000000000000057e+01,1.458092051648550436e-01
4.467999999999999972e+01,1.651514950488903177e-01
4.471999999999999886e+01,1.799051652907711907e-01
4.475999999999999801e+01,1.730674133035855489e-01
4.479999999999999716e+01,1.907887072636232917e-01
4.484000000000000341e+01,1.893475531072332796e-01
4.488000000000000256e+01,1.995109299786431700e-01
4.492000000000000171e+01,2.004976344760486529e-01
4.496000000000000085e+01,2.171371587488466204e-01
4.500000000000000000e+01,2.121852672732013612e-01
4.503999999999999915e+01,2.172185965108177352e-01
4.507999999999999829e+01,2.562569812936157376e-01
4.511999999999999744e+01,2.661471519384972506e-01
4.515999999999999659e+01,2.598436266051974419e-01
4.520000000000000284e+01,2.605565828081591873e-01
4.524000000000000199e+01,2.793513382996715699e-01
4.528000000000000114e+01,3.075915494400840999e-01
4.532000000000000028e+01,2.807745176838372658e-01
4.535999999999999943e+01,2.841841482186067136e-01
4.539999999999999858e+01,2.635734018535410006e-01
4.543999999999999773e+01,2.502490292778523640e-01
4.547999999999999687e+01,2.366542299418600559e-01
4.552000000000000313e+01,2.144225459784061538e-01
4.556000000000000227e+01,2.213379866165186005e-01
4.560000000000000142e+01,1.915484244481763521e-01
4.564000000000000057e+01,1.717440991946538043e-01
4.567999999999999972e+01,1.708312424283013609e-01
4.571999999999999886e+01,1.504860755353140123e-01
4.575999999999999801e+01,1.498420366071814280e-01
4.579999999999999716e+01,1.437997498822221332e-01
4.584000000000000341e+01,1.307399018055861173e-01
4.588000000000000256e+01,1.287448402143623327e-01
4.592000000000000171e+01,1.186526763417003472e-01
4.596000000000000085e+01,1.325798181942895171e-01
4.600000000000000000e+01,1.065633387715549246e-01
4.603999999999999915e+01,1.229183997637567360e-01
4.607999999999999829e+01,1.322559058849051561e-01
4.611999999999999744e+01,1.113656817807647109e-01
4.615999999999999659e+01,1.004607086327945070e-01
4.620000000000000284e+01,8.739612775894407826e-02
4.624000000000000199e+01,9.430257358368725196e-02
4.628000000000000114e+01,1.009386142502042560e-01
4.632000000000000028e+01,8.922190408161376207e-02
4.635999999999999943e+01,7.669501937002015657e-02
4.639999999999999858e+01,8.575848031238959834e-02
4.643999999999999773e+01,7.484987902500919721e-02
4.647999999999999687e+01,8.526173977930728842e-02
4.652000000000000313e+01,9.594297340098709159e-02
4.656000000000000227e+01,8.503283339827483189e-02
4.660000000000000142e+01,6.548583793090569094e-02
4.664000000000000057e+01,8.399222672015396740e-02
4.667999999999999972e+01,7.712884431042943412e-02
4.671999999999999886e+01,6.540701049125205446e-02
4.675999999999999801e+01,6.744884464469536045e-02
4.679999999999999716e+01,7.110948808870905247e-02
4.684000000000000341e+01,5.317876546905787177e-02
4.688000000000000256e+01,5.090091446978529249e-02
4.692000000000000171e+01,5.321061949881023684e-02
4.696000000000000085e+01,6.577548285857512389e-02
4.700000000000000000e+01,6.700464382979873235e-02
4.703999999999999915e+01,6.688387707480047961e-02
4.707999999999999829e+01,4.409220764679131627e-02
4.711999999999999744e+01,5.314656266932294565e-02
4.715999999999999659e+01,5.896179279849820404e-02
4.720000000000000284e+01,4.237600926746649954e-02
4.724000000000000199e+01,5.169876643245626541e-02
4.728000000000000114e+01,5.481365844698579681e-02
4.732000000000000028e+01,4.902182866623581992e-02
4.735999999999999943e+01,3.729202166772570270e-02
4.739999999999999858e+01,3.419807024614432422e-02
4.743999999999999773e+01,2.624568685697979686e-02
4.747999999999999687e+01,3.772459210464439161e-02
4.752000000000000313e+01,3.678826591514875594e-02
4.756000000000000227e+01,1.507025042133500886e-02
4.760000000000000142e+01,1.845112802700066626e-02
4.764000000000000057e+01,3.370649696012612689e-02
4.767999999999999972e+01,3.357789527909135763e-02
4.771999999999999886e+01,4.937207367310889050e-02
4.775999999999999801e+01,2.441302099889626487e-02
4.779999999999999716e+01,2.725172454960567495e-02
4.784000000000000341e+01,1.605589066903190948e-02
4.788000000000000256e+01,3.103850053863393271e-02
4.792000000000000171e+01,2.658885968731434374e-02
4.796000000000000085e+01,1.943988708970044096e-02
4.800000000000000000e+01,2.713415903789676703e-02
4.803999999999999915e+01,2.673138595016034263e-02
4.807999999999999829e+01,2.902699980628757268e-02
4.811999999999999744e+01,4.238746063364416672e-02
4.815999999999999659e+01,2.983841868088680724e-02
4.820000000000000284e+01,2.619513967962805098e-02
4.824000000000000199e+01,1.850310763034063860e-02
4.828000000000000114e+01,2.835318541251367896e-02
4.832000000000000028e+01,3.307496921689657282e-02
4.835999999999999943e+01,2.619120158377755136e-02
4.839999999999999858e+01,1.849731449295317215e-02
4.843999999999999773e+01,2.213816878668151134e-02
4.847999999999999687e+01,2.415924846543528182e-02
4.852000000000000313e+01,2.024238224944131109e-02
4.856000000000000227e+01,2.388185984341924945e-02
4.860000000000000142e+01,3.318848192002680358e-02
4.864000000000000057e+01,1.928447190269001049e-02
4.867999999999999972e+01,1.833452438548307042e-02
4.871999999999999886e+01,2.413126768118668483e-02
4.875999999999999801e+01,2.345030001778116921e-02
4.879999999999999716e+01,1.359276475044720982e-02
4.884000000000000341e+01,3.396198574316686147e-02
4.888000000000000256e+01,2.383366526527290127e-02
4.892000000000000171e+01,1.829295482087033020e-02
4.896000000000000085e+01,2.111825630495536149e-02
4.900000000000000000e+01,2.097436835295466567e-02
4.903999999999999915e+01,1.840106358995672806e-02
4.907999999999999829e+01,1.798640122843477712e-02
4.911999999999999744e+01,2.188946852843124888e-02
4.915999999999999659e+01,1.742563526291118076e-02
4.920000000000000284e+01,3.104370821622535678e-02
4.924000000000000199e+01,3.170682463186139111e-02
4.928000000000000114e+01,1.860532827244614634e-02
4.932000000000000028e+01,1.926756901229974631e-02
4.935999999999999943e+01,1.210268613214087949e-02
4.939999999999999858e+01,1.087485510918136979e-02
4.943999999999999773e+01,3.258688069054109515e-02
4.947999999999999687e+01,1.894343709798368067e-02
4.952000000000000313e+01,1.474556364533750365e-02
4.956000000000000227e+01,1.081714514796760541e-02
4.960000000000000142e+01,2.793938716788617327e-02
4.964000000000000057e+01,1.699308019159576424e-02
4.967999999999999972e+01,2.304914930541675233e-02
4.971999999999999886e+01,1.911901834022167179e-02
4.975999999999999801e+01,1.869697700073002025e-02
4.979999999999999716e+01,1.827451132464563352e-02
4.984000000000000341e+01,1.245390694222607737e-02
4.988000000000000256e+01,1.445956778569868623e-02
4.992000000000000171e+01,1.538526444292091441e-02
4.996000000000000085e+01,1.873951303639678767e-02
5.000000000000000000e+01,2.614162928118399232e-02
5.003999999999999915e+01,1.950926750040132829e-02
5.007999999999999829e+01,5.859458858952808734e-03
5.011999999999999744e+01,1.541941095608176555e-02
5.015999999999999659e+01,1.013523095047549720e-02
5.020000000000000284e+01,1.510629676402327516e-02
5.024000000000000199e+01,2.412523670950568466e-02
5.028000000000000114e+01,2.126879128997996582e-02
5.032000000000000028e+01,1.706250671275032563e-02
5.035999999999999943e+01,2.823930195244423597e-02
5.039999999999999858e+01,2.171452453163935561e-03
5.043999999999999773e+01,3.736726625470867397e-02
5.047999999999999687e+01,1.507700454056326404e-02
5.052000000000000313e+01,1.167834200615702062e-02
5.056000000000000227e+01,1.367699110697802485e-02
5.060000000000000142e+01,2.323203910306859479e-02
5.064000000000000057e+01,1.713331064019359487e-02
5.067999999999999972e+01,2.452847022762688275e-02
5.071999999999999886e+01,1.842894169624085740e-02
5.075999999999999801e+01,1.232901475075512052e-02
5.079999999999999716e+01,2.242183682081247756e-02
5.084000000000000341e+01,1.443191587999277659e-02
5.088000000000000256e+01,2.614326115732404365e-02
5.092000000000000171e+01,1.977186558398592864e-02
5.096000000000000085e+01,1.744836358445231439e-02
5.100000000000000000e+01,3.023807291101188871e-02
5.103999999999999915e+01,2.116664381232130285e-02
5.107999999999999829e+01,2.693854242743945124e-02
5.111999999999999744e+01,2.407370762963862570e-02
5.115999999999999659e+01,7.714196594161152991e-03
5.120000000000000284e+01,8.357102692742434530e-03
5.124000000000000199e+01,8.999623338470631728e-03
5.128000000000000114e+01,1.449970351631116143e-02
5.132000000000000028e+01,1.676077113159848975e-02
5.135999999999999943e+01,2.091065694179050291e-02
5.139999999999999858e+01,1.723347421726761919e-02
5.143999999999999773e+01,2.138259884268814068e-02
5.147999999999999687e+01,2.040351481852478027e-02
5.152000000000000313e+01,8.898507775035011808e-03
5.156000000000000227e+01,1.952375726389298655e-02
5.160000000000000142e+01,3.392703183572515213e-02
5.164000000000000057e+01,2.377032645894207666e-02
5.167999999999999972e+01,1.550244791789471763e-02
5.171999999999999886e+01,1.344156965256399112e-02
5.175999999999999801e+01,2.109620778545382574e-02
5.179999999999999716e+01,1.444652964485204118e-02
5.184000000000000341e+01,2.452940014747883105e-02
5.188000000000000256e+01,2.381647157922178737e-02
5.192000000000000171e+01,3.335883527458546882e-02
5.196000000000000085e+01,2.130997115958047777e-02
5.200000000000000000e+01,1.816697260594245938e-02
5.203999999999999915e+01,2.339006914879051408e-02
5.207999999999999829e+01,2.618383096853597533e-02
5.211999999999999744e+01,2.654825914528275918e-02
5.215999999999999659e+01,2.367369744165768314e-02
5.220000000000000284e+01,2.538683434004181810e-02
5.224000000000000199e+01,2.844904165063137993e-02
5.228000000000000114e+01,3.442771251867655490e-03
5.232000000000000028e+01,2.107809661684129088e-02
5.235999999999999943e+01,2.602843546473144684e-02
5.239999999999999858e+01,3.286762059022716592e-02
5.243999999999999773e+01,2.216387745398536863e-02
5.247999999999999687e+01,2.117567015783394097e-02
5.252000000000000313e+01,1.937745465467653402e-02
5.256000000000000227e+01,2.195400310031845811e-03
5.260000000000000142e+01,1.038225985034338557e-02
5.264000000000000057e+01,2.477614450876081120e-02
5.267999999999999972e+01,1.676916348120236280e-02
5.271999999999999886e+01,2.576464063165002580e-02
5.275999999999999801e+01,1.289902580131433232e-02
5.279999999999999716e+01,1.730575708168486174e-02
5.284000000000000341e+01,2.144226034086493121e-02
5.288000000000000256e+01,3.178579519877400283e-02
5.292000000000000171e+01,2.863470134357699176e-02
5.296000000000000085e+01,2.170486766510105678e-02
5.300000000000000000e+01,2.610989850301972254e-02
5.303999999999999915e+01,1.917939004808253897e-02
5.307999999999999829e+01,1.386786046002428351e-02
5.311999999999999744e+01,1.800199822122612592e-02
5.315999999999999659e+01,4.593227162560379294e-03
5.320000000000000284e+01,2.518973091016316057e-02
5.324000000000000199e+01,1.879732596087506369e-02
5.328000000000000114e+01,3.183636626347822324e-02
5.332000000000000028e+01,2.733250206662930087e-02
5.335999999999999943e+01,2.984533974723281233e-02
5.339999999999999858e+01,2.426127712582300255e-02
5.343999999999999773e+01,9.230886420042327956e-03
5.347999999999999687e+01,2.199840531393394694e-02
5.352000000000000313e+01,2.424005519369305112e-02
5.356000000000000227e+01,2.351263876920846665e-02
5.360000000000000142e+01,1.819684248562999235e-02
5.364000000000000057e+01,2.340627068263124652e-02
5.367999999999999972e+01,1.997903459336169973e-02
5.371999999999999886e+01,2.491793896494117616e-02
5.375999999999999801e+01,2.418892470787306626e-02
5.379999999999999716e+01,2.211016526213824968e-02
5.384000000000000341e+01,2.138051943276388783e-02
5.388000000000000256e+01,2.361930293480764276e-02
5.392000000000000171e+01,2.612765912345023714e-02
5.396000000000000085e+01,2.242833053898012075e-02
5.400000000000000000e+01,2.358663493368589117e-02
5.403999999999999915e+01,2.744348720773305550e-02
5.407999999999999829e+01,2.104437136159426763e-02
5.411999999999999744e+01,3.056820840712809115e-02
5.415999999999999659e+01,2.389859249785281081e-02
5.420000000000000284e+01,1.156106984107253821e-02
5.424000000000000199e+01,2.756124885092312363e-02
5.428000000000000114e+01,3.087649318867618023e-02
5.432000000000000028e+01,1.556931693960482074e-02
5.435999999999999943e+01,3.129870332239900743e-02
5.439999999999999858e+01,3.137441477599193368e-02
5.443999999999999773e+01,2.416291132774929865e-02
5.447999999999999687e+01,1.884031032251367796e-02
5.452000000000000313e+01,3.564804577731273821e-02
5.456000000000000227e+01,2.654645126861805704e-02
5.460000000000000142e+01,2.958942179794998850e-02
5.464000000000000057e+01,2.183666778356573024e-02
5.467999999999999972e+01,1.867167933763097185e-02
5.471999999999999886e+01,1.442685631791110375e-02
5.475999999999999801e+01,1.611922988931020068e-02
5.479999999999999716e+01,1.187382714227009327e-02
5.484000000000000341e+01,2.193208209381847934e-02
5.488000000000000256e+01,2.605256288713560589e-02
5.492000000000000171e+01,2.369549905734054385e-02
5.496000000000000085e+01,3.024438071659924995e-02
5.500000000000000000e+01,3.301457763787678246e-02
5.503999999999999915e+01,1.878168804915359910e-02
5.507999999999999829e+01,2.856835044936541224e-02
5.511999999999999744e+01,2.081215695479958494e-02
5.515999999999999659e+01,2.924883020709952847e-02
5.520000000000000284e+01,3.390682412193762874e-02
5.524000000000000199e+01,3.370659668944850362e-02
5.528000000000000114e+01,2.972769207970538813e-02
5.532000000000000028e+01,2.547862641521212584e-02
5.535999999999999943e+01,3.715254712561167488e-02
5.539999999999999858e+01,2.453647518965272264e-02
5.543999999999999773e+01,2.865304910627135965e-02
5.547999999999999687e+01,2.899095124615523947e-02
5.552000000000000313e+01,3.148766968423929308e-02
5.556000000000000227e+01,2.615743191841174084e-02
5.560000000000000142e+01,2.460532724594593351e-02
5.564000000000000057e+01,2.953021447186897699e-02
5.567999999999999972e+01,2.959689223160753488e-02
5.571999999999999886e+01,2.588490469523464094e-02
5.575999999999999801e+01,2.972945538753148098e-02
5.579999999999999716e+01,1.819025472675504448e-02
5.584000000000000341e+01,2.743199730697964966e-02
5.588000000000000256e+01,3.613370818141612567e-02
5.592000000000000171e+01,2.621304167318315795e-02
5.596000000000000085e+01,2.357903302164707920e-02
5.600000000000000000e+01,3.201008412180401941e-02
5.603999999999999915e+01,2.316818994206477564e-02
5.607999999999999829e+01,3.591690280142679353e-02
5.611999999999999744e+01,2.761427172620787088e-02
5.615999999999999659e+01,2.228013154832808249e-02
5.620000000000000284e+01,2.882071384013785986e-02
5.624000000000000199e+01,3.212241642217111837e-02
5.628000000000000114e+01,1.707163711496219663e-02
5.632000000000000028e+01,3.305747336470876707e-02
5.635999999999999943e+01,3.338968761034415145e-02
5.639999999999999858e+01,2.967336914914162765e-02
5.643999999999999773e+01,3.297383573339013330e-02
5.647999999999999687e+01,2.952691404608545622e-02
5.652000000000000313e+01,3.741495192431654182e-02
5.656000000000000227e+01,3.936526100867910466e-02
5.660000000000000142e+01,3.025001270192305067e-02
5.664000000000000057e+01,2.410326825375264104e-02
5.667999999999999972e+01,3.495908891387222023e-02
5.671999999999999886e+01,3.232038347075386758e-02
5.675999999999999801e+01,3.723824325890223719e-02
5.679999999999999716e+01,3.675815227878993091e-02
5.684000000000000341e+01,3.978634210276725536e-02
5.688000000000000256e+01,2.851035282644538704e-02
5.692000000000000171e+01,2.317161846685166643e-02
5.696000000000000085e+01,4.509111613098309296e-02
5.700000000000000000e+01,3.975192085549575371e-02
5.703999999999999915e+01,2.739546665741707590e-02
5.707999999999999829e+01,2.502455828386688369e-02
5.711999999999999744e+01,2.508239518516426625e-02
5.715999999999999659e+01,3.080760771132096815e-02
5.720000000000000284e+01,4.112065385247135746e-02
5.724000000000000199e+01,3.874884524921125284e-02
5.728000000000000114e+01,3.664670006127570406e-02
5.732000000000000028e+01,3.832273441116864493e-02
5.735999999999999943e+01,4.080820588157847012e-02
5.739999999999999858e+01,3.276791310793186751e-02
5.743999999999999773e+01,3.633249051470253260e-02
5.747999999999999687e+01,3.692810746740927963e-02
5.752000000000000313e+01,3.455476504615609401e-02
5.756000000000000227e+01,3.730903750581618383e-02
5.760000000000000142e+01,3.709435275172404123e-02
5.764000000000000057e+01,4.038797040379910747e-02
5.767999999999999972e+01,3.504503177999109681e-02
5.771999999999999886e+01,3.698879853745039997e-02
5.775999999999999801e+01,3.569372662908062294e-02
5.779999999999999716e+01,3.358878908741656094e-02
5.784000000000000341e+01,3.580181666991598399e-02
5.788000000000000256e+01,3.585555191686724125e-02
5.792000000000000171e+01,2.916193777600493975e-02
5.796000000000000085e+01,3.569252249186410236e-02
5.800000000000000000e+01,3.763484616005588479e-02
5.803999999999999915e+01,3.498890986068419612e-02
5.807999999999999829e+01,3.558140207613008643e-02
5.811999999999999744e+01,3.590380884409726664e-02
5.815999999999999659e+01,3.973453205958198120e-02
5.820000000000000284e+01,4.464460085025742653e-02
5.824000000000000199e+01,3.794938498908844576e-02
5.828000000000000114e+01,2.450682946104074458e-02
5.832000000000000028e+01,3.940208577021921121e-02
5.835999999999999943e+01,3.405571594811082625e-02
5.839999999999999858e+01,3.356709791660488634e-02
5.843999999999999773e+01,3.550726080337440749e-02
5.847999999999999687e+01,3.177963251375388182e-02
5.852000000000000313e+01,3.614838852495515231e-02
5.856000000000000227e+01,4.915330146206679796e-02
5.860000000000000142e+01,4.380579515596118995e-02
5.864000000000000057e+01,3.252061622138860408e-02
5.867999999999999972e+01,3.338011249543802739e-02
5.871999999999999886e+01,3.450931106855168601e-02
5.875999999999999801e+01,3.644798456581782586e-02
5.879999999999999716e+01,4.135522024727896623e-02
5.884000000000000341e+01,4.518273260565423138e-02
5.888000000000000256e+01,4.064360686375509402e-02
5.892000000000000171e+01,3.718384613891628082e-02
5.896000000000000085e+01,3.237447955881095352e-02
5.900000000000000000e+01,2.810470861098920969e-02
5.903999999999999915e+01,3.678927991020128352e-02
5.907999999999999829e+01,2.955041687987346177e-02
5.911999999999999744e+01,4.390224297654145985e-02
5.915999999999999659e+01,3.450394950160007301e-02
5.920000000000000284e+01,3.698045950413882815e-02
5.924000000000000199e+01,4.620394438690767630e-02
5.928000000000000114e+01,4.544148733548682151e-02
5.932000000000000028e+01,4.413909146721131660e-02
5.935999999999999943e+01,4.418595826963113427e-02
5.939999999999999858e+01,4.909060386525039565e-02
5.943999999999999773e+01,4.724794111700324900e-02
5.947999999999999687e+01,3.326025565514733467e-02
5.952000000000000313e+01,3.600532621646435061e-02
5.956000000000000227e+01,3.578149248911900032e-02
5.960000000000000142e+01,4.716258726780028776e-02
5.964000000000000057e+01,4.154071974842672016e-02
5.967999999999999972e+01,4.644423980531816459e-02
5.971999999999999886e+01,3.731354322177791311e-02
5.975999999999999801e+01,3.762869328474124225e-02
5.979999999999999716e+01,4.334140448692738040e-02
5.984000000000000341e+01,5.202270595600928804e-02
5.988000000000000256e+01,3.263573493547462095e-02
5.992000000000000171e+01,3.969741854887495064e-02
5.996000000000000085e+01,3.704306436234374583e-02
