2.003999999999999915e+01,6.890835404060929870e-02
2.007999999999999829e+01,7.125566353694420818e-02
2.012000000000000099e+01,5.292094568202060367e-02
2.016000000000000014e+01,7.276220132873560675e-02
2.019999999999999929e+01,4.925315130671414909e-02
2.023999999999999844e+01,6.909003896636246866e-02
2.028000000000000114e+01,1.115930294533368922e-01
2.032000000000000028e+01,3.717322353099527382e-02
2.035999999999999943e+01,5.382206400325786899e-02
2.039999999999999858e+01,7.524100155732225959e-02
2.044000000000000128e+01,4.694662116327453366e-02
2.048000000000000043e+01,4.330680163690137086e-02
2.051999999999999957e+01,6.273078869359183241e-02
2.055999999999999872e+01,3.721373523320425231e-02
2.060000000000000142e+01,4.987268199932005930e-02
2.064000000000000057e+01,6.769942960297535561e-02
2.067999999999999972e+01,3.183598205035945150e-02
2.071999999999999886e+01,6.278216286744761621e-02
2.076000000000000156e+01,7.423942274143706388e-02
2.080000000000000071e+01,6.461700738771758434e-02
2.083999999999999986e+01,8.123993148161944011e-02
2.087999999999999901e+01,8.036238781370419471e-02
2.092000000000000171e+01,7.669887841934182326e-02
2.096000000000000085e+01,8.854310794072695057e-02
2.100000000000000000e+01,6.817237738305990946e-02
2.103999999999999915e+01,4.501568838754612528e-02
2.107999999999999829e+01,9.702012237679794038e-02
2.112000000000000099e+01,6.073542940200607476e-02
2.116000000000000014e+01,9.126039152178885838e-02
2.119999999999999929e+01,9.036578406725935542e-02
2.123999999999999844e+01,5.089320425430149397e-02
2.128000000000000114e+01,4.959666596991887944e-02
2.132000000000000028e+01,6.818246943098338342e-02
2.135999999999999943e+01,5.813253728562355754e-02
2.139999999999999858e+01,7.830487038671708755e-02
2.144000000000000128e+01,7.938601302532019566e-02
2.148000000000000043e+01,6.137596763096587332e-02
2.151999999999999957e+01,8.671193766335801023e-02
2.155999999999999872e+01,9.693361630722148459e-02
2.160000000000000142e+01,6.698658774431483220e-02
2.164000000000000057e+01,5.692192036312483661e-02
2.167999999999999972e+01,6.673961659318447537e-02
2.171999999999999886e+01,7.019219308064497675e-02
2.176000000000000156e+01,4.023678811458345633e-02
2.180000000000000071e+01,5.800199654590099813e-02
2.183999999999999986e+01,1.032056726987889556e-01
2.187999999999999901e+01,6.131333558438138709e-02
2.192000000000000171e+01,2.975883637355889941e-02
2.196000000000000085e+01,5.348105467043589439e-02
2.200000000000000000e+01,3.822765759148752385e-02
2.203999999999999915e+01,7.666022616516121602e-02
2.207999999999999829e+01,5.702810365234350226e-02
2.212000000000000099e+01,6.562984422490454606e-02
2.216000000000000014e+01,9.411397756311862262e-02
2.219999999999999929e+01,7.328258903123696655e-02
2.223999999999999844e+01,7.352666565968446477e-02
2.228000000000000114e+01,9.603927741360321346e-02
2.232000000000000028e+01,9.588154954794599061e-02
2.235999999999999943e+01,7.504193038492720791e-02
2.239999999999999858e+01,7.169858349354739369e-02
2.244000000000000128e+01,6.716011991214251853e-02
2.248000000000000043e+01,8.011793346144399641e-02
2.251999999999999957e+01,4.296486621984569459e-02
2.255999999999999872e+01,4.518098578750719130e-02
2.260000000000000142e+01,6.210956552472291642e-02
2.264000000000000057e+01,5.636782507863168784e-02
2.267999999999999972e+01,8.402994105235923883e-02
2.271999999999999886e+01,8.782867416623883761e-02
2.276000000000000156e+01,9.003462084782684616e-02
2.280000000000000071e+01,1.204744719168647643e-01
2.283999999999999986e+01,9.245198888201373866e-02
2.287999999999999901e+01,9.703799605757765234e-02
2.292000000000000171e+01,6.702302470048696059e-02
2.296000000000000085e+01,6.802579169873342047e-02
2.300000000000000000e+01,5.868662491409552123e-02
2.303999999999999915e+01,6.207149913120121876e-02
2.307999999999999829e+01,8.016886267226437657e-02
2.312000000000000099e+01,5.730223297176323394e-02
2.316000000000000014e+01,6.306721870305129207e-02
2.319999999999999929e+01,7.360247158349510210e-02
2.323999999999999844e+01,8.771492650701998017e-02
2.328000000000000114e+01,4.336507405152599526e-02
2.332000000000000028e+01,8.451639927661963592e-02
2.335999999999999943e+01,8.629450255149503923e-02
2.339999999999999858e+01,3.199644080716924216e-02
2.344000000000000128e+01,2.303295699988478634e-02
2.348000000000000043e+01,6.258556698746371716e-02
2.351999999999999957e+01,6.037882967174260096e-02
2.355999999999999872e+01,8.163377276217692602e-02
2.360000000000000142e+01,5.715248162301736490e-02
2.364000000000000057e+01,5.016753807103923463e-02
2.367999999999999972e+01,6.903041728503439556e-02
2.371999999999999886e+01,5.209929902143898423e-02
2.376000000000000156e+01,4.431306288436740598e-02
2.380000000000000071e+01,9.220134519207870416e-02
2.383999999999999986e+01,7.924121906302551699e-02
2.387999999999999901e+01,4.480391560181623545e-02
2.392000000000000171e+01,7.518798898032101607e-02
2.396000000000000085e+01,8.568564659988205101e-02
2.400000000000000000e+01,5.283322935640164669e-02
2.403999999999999915e+01,1.205942223094864374e-01
2.407999999999999829e+01,7.222802558648880322e-02
2.412000000000000099e+01,3.936975971239568134e-02
2.416000000000000014e+01,4.309695357915434288e-02
2.419999999999999929e+01,5.676443465437922692e-02
2.423999999999999844e+01,9.190519154515089384e-02
2.428000000000000114e+01,4.551772944015011757e-02
2.432000000000000028e+01,5.679326325654982660e-02
2.435999999999999943e+01,8.119060742783924811e-02
2.439999999999999858e+01,7.615702228018741970e-02
2.444000000000000128e+01,6.117927999139786271e-02
2.448000000000000043e+01,6.807251727389332374e-02
2.451999999999999957e+01,7.138462913089589634e-02
2.455999999999999872e+01,5.401498331488690380e-02
2.460000000000000142e+01,8.555918849921913261e-02
2.464000000000000057e+01,8.528634387059549904e-02
2.467999999999999972e+01,6.989939735706633683e-02
2.471999999999999886e+01,6.842966142130153806e-02
2.476000000000000156e+01,7.928638177869069825e-02
2.480000000000000071e+01,1.076395201797362144e-01
2.483999999999999986e+01,5.565754113408862697e-02
2.487999999999999901e+01,8.122305095011771170e-02
2.492000000000000171e+01,8.491375742332953058e-02
2.496000000000000085e+01,8.939794615981565273e-02
2.500000000000000000e+01,8.155187669741791046e-02
2.503999999999999915e+01,8.762303724905405600e-02
2.507999999999999829e+01,1.060206735301126302e-01
2.512000000000000099e+01,4.885547951364657693e-02
2.516000000000000014e+01,6.247707533047897749e-02
2.519999999999999929e+01,5.462157398976550532e-02
2.523999999999999844e+01,5.511566631124781984e-02
2.528000000000000114e+01,7.310620583079044388e-02
2.532000000000000028e+01,6.206356108920189213e-02
2.535999999999999943e+01,8.879951651008247127e-02
2.539999999999999858e+01,5.389177988893792404e-02
2.544000000000000128e+01,6.312567514590769480e-02
2.548000000000000043e+01,7.633459767837794119e-02
2.551999999999999957e+01,8.437169880955190659e-02
2.555999999999999872e+01,5.025188736510479565e-02
2.560000000000000142e+01,1.079964189412398051e-01
2.564000000000000057e+01,9.256428687500423136e-02
2.567999999999999972e+01,5.167819502026497341e-02
2.571999999999999886e+01,8.873733222594507031e-02
2.576000000000000156e+01,4.108682690030809881e-02
2.580000000000000071e+01,5.149709656735177582e-02
2.583999999999999986e+01,5.951938851912116218e-02
2.587999999999999901e+01,6.833521861343869186e-02
2.592000000000000171e+01,7.357000831594040502e-02
2.596000000000000085e+01,6.329308470007669052e-02
2.600000000000000000e+01,3.591369348123713695e-02
2.603999999999999915e+01,7.693501047421889838e-02
2.607999999999999829e+01,4.994964987066956297e-02
2.612000000000000099e+01,1.263616500491870354e-01
2.616000000000000014e+01,6.596674960349278860e-02
2.619999999999999929e+01,7.079105365946569695e-02
2.623999999999999844e+01,8.913497143694520952e-02
2.628000000000000114e+01,7.088966886991436567e-02
2.632000000000000028e+01,4.031418827860969167e-02
2.635999999999999943e+01,4.711967940957912521e-02
2.639999999999999858e+01,4.835571341045580979e-02
2.644000000000000128e+01,6.947440013708466866e-02
2.648000000000000043e+01,5.281081113126322168e-02
2.651999999999999957e+01,7.193744685170566644e-02
2.655999999999999872e+01,7.237089226849845180e-02
2.660000000000000142e+01,9.069855423649711423e-02
2.664000000000000057e+01,5.295024797751914092e-02
2.667999999999999972e+01,3.945918998539206524e-02
2.671999999999999886e+01,7.766593600864167557e-02
2.676000000000000156e+01,7.252277480667081166e-02
2.680000000000000071e+01,9.879527437380201949e-02
2.683999999999999986e+01,7.933173650356338535e-02
2.687999999999999901e+01,6.821789190639956924e-02
2.692000000000000171e+01,1.008480799015581131e-01
2.696000000000000085e+01,7.342542732064780142e-02
2.700000000000000000e+01,6.628315065749634805e-02
2.703999999999999915e+01,8.379583330553525000e-02
2.707999999999999829e+01,8.539918148361407002e-02
2.712000000000000099e+01,4.166419840959457999e-02
2.716000000000000014e+01,4.445708675485224304e-02
2.719999999999999929e+01,4.724821506019541428e-02
2.723999999999999844e+01,7.151280139610778630e-02
2.728000000000000114e+01,6.356280908974812349e-02
2.732000000000000028e+01,5.640644238914700043e-02
2.735999999999999943e+01,6.157668990138569221e-02
2.739999999999999858e+01,4.845148730871687986e-02
2.744000000000000128e+01,6.554891682207994452e-02
2.748000000000000043e+01,5.281791491205566763e-02
2.751999999999999957e+01,3.730134814863314552e-02
2.755999999999999872e+01,7.666414984908248575e-02
2.760000000000000142e+01,7.426785205866200112e-02
2.764000000000000057e+01,3.289628145665801640e-02
2.767999999999999972e+01,6.549316717686003153e-02
2.771999999999999886e+01,6.865932522941248228e-02
2.776000000000000156e+01,1.734033979607424794e-02
2.780000000000000071e+01,6.186272279302898469e-02
2.783999999999999986e+01,6.422833169777926454e-02
2.787999999999999901e+01,4.432162786666484638e-02
2.792000000000000171e+01,6.974977408035819282e-02
2.796000000000000085e+01,4.069278895582877087e-02
2.800000000000000000e+01,5.776603709224653604e-02
2.803999999999999915e+01,8.000753552992569129e-02
2.807999999999999829e+01,6.128534198821072171e-02
2.812000000000000099e+01,7.596733528288822368e-02
2.816000000000000014e+01,5.167408734991960767e-02
2.819999999999999929e+01,8.226024675336067460e-02
2.823999999999999844e+01,5.120288661166443739e-02
2.828000000000000114e+01,5.633354727424809416e-02
2.832000000000000028e+01,8.731231252870630399e-02
2.835999999999999943e+01,6.221521402613369028e-02
2.839999999999999858e+01,6.217084661743051827e-02
2.844000000000000128e+01,8.280463176823338323e-02
2.848000000000000043e+01,5.133945223596735746e-02
2.851999999999999957e+01,3.140557901594410312e-02
2.855999999999999872e+01,7.112340514056667007e-02
2.860000000000000142e+01,2.573407205222381922e-02
2.864000000000000057e+01,7.419771252169997389e-02
2.867999999999999972e+01,5.664327920701115598e-02
2.871999999999999886e+01,6.056239381563625901e-02
2.876000000000000156e+01,3.544853310302224086e-02
2.880000000000000071e+01,5.288575163520310707e-02
2.883999999999999986e+01,2.737087845644841158e-02
2.887999999999999901e+01,4.798629198838069709e-02
2.892000000000000171e+01,4.871559102353925641e-02
2.896000000000000085e+01,3.114953470560206245e-02
2.900000000000000000e+01,5.573688060159161239e-02
2.903999999999999915e+01,8.509484835864716823e-02
2.907999999999999829e+01,6.951229308928834338e-02
2.912000000000000099e+01,4.517893246983496758e-02
2.916000000000000014e+01,5.265906514050399528e-02
2.919999999999999929e+01,5.417222156989860704e-02
2.923999999999999844e+01,5.528605268705780174e-02
2.928000000000000114e+01,4.208143967275146391e-02
2.932000000000000028e+01,5.909957295255766074e-02
2.935999999999999943e+01,4.469863228291279938e-02
2.939999999999999858e+01,5.773661851669475292e-02
2.944000000000000128e+01,5.605848115860968817e-02
2.948000000000000043e+01,5.875330320792435806e-02
2.951999999999999957e+01,1.395440171322257774e-03
2.955999999999999872e+01,5.021897110643218365e-02
2.960000000000000142e+01,7.279340199026192171e-02
2.964000000000000057e+01,5.281347893236482821e-02
2.967999999999999972e+01,5.589791882073301410e-02
2.971999999999999886e+01,4.784545473079428873e-02
2.976000000000000156e+01,4.694979130474379730e-02
2.980000000000000071e+01,3.491722875945359184e-02
2.983999999999999986e+01,6.225429519854384225e-02
2.987999999999999901e+01,6.135383270040913051e-02
2.992000000000000171e+01,5.965639701357444702e-02
2.996000000000000085e+01,6.869497674512116403e-02
3.000000000000000000e+01,4.631452139975472670e-02
3.003999999999999915e+01,4.302155908109504823e-02
3.007999999999999829e+01,5.961147057574803926e-02
3.012000000000000099e+01,6.426912403035835164e-02
3.016000000000000014e+01,4.705229241105673282e-02
3.019999999999999929e+01,6.403515232096883281e-02
3.023999999999999844e+01,3.090760033997222087e-02
3.028000000000000114e+01,5.305727120967065197e-02
3.032000000000000028e+01,5.015095329530257218e-02
3.035999999999999943e+01,2.020020313372140192e-02
3.039999999999999858e+01,6.660420957385002061e-02
3.044000000000000128e+01,3.983184391564349724e-02
3.048000000000000043e+01,6.793902407726395976e-02
3.051999999999999957e+01,4.195891756934997524e-02
3.055999999999999872e+01,5.693924049156636608e-02
3.060000000000000142e+01,4.169363231548247478e-02
3.064000000000000057e+01,4.911475621593470314e-02
3.067999999999999972e+01,3.585449416202074469e-02
3.071999999999999886e+01,3.690949629445187258e-02
3.076000000000000156e+01,3.716757625838957441e-02
3.080000000000000071e+01,7.162538419454547722e-02
3.083999999999999986e+01,1.342007457943303166e-02
3.087999999999999901e+01,1.287815932923669880e-02
3.092000000000000171e+01,4.096833084035370748e-02
3.096000000000000085e+01,4.599099833262307313e-02
3.100000000000000000e+01,6.493125783943692886e-02
3.103999999999999915e+01,4.410107268795387947e-02
3.107999999999999829e+01,2.645087658960734722e-02
3.112000000000000099e+01,6.328257600508990777e-02
3.116000000000000014e+01,4.364089255235935327e-02
3.119999999999999929e+01,2.399769201307757824e-02
3.123999999999999844e+01,4.849647563428677310e-02
3.128000000000000114e+01,4.913239631584508799e-02
3.132000000000000028e+01,6.925357694772257822e-02
3.135999999999999943e+01,7.187492635559428189e-02
3.139999999999999858e+01,6.693867643239669041e-02
3.144000000000000128e+01,6.876164003496364197e-02
3.148000000000000043e+01,4.711944202408407251e-02
3.151999999999999957e+01,6.683542093067793011e-02
3.155999999999999872e+01,5.553014869070636850e-02
3.160000000000000142e+01,2.911119487514767998e-02
3.164000000000000057e+01,4.126660101591040491e-02
3.167999999999999972e+01,3.671757372600883973e-02
3.171999999999999886e+01,7.114060043003214706e-02
3.176000000000000156e+01,6.897473963565271815e-02
3.180000000000000071e+01,3.777608816459018803e-02
3.183999999999999986e+01,2.606272822778392742e-02
3.187999999999999901e+01,5.650294543132619585e-02
3.192000000000000171e+01,7.859021653066411428e-02
3.196000000000000085e+01,8.556382792021743899e-02
3.200000000000000000e+01,3.208721567640313022e-02
3.203999999999999915e+01,6.132848650175502098e-02
3.207999999999999829e+01,5.278782172936489353e-02
3.211999999999999744e+01,1.521438571656082671e-02
3.215999999999999659e+01,3.132753002838774281e-02
3.220000000000000284e+01,3.590623181445690149e-02
3.224000000000000199e+01,6.076562778719093311e-02
3.228000000000000114e+01,5.698995141618169030e-02
3.232000000000000028e+01,4.963362337873784141e-02
3.235999999999999943e+01,3.710588939024835747e-02
3.239999999999999858e+01,6.156180480507517788e-02
3.243999999999999773e+01,6.454106280794315309e-02
3.247999999999999687e+01,4.683904418545813825e-02
3.252000000000000313e+01,4.186164236418737916e-02
3.256000000000000227e+01,2.773595495417804577e-02
3.260000000000000142e+01,4.781010484540036687e-02
3.264000000000000057e+01,3.209079904503198133e-02
3.267999999999999972e+01,2.313078208597052488e-02
3.271999999999999886e+01,1.178320529141905181e-02
3.275999999999999801e+01,4.577077251524471618e-02
3.279999999999999716e+01,3.799955608757269593e-02
3.284000000000000341e+01,7.079121839491166190e-02
3.288000000000000256e+01,2.404362994888929739e-02
3.292000000000000171e+01,4.728792430861765428e-02
3.296000000000000085e+01,4.905559284032445094e-02
3.300000000000000000e+01,4.485651593645157559e-02
3.303999999999999915e+01,5.099595234651346093e-02
3.307999999999999829e+01,4.480562132348515914e-02
3.311999999999999744e+01,6.804288904319225062e-02
3.315999999999999659e+01,6.542896211864869527e-02
3.320000000000000284e+01,3.736153215792423904e-02
3.324000000000000199e+01,4.150553247828873971e-02
3.328000000000000114e+01,5.081810136882020795e-02
3.332000000000000028e+01,4.024482301127734613e-02
3.335999999999999943e+01,4.160083411808243592e-02
3.339999999999999858e+01,4.693235354804736748e-02
3.343999999999999773e+01,5.981858633753034393e-02
3.347999999999999687e+01,5.759125173950676441e-02
3.352000000000000313e+01,4.820413575423248415e-02
3.356000000000000227e+01,6.387006427266621322e-02
3.360000000000000142e+01,7.197852708438037816e-02
3.364000000000000057e+01,3.753287890773081975e-02
3.367999999999999972e+01,7.387453805504311244e-02
3.371999999999999886e+01,3.505157843309753690e-02
3.375999999999999801e+01,7.298126867222283487e-02
3.379999999999999716e+01,7.114068189087166538e-02
3.384000000000000341e+01,8.361554879948888963e-02
3.388000000000000256e+01,6.268317040327466005e-02
3.392000000000000171e+01,6.044083151999340292e-02
3.396000000000000085e+01,3.831268426117572651e-02
3.400000000000000000e+01,5.794055372945278171e-02
3.403999999999999915e+01,4.853576857493016594e-02
3.407999999999999829e+01,3.515274947491663082e-02
3.411999999999999744e+01,1.500767460919286492e-02
3.415999999999999659e+01,6.366149032915401074e-02
3.420000000000000284e+01,3.078768957768324155e-02
3.424000000000000199e+01,2.495542052467277991e-02
3.428000000000000114e+01,5.570922588452293517e-02
3.432000000000000028e+01,2.601294852395593521e-02
3.435999999999999943e+01,4.920800675529742735e-02
3.439999999999999858e+01,5.251728333597266429e-02
3.443999999999999773e+01,4.031536165941226879e-02
3.447999999999999687e+01,5.515498625851397718e-02
3.452000000000000313e+01,0.000000000000000000e+00
3.456000000000000227e+01,4.148217112003513285e-02
3.460000000000000142e+01,5.154558655952470175e-02
3.464000000000000057e+01,7.353836920843875857e-02
3.467999999999999972e+01,8.081534653439119420e-02
3.471999999999999886e+01,2.963071132794329113e-02
3.475999999999999801e+01,3.531432779410147854e-02
3.479999999999999716e+01,4.895042940245725865e-02
3.484000000000000341e+01,5.105224883427508797e-02
3.488000000000000256e+01,7.780950376587462969e-02
3.492000000000000171e+01,4.252595570591705121e-02
3.496000000000000085e+01,4.780541514625298583e-02
3.500000000000000000e+01,5.189052077012432790e-02
3.503999999999999915e+01,4.563442390073402938e-02
3.507999999999999829e+01,5.687536946514351599e-02
3.511999999999999744e+01,3.669759093294480690e-02
3.515999999999999659e+01,5.071980519212990896e-02
3.520000000000000284e+01,2.656258417866006263e-02
3.524000000000000199e+01,3.342384738735251076e-02
3.528000000000000114e+01,5.817985435604899891e-02
3.532000000000000028e+01,3.918878484118593769e-02
3.535999999999999943e+01,4.803469340879716609e-02
3.539999999999999858e+01,5.727702916942436356e-02
3.543999999999999773e+01,5.538280837505408366e-02
3.547999999999999687e+01,5.428270881130321801e-02
3.552000000000000313e+01,4.602294933698337920e-02
3.556000000000000227e+01,4.412496445185565969e-02
3.560000000000000142e+01,5.733791851324850086e-02
3.564000000000000057e+01,6.259584159560077632e-02
3.567999999999999972e+01,5.313802009333230131e-02
3.571999999999999886e+01,3.652055082816286352e-02
3.575999999999999801e+01,5.887538093981517506e-02
3.579999999999999716e+01,6.452602786276710745e-02
3.584000000000000341e+01,3.955337277778828847e-02
3.588000000000000256e+01,4.559924078750966087e-02
3.592000000000000171e+01,6.953989142977343163e-02
3.596000000000000085e+01,4.456354514004613049e-02
3.600000000000000000e+01,6.293409376823956569e-02
3.603999999999999915e+01,6.738429803468708179e-02
3.607999999999999829e+01,5.632340365477801064e-02
3.611999999999999744e+01,7.747411448237939702e-02
3.615999999999999659e+01,9.345365016463033636e-02
3.620000000000000284e+01,6.886767624135041455e-02
3.624000000000000199e+01,7.768638234979007018e-02
3.628000000000000114e+01,7.139169113807748712e-02
3.632000000000000028e+01,8.696869863960453306e-02
3.635999999999999943e+01,5.124259843326012254e-02
3.639999999999999858e+01,6.681720101089509700e-02
3.643999999999999773e+01,8.239060477088443191e-02
3.647999999999999687e+01,5.262624578964494870e-02
3.652000000000000313e+01,7.336721852391352161e-02
3.656000000000000227e+01,4.360047405505095702e-02
3.660000000000000142e+01,7.109978219587761994e-02
3.664000000000000057e+01,6.240818841994060645e-02
3.667999999999999972e+01,9.944966593521269160e-02
3.671999999999999886e+01,8.160885500159104078e-02
3.675999999999999801e+01,8.166287772071798012e-02
3.679999999999999716e+01,6.779660223923787699e-02
3.684000000000000341e+01,9.011886748223485455e-02
3.688000000000000256e+01,9.772546102662003908e-02
3.692000000000000171e+01,6.595965623268805478e-02
3.696000000000000085e+01,5.765634573867823437e-02
3.700000000000000000e+01,7.122477525997999992e-02
3.703999999999999915e+01,6.808909690812378623e-02
3.707999999999999829e+01,1.051188656433073992e-01
3.711999999999999744e+01,8.209641090396431473e-02
3.715999999999999659e+01,8.571797604050040986e-02
3.720000000000000284e+01,1.024621314122216159e-01
3.724000000000000199e+01,1.124444205218559090e-01
3.728000000000000114e+01,8.742891412287299990e-02
3.732000000000000028e+01,1.260425309217624024e-01
3.735999999999999943e+01,9.665015525260454987e-02
3.739999999999999858e+01,1.205469889984471105e-01
3.743999999999999773e+01,1.257512932737877287e-01
3.747999999999999687e+01,1.369197995773988319e-01
3.752000000000000313e+01,9.042224177303605226e-02
3.756000000000000227e+01,1.250521455993362507e-01
3.760000000000000142e+01,1.171281789611021279e-01
3.764000000000000057e+01,1.493696934233787188e-01
3.767999999999999972e+01,1.557602877787049311e-01
3.771999999999999886e+01,1.442537480273367312e-01
3.775999999999999801e+01,1.327460896329326900e-01
3.779999999999999716e+01,1.474848008084100881e-01
3.784000000000000341e+01,1.685854250564966517e-01
3.788000000000000256e+01,1.650282088809093550e-01
3.792000000000000171e+01,1.642537080301736119e-01
3.796000000000000085e+01,2.012585726450010493e-01
3.800000000000000000e+01,1.973003478047748449e-01
3.803999999999999915e+01,1.830011026863093138e-01
3.807999999999999829e+01,2.204003515707717020e-01
3.811999999999999744e+01,2.271764369307204545e-01
3.815999999999999659e+01,2.232138201224945495e-01
3.820000000000000284e+01,2.176593546819584890e-01
3.824000000000000199e+01,2.538611634990819432e-01
3.828000000000000114e+01,2.590421293312901163e-01
3.832000000000000028e+01,3.198984955289891352e-01
3.835999999999999943e+01,3.139419975325898893e-01
3.839999999999999858e+01,2.690108802691539847e-01
3.843999999999999773e+01,3.254894261914627052e-01
3.847999999999999687e+01,3.342441957780076245e-01
3.852000000000000313e+01,3.688476894875029055e-01
3.856000000000000227e+01,3.740211139329627232e-01
3.860000000000000142e+01,4.066340240745848211e-01
3.864000000000000057e+01,4.237359910600027035e-01
3.867999999999999972e+01,4.273154632114304907e-01
3.871999999999999886e+01,4.555506040978686277e-01
3.875999999999999801e+01,5.124183079342118363e-01
3.879999999999999716e+01,5.072454444437604071e-01
3.884000000000000341e+01,5.593387696168812262e-01
3.888000000000000256e+01,5.692759912490797936e-01
3.892000000000000171e+01,6.412516765463517343e-01
3.896000000000000085e+01,6.301092777725492144e-01
3.900000000000000000e+01,6.249311733492952659e-01
3.903999999999999915e+01,6.782123372728900979e-01
3.907999999999999829e+01,7.370601112275647626e-01
3.911999999999999744e+01,7.457980126477968819e-01
3.915999999999999659e+01,8.062344736683650925e-01
3.920000000000000284e+01,8.010511890506495369e-01
3.924000000000000199e+01,8.495549147850177674e-01
3.928000000000000114e+01,8.292573863118807287e-01
3.932000000000000028e+01,8.666237648352556056e-01
3.935999999999999943e+01,8.781393252920930426e-01
3.939999999999999858e+01,9.159013525001569178e-01
3.943999999999999773e+01,9.162795803232028913e-01
3.947999999999999687e+01,9.281897801507066337e-01
3.952000000000000313e+01,9.373151439849014555e-01
3.956000000000000227e+01,9.102497832582875370e-01
3.960000000000000142e+01,9.432344816061380977e-01
3.964000000000000057e+01,9.153717311830081860e-01
3.967999999999999972e+01,9.626712334777821622e-01
3.971999999999999886e+01,9.594632105025819868e-01
3.975999999999999801e+01,1.000000000000000000e+00
3.979999999999999716e+01,9.637817833031276926e-01
3.984000000000000341e+01,9.208018582638547445e-01
3.988000000000000256e+01,9.040684291302115705e-01
3.992000000000000171e+01,8.634726618361819872e-01
3.996000000000000085e+01,8.817339079468110574e-01
4.000000000000000000e+01,8.502830241512737697e-01
4.003999999999999915e+01,7.671315669864230413e-01
4.007999999999999829e+01,7.436325088719039078e-01
4.011999999999999744e+01,7.169509620285442475e-01
4.015999999999999659e+01,6.616348214595667576e-01
4.020000000000000284e+01,6.186460749837244810e-01
4.024000000000000199e+01,6.054830488861399074e-01
4.028000000000000114e+01,5.907283004919940961e-01
4.032000000000000028e+01,5.469412789118284213e-01
4.035999999999999943e+01,5.675789435311633380e-01
4.039999999999999858e+01,4.760673015094985527e-01
4.043999999999999773e+01,4.811931740078265185e-01
4.047999999999999687e+01,4.266647162909886770e-01
4.052000000000000313e+01,4.138926713152275561e-01
4.056000000000000227e+01,3.943589617286707982e-01
4.060000000000000142e+01,3.784035086027912609e-01
4.064000000000000057e+01,3.326204233700887913e-01
4.067999999999999972e+01,3.202422878473391576e-01
4.071999999999999886e+01,3.492228880347982289e-01
4.075999999999999801e+01,2.934947567660518009e-01
4.079999999999999716e+01,2.831022578519424293e-01
4.084000000000000341e+01,2.663458005123091055e-01
4.088000000000000256e+01,2.424300088196132130e-01
4.092000000000000171e+01,2.515214922355357152e-01
4.096000000000000085e+01,2.120939715897073308e-01
4.100000000000000000e+01,2.279443249095867707e-01
4.103999999999999915e+01,2.147624487750520728e-01
4.107999999999999829e+01,1.995912097560924026e-01
4.111999999999999744e+01,1.748745158900552599e-01
4.115999999999999659e+01,1.764043956747245179e-01
4.120000000000000284e+01,1.699795821855280553e-01
4.124000000000000199e+01,1.599746588158965921e-01
4.128000000000000114e+01,1.734324921358196547e-01
4.132000000000000028e+01,1.626303831504972153e-01
4.135999999999999943e+01,1.601788469294241624e-01
4.139999999999999858e+01,1.442049810826478984e-01
4.143999999999999773e+01,1.377747603947966915e-01
4.147999999999999687e+01,1.416835656524763620e-01
4.152000000000000313e+01,1.269000892520843748e-01
4.156000000000000227e+01,1.097295899431346700e-01
4.160000000000000142e+01,1.347132581512058835e-01
4.164000000000000057e+01,1.374254493829812629e-01
4.167999999999999972e+01,1.337737332094388054e-01
4.171999999999999886e+01,1.348934090591235313e-01
4.175999999999999801e+01,1.157300611137938584e-01
4.179999999999999716e+01,1.172456771922029822e-01
4.184000000000000341e+01,9.450138254930381954e-02
4.188000000000000256e+01,9.124298925360245505e-02
4.192000000000000171e+01,9.832364862830193786e-02
4.196000000000000085e+01,1.205156332453690693e-01
4.200000000000000000e+01,1.037332172534264213e-01
4.203999999999999915e+01,8.734763175708258609e-02
4.207999999999999829e+01,8.845951386292412455e-02
4.211999999999999744e+01,7.167452911077057398e-02
4.215999999999999659e+01,1.014183268530058912e-01
4.220000000000000284e+01,1.112768167036329719e-01
4.224000000000000199e+01,1.195437033048463299e-01
4.228000000000000114e+01,7.889397684038255976e-02
4.232000000000000028e+01,9.073838026648380073e-02
4.235999999999999943e+01,1.029796336244529348e-01
4.239999999999999858e+01,9.294945616726525695e-02
4.243999999999999773e+01,9.445143050002381691e-02
4.247999999999999687e+01,1.070878698737262602e-01
4.252000000000000313e+01,1.034182233989145161e-01
4.256000000000000227e+01,7.111412897050255200e-02
4.260000000000000142e+01,1.072117485808356252e-01
4.264000000000000057e+01,7.530369642156065080e-02
4.267999999999999972e+01,8.395912066256999706e-02
4.271999999999999886e+01,9.499986259393053412e-02
4.275999999999999801e+01,7.700847954082305769e-02
4.279999999999999716e+01,1.071366745687868244e-01
4.284000000000000341e+01,1.026651009718443086e-01
4.288000000000000256e+01,1.121118409609346972e-01
4.292000000000000171e+01,1.000825600758775968e-01
4.296000000000000085e+01,1.051531110642097838e-01
4.300000000000000000e+01,1.118136183925561439e-01
4.303999999999999915e+01,8.586281513634491658e-02
4.307999999999999829e+01,1.072362286108682894e-01
4.311999999999999744e+01,8.804455278917894256e-02
4.315999999999999659e+01,9.350881538073298194e-02
4.320000000000000284e+01,7.232711478390560500e-02
4.324000000000000199e+01,7.699442499499721537e-02
4.328000000000000114e+01,9.438700555184972862e-02
4.332000000000000028e+01,9.547354885086065113e-02
4.335999999999999943e+01,6.752800360840796601e-02
4.339999999999999858e+01,9.724661317489778634e-02
4.343999999999999773e+01,8.679784205998006263e-02
4.347999999999999687e+01,1.041865422228637206e-01
4.352000000000000313e+01,6.828412367171542152e-02
4.356000000000000227e+01,1.031696125393359170e-01
4.360000000000000142e+01,1.122045408709835962e-01
4.364000000000000057e+01,9.936580288155300034e-02
4.367999999999999972e+01,1.000477378902918379e-01
4.371999999999999886e+01,1.114665240769810439e-01
4.375999999999999801e+01,8.072950312585117083e-02
4.379999999999999716e+01,1.052705262077835158e-01
4.384000000000000341e+01,9.998411154558352332e-02
4.388000000000000256e+01,1.133883413501906579e-01
4.392000000000000171e+01,9.736282744826892099e-02
4.396000000000000085e+01,8.849497669467427940e-02
4.400000000000000000e+01,1.114415205881792575e-01
4.403999999999999915e+01,1.089352198491174706e-01
4.407999999999999829e+01,1.402317645089031228e-01
4.411999999999999744e+01,1.162487810049807752e-01
4.415999999999999659e+01,1.352154988653037071e-01
4.420000000000000284e+01,1.156056389195026929e-01
4.424000000000000199e+01,1.643975926233254836e-01
4.428000000000000114e+01,1.324579204552634726e-01
4.432000000000000028e+01,1.323326623705702310e-01
4.435999999999999943e+01,1.361835783012515233e-01
4.439999999999999858e+01,1.471921841051298807e-01
4.443999999999999773e+01,1.295664561434887729e-01
4.447999999999999687e+01,1.330175441628758670e-01
4.452000000000000313e+01,1.587385181284330649e-01
4.456000000000000227e+01,1.343499499761217630e-01
4.460000000000000142e+01,1.477411505919562218e-01
4.464000000000000057e+01,1.420425698748060128e-01
4.467999999999999972e+01,1.586138848219607600e-01
4.471999999999999886e+01,1.477439505459394731e-01
4.475999999999999801e+01,1.663023220069404506e-01
4.479999999999999716e+01,1.892345833867218052e-01
4.484000000000000341e+01,1.692157248690201732e-01
4.488000000000000256e+01,1.639106797711050723e-01
4.492000000000000171e+01,1.725240721654383025e-01
4.496000000000000085e+01,1.600592567703752467e-01
4.500000000000000000e+01,1.682735997617416102e-01
4.503999999999999915e+01,1.737034420354402753e-01
4.507999999999999829e+01,2.037893393399966835e-01
4.511999999999999744e+01,2.096155251450024515e-01
4.515999999999999659e+01,2.094757040926526759e-01
4.520000000000000284e+01,2.077444595763779933e-01
4.524000000000000199e+01,2.282831447378789735e-01
4.528000000000000114e+01,2.094499393335916559e-01
4.532000000000000028e+01,1.973767905032387804e-01
4.535999999999999943e+01,2.310372401728929825e-01
4.539999999999999858e+01,2.269165632795042131e-01
4.543999999999999773e+01,2.319420853198675414e-01
4.547999999999999687e+01,2.365692684386497546e-01
4.552000000000000313e+01,2.499449661717151050e-01
4.556000000000000227e+01,2.326979522735221351e-01
4.560000000000000142e+01,2.647637540593630878e-01
4.564000000000000057e+01,2.602415113949712588e-01
4.567999999999999972e+01,2.740123333478637901e-01
4.571999999999999886e+01,2.726703313505408621e-01
4.575999999999999801e+01,2.546247511183916123e-01
4.579999999999999716e+01,2.644167830769945104e-01
4.584000000000000341e+01,2.722197412656743865e-01
4.588000000000000256e+01,2.927481277198013543e-01
4.592000000000000171e+01,3.092989993703920693e-01
4.596000000000000085e+01,2.562536441885217564e-01
4.600000000000000000e+01,2.895062225898802355e-01
4.603999999999999915e+01,2.810008215153725897e-01
4.607999999999999829e+01,2.613595101418134115e-01
4.611999999999999744e+01,2.926218027503698638e-01
4.615999999999999659e+01,3.071805414194362371e-01
4.620000000000000284e+01,2.911166073297823953e-01
4.624000000000000199e+01,2.643144618377475386e-01
4.628000000000000114e+01,2.800644572967044277e-01
4.632000000000000028e+01,3.021768808894004232e-01
4.635999999999999943e+01,2.785544526571382407e-01
4.639999999999999858e+01,2.628852141318271385e-01
4.643999999999999773e+01,2.456246274581336542e-01
4.647999999999999687e+01,2.478502215280054821e-01
4.652000000000000313e+01,2.556428775222124306e-01
4.656000000000000227e+01,2.439481796225128063e-01
4.660000000000000142e+01,2.262875623286683124e-01
4.664000000000000057e+01,2.181709060331208094e-01
4.667999999999999972e+01,2.267566183790540868e-01
4.671999999999999886e+01,2.484654991891767639e-01
4.675999999999999801e+01,1.934197965438607947e-01
4.679999999999999716e+01,2.055829955027128897e-01
4.684000000000000341e+01,1.978611683958576839e-01
4.688000000000000256e+01,1.897410874010986293e-01
4.692000000000000171e+01,1.844042683762581181e-01
4.696000000000000085e+01,1.647500790738169463e-01
4.700000000000000000e+01,1.796942908832505625e-01
4.703999999999999915e+01,1.461198679200451933e-01
4.707999999999999829e+01,1.519161210702151543e-01
4.711999999999999744e+01,1.561210673740746901e-01
4.715999999999999659e+01,1.639046685821267113e-01
4.720000000000000284e+01,1.176019962361686266e-01
4.724000000000000199e+01,1.452689682543623628e-01
4.728000000000000114e+01,1.252126984341909444e-01
4.732000000000000028e+01,1.306079980558328968e-01
4.735999999999999943e+01,1.208905733381381714e-01
4.739999999999999858e+01,1.286709393506018928e-01
4.743999999999999773e+01,1.217362750613323469e-01
4.747999999999999687e+01,9.491662357889367463e-02
4.752000000000000313e+01,9.275317532886437344e-02
4.756000000000000227e+01,1.013268114920139601e-01
4.760000000000000142e+01,1.091045483203288008e-01
4.764000000000000057e+01,9.620192931653685775e-02
4.767999999999999972e+01,9.801329379988588109e-02
4.771999999999999886e+01,8.948422595213444131e-02
4.775999999999999801e+01,9.208994384376600895e-02
4.779999999999999716e+01,1.010581797618812366e-01
4.784000000000000341e+01,8.855069363848555586e-02
4.788000000000000256e+01,8.001959532942393150e-02
4.792000000000000171e+01,5.717118505156881109e-02
4.796000000000000085e+01,6.136513980220950626e-02
4.800000000000000000e+01,6.714935458456847139e-02
4.803999999999999915e+01,6.855849415013766379e-02
4.807999999999999829e+01,6.519487174991453471e-02
4.811999999999999744e+01,5.308159802807172617e-02
4.815999999999999659e+01,4.414935077022601184e-02
4.820000000000000284e+01,7.419015847416138287e-02
4.824000000000000199e+01,6.048467443390002918e-02
4.828000000000000114e+01,5.711862935988674256e-02
4.832000000000000028e+01,5.772899882507748909e-02
4.835999999999999943e+01,6.152040690193352757e-02
4.839999999999999858e+01,5.497142394976087254e-02
4.843999999999999773e+01,4.245663336199024390e-02
4.847999999999999687e+01,3.511133456716645368e-02
4.852000000000000313e+01,5.281998892162878545e-02
4.856000000000000227e+01,3.513384371742176576e-02
4.860000000000000142e+01,4.608085912839305492e-02
4.864000000000000057e+01,4.867594398021796165e-02
4.867999999999999972e+01,4.689599248779110358e-02
4.871999999999999886e+01,5.108092572258517844e-02
4.875999999999999801e+01,5.327696254341154208e-02
4.879999999999999716e+01,3.002044384617299708e-02
4.884000000000000341e+01,3.857861376960362854e-02
4.888000000000000256e+01,5.946470499496737255e-02
4.892000000000000171e+01,5.012597784843397103e-02
4.896000000000000085e+01,2.806075861512591016e-02
4.900000000000000000e+01,3.701485936354912548e-02
4.903999999999999915e+01,5.431999934667904040e-02
4.907999999999999829e+01,4.179801985458224400e-02
4.911999999999999744e+01,3.205943595675378455e-02
4.915999999999999659e+01,2.112735829736616874e-02
4.920000000000000284e+01,5.990600415857523509e-02
4.924000000000000199e+01,5.016614887149509205e-02
4.928000000000000114e+01,3.008595600512592103e-02
4.932000000000000028e+01,4.022972419968497138e-02
4.935999999999999943e+01,2.531866006818628625e-02
4.939999999999999858e+01,2.909857567913566589e-02
4.943999999999999773e+01,3.526421714208630154e-02
4.947999999999999687e+01,4.819016785046895818e-02
4.952000000000000313e+01,2.890289073727843328e-02
4.956000000000000227e+01,3.029504897735116678e-02
4.960000000000000142e+01,4.321979389389007942e-02
4.964000000000000057e+01,2.870358841989010742e-02
4.967999999999999972e+01,4.759287930090977392e-02
4.971999999999999886e+01,4.182504890021046529e-02
4.975999999999999801e+01,2.730766678877028994e-02
4.979999999999999716e+01,4.619578832095065646e-02
4.984000000000000341e+01,2.929149886100186617e-02
4.988000000000000256e+01,3.425973172619367624e-02
4.992000000000000171e+01,4.598830056168752567e-02
4.996000000000000085e+01,5.175115408386141147e-02
5.000000000000000000e+01,5.910438911443512133e-02
5.003999999999999915e+01,4.100514394248671451e-02
5.007999999999999829e+01,3.006393363751083334e-02
5.011999999999999744e+01,5.093748969828025552e-02
5.015999999999999659e+01,3.403020831050890954e-02
5.020000000000000284e+01,3.501857689878616620e-02
5.024000000000000199e+01,5.668642214239841270e-02
5.028000000000000114e+01,3.778961297631796418e-02
5.032000000000000028e+01,2.923236668270086380e-02
5.035999999999999943e+01,3.538926665497800494e-02
5.039999999999999858e+01,3.637585639587730124e-02
5.043999999999999773e+01,3.537365176322138788e-02
5.047999999999999687e+01,3.874568204312163477e-02
5.052000000000000313e+01,4.808270637925618485e-02
5.056000000000000227e+01,3.554648470363073326e-02
5.060000000000000142e+01,4.607589662035960210e-02
5.064000000000000057e+01,3.831126999122081572e-02
5.067999999999999972e+01,2.617172849451177008e-02
5.071999999999999886e+01,3.988165212851094849e-02
5.075999999999999801e+01,4.205826054035720352e-02
5.079999999999999716e+01,1.679398901813958581e-02
5.084000000000000341e+01,3.766133802057276131e-02
5.088000000000000256e+01,3.784852798312322852e-02
5.092000000000000171e+01,6.030599261722491972e-02
5.096000000000000085e+01,3.424506057298346701e-02
5.100000000000000000e+01,4.238508341544374586e-02
5.103999999999999915e+01,3.024264611469210801e-02
5.107999999999999829e+01,6.264108720164851540e-02
5.111999999999999744e+01,4.811189804254063784e-02
5.115999999999999659e+01,3.755929591952458790e-02
5.120000000000000284e+01,3.138097244067003522e-02
5.124000000000000199e+01,2.878155167843843287e-02
5.128000000000000114e+01,3.572637374040522201e-02
5.132000000000000028e+01,5.340850859171216575e-02
5.135999999999999943e+01,3.211681134487888445e-02
5.139999999999999858e+01,4.343533656593930037e-02
5.143999999999999773e+01,3.765293936741295061e-02
5.147999999999999687e+01,3.624483781978362490e-02
5.152000000000000313e+01,4.080179106672928574e-02
5.156000000000000227e+01,5.967527428704199471e-02
5.160000000000000142e+01,3.997262916495243623e-02
5.164000000000000057e+01,2.225815434067762374e-02
5.167999999999999972e+01,5.067535106125979627e-02
5.171999999999999886e+01,4.528869687047398784e-02
5.175999999999999801e+01,4.069715273049544918e-02
5.179999999999999716e+01,5.241059903376631829e-02
5.184000000000000341e+01,4.225087707035344448e-02
5.188000000000000256e+01,4.322619108828767293e-02
5.192000000000000171e+01,3.067981444786369721e-02
5.196000000000000085e+01,3.523381632589594331e-02
5.200000000000000000e+01,3.899218611779297489e-02
5.203999999999999915e+01,3.837572364626320315e-02
5.207999999999999829e+01,2.781678284133482990e-02
5.211999999999999744e+01,2.799520341641936749e-02
5.215999999999999659e+01,3.891098780105033822e-02
5.220000000000000284e+01,3.272589592723356561e-02
5.224000000000000199e+01,5.199267232786678600e-02
5.228000000000000114e+01,3.586487511645831960e-02
5.232000000000000028e+01,4.439357268149468627e-02
5.235999999999999943e+01,5.451279509741516899e-02
5.239999999999999858e+01,4.991728847377282369e-02
5.243999999999999773e+01,5.327533841665951092e-02
5.247999999999999687e+01,4.669093432148388456e-02
5.252000000000000313e+01,4.686702411629638243e-02
5.256000000000000227e+01,4.744058337405266529e-02
5.260000000000000142e+01,2.693639888333637308e-02
5.264000000000000057e+01,4.063326889020084376e-02
5.267999999999999972e+01,5.870450743397122306e-02
5.271999999999999886e+01,2.467825359205306004e-02
5.275999999999999801e+01,2.644381825046101739e-02
5.279999999999999716e+01,3.337913709144808144e-02
5.284000000000000341e+01,4.309807747333096323e-02
5.288000000000000256e+01,5.162375004028235681e-02
5.292000000000000171e+01,4.623010350868033552e-02
5.296000000000000085e+01,4.202932909243061593e-02
5.300000000000000000e+01,5.651975307665595138e-02
5.303999999999999915e+01,4.436481153777310782e-02
5.307999999999999829e+01,5.090107325843248182e-02
5.311999999999999744e+01,3.437117692187590529e-02
5.315999999999999659e+01,3.693017788246508171e-02
5.320000000000000284e+01,5.022660582047501487e-02
5.324000000000000199e+01,5.238755834595332922e-02
5.328000000000000114e+01,4.221997035282533395e-02
5.332000000000000028e+01,5.034591101790530931e-02
5.335999999999999943e+01,4.057566752394056037e-02
5.339999999999999858e+01,4.671282247603426863e-02
5.343999999999999773e+01,3.733993319936738942e-02
5.347999999999999687e+01,4.387444722782614381e-02
5.352000000000000313e+01,4.523884052853036075e-02
5.356000000000000227e+01,5.057996663734433407e-02
5.360000000000000142e+01,5.114866605600704857e-02
5.364000000000000057e+01,3.501426585796884455e-02
5.367999999999999972e+01,4.393413221905523997e-02
5.371999999999999886e+01,3.098094450153849808e-02
5.375999999999999801e+01,3.154904202466628227e-02
5.379999999999999716e+01,4.205922461114717376e-02
5.384000000000000341e+01,2.751484697933702026e-02
5.388000000000000256e+01,2.808251859091664623e-02
5.392000000000000171e+01,5.569291723150308904e-02
5.396000000000000085e+01,4.313657415802726186e-02
5.400000000000000000e+01,5.125993611604756639e-02
5.403999999999999915e+01,6.256468167950890447e-02
5.407999999999999829e+01,4.682643570920036469e-02
5.411999999999999744e+01,2.392965956146121675e-02
5.415999999999999659e+01,5.153928655356138089e-02
5.420000000000000284e+01,4.773134833659520987e-02
5.424000000000000199e+01,5.466090026492452514e-02
5.428000000000000114e+01,4.846659405591590558e-02
5.432000000000000028e+01,6.295201231467262293e-02
5.435999999999999943e+01,4.641756426103389038e-02
5.439999999999999858e+01,3.823448099960819607e-02
5.443999999999999773e+01,4.953806195894045611e-02
5.447999999999999687e+01,5.249006707103640729e-02
5.452000000000000313e+01,6.936109276345202301e-02
5.456000000000000227e+01,5.362150757699573472e-02
5.460000000000000142e+01,5.577783961528744172e-02
5.464000000000000057e+01,4.202651113229132623e-02
5.467999999999999972e+01,4.020576705506867521e-02
5.471999999999999886e+01,5.031560981315335440e-02
5.475999999999999801e+01,6.122074483706772124e-02
5.479999999999999716e+01,4.388986452320917109e-02
5.484000000000000341e+01,5.320407793909485289e-02
5.488000000000000256e+01,5.973438830258623322e-02
5.492000000000000171e+01,6.865075736418616015e-02
5.496000000000000085e+01,5.728490437687010911e-02
5.500000000000000000e+01,5.188431755355491642e-02
5.503999999999999915e+01,4.926748589548550494e-02
5.507999999999999829e+01,5.380899279609258068e-02
5.511999999999999744e+01,6.033888136394036789e-02
5.515999999999999659e+01,5.573341113687087928e-02
5.520000000000000284e+01,7.021696211316211245e-02
5.524000000000000199e+01,7.436053751067550621e-02
5.528000000000000114e+01,5.941497783115030906e-02
5.532000000000000028e+01,4.685550114506994990e-02
5.535999999999999943e+01,5.974808223706275234e-02
5.539999999999999858e+01,5.593767061183440442e-02
5.543999999999999773e+01,4.377574144817700935e-02
5.547999999999999687e+01,6.024739077948244870e-02
5.552000000000000313e+01,5.365302782558982464e-02
5.556000000000000227e+01,6.455695122671639696e-02
5.560000000000000142e+01,4.961104295195922081e-02
5.564000000000000057e+01,5.256111506982451276e-02
5.567999999999999972e+01,4.556892751231814143e-02
5.571999999999999886e+01,6.522188713429578899e-02
5.575999999999999801e+01,5.902502479852438089e-02
5.579999999999999716e+01,5.481658543206541223e-02
5.584000000000000341e+01,5.418732817859708145e-02
5.588000000000000256e+01,4.520658011156946515e-02
5.592000000000000171e+01,6.485943726437470858e-02
5.596000000000000085e+01,5.587866035734634362e-02
5.600000000000000000e+01,5.405627788826802838e-02
5.603999999999999915e+01,6.297149489349836149e-02
5.607999999999999829e+01,5.279762541236271423e-02
5.611999999999999744e+01,6.449665726361407392e-02
5.615999999999999659e+01,6.426501270121670606e-02
5.620000000000000284e+01,6.443105868932375024e-02
5.624000000000000199e+01,4.948491969456016160e-02
5.628000000000000114e+01,7.709152903419615177e-02
5.632000000000000028e+01,6.015695903835657776e-02
5.635999999999999943e+01,6.111841316674497537e-02
5.639999999999999858e+01,6.009143492208899456e-02
5.643999999999999773e+01,4.315690548515846436e-02
5.647999999999999687e+01,7.434278502980139203e-02
5.652000000000000313e+01,6.058980820810068446e-02
5.656000000000000227e+01,7.865198890705982215e-02
5.660000000000000142e+01,4.541229124216509400e-02
5.664000000000000057e+01,7.421213352574200506e-02
5.667999999999999972e+01,4.614245380502665639e-02
5.671999999999999886e+01,5.903479242943616284e-02
5.675999999999999801e+01,5.522422094076812060e-02
5.679999999999999716e+01,5.539057905243382346e-02
5.684000000000000341e+01,5.515928823006966547e-02
5.688000000000000256e+01,5.293959418906498543e-02
5.692000000000000171e+01,7.100209335697553470e-02
5.696000000000000085e+01,8.707619416531270362e-02
5.700000000000000000e+01,7.451672408169064676e-02
5.703999999999999915e+01,6.752495488974857851e-02
5.707999999999999829e+01,5.576097037708119958e-02
5.711999999999999744e+01,7.461910986293630865e-02
5.715999999999999659e+01,8.154663367348345682e-02
5.720000000000000284e+01,5.665908531145044669e-02
5.724000000000000199e+01,6.875669509311847782e-02
5.728000000000000114e+01,7.130983155929622452e-02
5.732000000000000028e+01,6.829538892487810320e-02
5.735999999999999943e+01,8.755161211692584489e-02
5.739999999999999858e+01,6.186903239237009910e-02
5.743999999999999773e+01,7.396700131625567887e-02
5.747999999999999687e+01,6.697596878745228077e-02
5.752000000000000313e+01,7.310876069691873980e-02
5.756000000000000227e+01,8.600235261761066119e-02
5.760000000000000142e+01,6.708089666105884752e-02
5.764000000000000057e+01,7.440701532306949473e-02
5.767999999999999972e+01,8.133553607125661167e-02
5.771999999999999886e+01,8.190112365711200992e-02
5.775999999999999801e+01,5.940083501165265706e-02
5.779999999999999716e+01,9.217944073602651889e-02
5.784000000000000341e+01,6.649783819843881061e-02
5.788000000000000256e+01,9.251593228292651072e-02
5.792000000000000171e+01,7.956059271278956291e-02
5.796000000000000085e+01,7.614990169896720951e-02
5.800000000000000000e+01,8.466999674220986039e-02
5.803999999999999915e+01,8.125952955988431647e-02
5.807999999999999829e+01,6.711157011713272946e-02
5.811999999999999744e+01,8.477886294685260671e-02
5.815999999999999659e+01,8.415257398302736225e-02
5.820000000000000284e+01,7.716338101127416527e-02
5.824000000000000199e+01,7.892347524549879478e-02
5.828000000000000114e+01,7.670680540207924780e-02
5.832000000000000028e+01,8.920476530174670238e-02
5.835999999999999943e+01,6.829696677116478543e-02
5.839999999999999858e+01,7.323909984174818699e-02
5.843999999999999773e+01,7.022758676746083950e-02
5.847999999999999687e+01,9.545214522462279472e-02
5.852000000000000313e+01,7.613565797065879881e-02
5.856000000000000227e+01,7.908990942916963029e-02
5.860000000000000142e+01,7.846510542484162742e-02
5.864000000000000057e+01,7.386355920867207492e-02
5.867999999999999972e+01,7.681825938774199114e-02
5.871999999999999886e+01,8.295462742768784647e-02
5.875999999999999801e+01,8.789808479414587539e-02
5.879999999999999716e+01,7.454799923959697094e-02
5.884000000000000341e+01,8.983169626083600812e-02
5.888000000000000256e+01,1.130693410035189389e-01
5.892000000000000171e+01,9.295903186602053059e-02
5.896000000000000085e+01,7.205351338123869298e-02
5.900000000000000000e+01,8.216792226159609636e-02
5.903999999999999915e+01,8.910099158252056395e-02
5.907999999999999829e+01,8.927352116672075677e-02
5.911999999999999744e+01,8.308320262226652486e-02
5.915999999999999659e+01,9.240294319817751734e-02
5.920000000000000284e+01,7.070311143526228359e-02
5.924000000000000199e+01,8.042091079322410963e-02
5.928000000000000114e+01,9.689961463235761963e-02
5.932000000000000028e+01,6.764425381542961413e-02
5.935999999999999943e+01,8.213489594259903992e-02
5.939999999999999858e+01,8.389968009127167503e-02
5.943999999999999773e+01,6.935940608415588904e-02
5.947999999999999687e+01,8.703215613219122959e-02
5.952000000000000313e+01,8.561602863375278316e-02
5.956000000000000227e+01,9.573309276565479531e-02
5.960000000000000142e+01,8.835204092429473077e-02
5.964000000000000057e+01,9.648107735770362903e-02
5.967999999999999972e+01,9.267965117642311401e-02
5.971999999999999886e+01,9.524146702264817133e-02
5.975999999999999801e+01,8.627051429178729525e-02
5.979999999999999716e+01,9.718424051772717176e-02
5.984000000000000341e+01,8.781604109785388912e-02
5.988000000000000256e+01,7.964113410265134807e-02
5.992000000000000171e+01,9.691856185235582510e-02
5.996000000000000085e+01,9.033486863802300815e-02
