2.003999999999999915e+01,2.529480038067956071e-01
2.007999999999999829e+01,3.237640301033410939e-01
2.012000000000000099e+01,2.509028435702808646e-01
2.016000000000000014e+01,1.071316734099793527e-01
2.019999999999999929e+01,2.618841247379939952e-01
2.023999999999999844e+01,2.468378103110291377e-01
2.028000000000000114e+01,2.989526705286675301e-01
2.032000000000000028e+01,2.708284354877631417e-01
2.035999999999999943e+01,1.251485848378870447e-01
2.039999999999999858e+01,2.835898590755688287e-01
2.044000000000000128e+01,1.845385577772393482e-01
2.048000000000000043e+01,3.056462093475892927e-01
2.051999999999999957e+01,2.830766973052317170e-01
2.055999999999999872e+01,4.023014449034959528e-01
2.060000000000000142e+01,1.968638911626892363e-01
2.064000000000000057e+01,1.369522594330827847e-01
2.067999999999999972e+01,2.318956859543898630e-01
2.071999999999999886e+01,1.458454481993053942e-01
2.076000000000000156e+01,3.284656806184382827e-01
2.080000000000000071e+01,3.039706909140751367e-01
2.083999999999999986e+01,3.037229406949793487e-01
2.087999999999999901e+01,1.821879863216077644e-01
2.092000000000000171e+01,9.049776006769233438e-02
2.096000000000000085e+01,1.760525416797501796e-01
2.100000000000000000e+01,2.336114470828638823e-01
2.103999999999999915e+01,9.338429121061653237e-02
2.107999999999999829e+01,2.404859075221233433e-01
2.112000000000000099e+01,2.308496502009608209e-01
2.116000000000000014e+01,3.070329384375274917e-01
2.119999999999999929e+01,2.693923669477226168e-01
2.123999999999999844e+01,3.119738720682006528e-01
2.128000000000000114e+01,4.291799799298307572e-01
2.132000000000000028e+01,2.198580487791178817e-01
2.135999999999999943e+01,3.277181444816408273e-01
2.139999999999999858e+01,2.321947444131526872e-01
2.144000000000000128e+01,2.243567506177952253e-01
2.148000000000000043e+01,2.202419861550082014e-01
2.151999999999999957e+01,3.187392479175645832e-01
2.155999999999999872e+01,2.847544316128581832e-01
2.160000000000000142e+01,2.750169483054375474e-01
2.164000000000000057e+01,2.036987947911337860e-01
2.167999999999999972e+01,1.267747638997948900e-01
2.171999999999999886e+01,2.756073172401901639e-01
2.176000000000000156e+01,2.210564191047392768e-01
2.180000000000000071e+01,3.400189796634364714e-01
2.183999999999999986e+01,3.358286279246952555e-01
2.187999999999999901e+01,2.775209405636031024e-01
2.192000000000000171e+01,2.042782740375596318e-01
2.196000000000000085e+01,3.567922212733597442e-01
2.200000000000000000e+01,2.126314333831502978e-01
2.203999999999999915e+01,1.673510831729785042e-01
2.207999999999999829e+01,9.594081590296436868e-02
2.212000000000000099e+01,2.820062285628277543e-01
2.216000000000000014e+01,3.673086834619959662e-01
2.219999999999999929e+01,3.163974865136536252e-01
2.223999999999999844e+01,1.162118587942447684e-01
2.228000000000000114e+01,1.081980114652599106e-01
2.232000000000000028e+01,2.270520302221932796e-01
2.235999999999999943e+01,1.798391966006664122e-01
2.239999999999999858e+01,3.266639843982243607e-01
2.244000000000000128e+01,2.327888791164716975e-01
2.248000000000000043e+01,2.172701767536338036e-01
2.251999999999999957e+01,2.763762297041869598e-01
2.255999999999999872e+01,2.533776367469504076e-01
2.260000000000000142e+01,2.826138937832067821e-01
2.264000000000000057e+01,2.670620400271554451e-01
2.267999999999999972e+01,2.813551309447013815e-01
2.271999999999999886e+01,3.310906502483466074e-01
2.276000000000000156e+01,3.882812089056918436e-01
2.280000000000000071e+01,2.812707955867182474e-01
2.283999999999999986e+01,2.899333547539351685e-01
2.287999999999999901e+01,1.810406083783391573e-01
2.292000000000000171e+01,2.568564160857080281e-01
2.296000000000000085e+01,2.748233685290110140e-01
2.300000000000000000e+01,2.405389494207492984e-01
2.303999999999999915e+01,1.782589051094783661e-01
2.307999999999999829e+01,1.738112486427392245e-01
2.312000000000000099e+01,2.290618112058198375e-01
2.316000000000000014e+01,2.432559794857089563e-01
2.319999999999999929e+01,2.555761099398077829e-01
2.323999999999999844e+01,2.641563812261954469e-01
2.328000000000000114e+01,3.361665437563541858e-01
2.332000000000000028e+01,2.085250992835958883e-01
2.335999999999999943e+01,2.935796569864187466e-01
2.339999999999999858e+01,2.517498418103071289e-01
2.344000000000000128e+01,2.752157638283133090e-01
2.348000000000000043e+01,2.389670683005540863e-01
2.351999999999999957e+01,3.165256026640247966e-01
2.355999999999999872e+01,3.082479616346229800e-01
2.360000000000000142e+01,3.503394673772349810e-01
2.364000000000000057e+01,4.724495692918057738e-02
2.367999999999999972e+01,2.908293892155712768e-01
2.371999999999999886e+01,7.354658681112469232e-02
2.376000000000000156e+01,2.032993267787068514e-01
2.380000000000000071e+01,3.852870643903322789e-01
2.383999999999999986e+01,1.362608022938647800e-01
2.387999999999999901e+01,1.988193983259743947e-01
2.392000000000000171e+01,3.845144047841921875e-01
2.396000000000000085e+01,1.410612525629778014e-01
2.400000000000000000e+01,7.671930851940640672e-02
2.403999999999999915e+01,2.922431958098596350e-01
2.407999999999999829e+01,1.775077311570265604e-01
2.412000000000000099e+01,3.850842671389302641e-02
2.416000000000000014e+01,3.286410694582785896e-01
2.419999999999999929e+01,2.530636760159278853e-01
2.423999999999999844e+01,3.659266515993593316e-01
2.428000000000000114e+01,2.101025665469083148e-01
2.432000000000000028e+01,1.568908522377565062e-01
2.435999999999999943e+01,3.275702207279462264e-01
2.439999999999999858e+01,2.183675857656780517e-01
2.444000000000000128e+01,3.498484798185685363e-01
2.448000000000000043e+01,2.872753883882247505e-01
2.451999999999999957e+01,3.683628701089249891e-01
2.455999999999999872e+01,3.468218631064287627e-01
2.460000000000000142e+01,2.562372450473223151e-01
2.464000000000000057e+01,2.775941684230213702e-01
2.467999999999999972e+01,3.157354987113304978e-01
2.471999999999999886e+01,1.710178306281481542e-01
2.476000000000000156e+01,2.464596420339460470e-01
2.480000000000000071e+01,3.069668286361155185e-01
2.483999999999999986e+01,2.293948619583809911e-01
2.487999999999999901e+01,3.682507370074691311e-01
2.492000000000000171e+01,2.626753715945122081e-01
2.496000000000000085e+01,2.279934091905183313e-01
2.500000000000000000e+01,4.358608709688817640e-01
2.503999999999999915e+01,4.813934626488940993e-01
2.507999999999999829e+01,3.757861467338732275e-01
2.512000000000000099e+01,2.253910251710165291e-01
2.516000000000000014e+01,3.156795212136525586e-01
2.519999999999999929e+01,1.969875102545385337e-01
2.523999999999999844e+01,7.642171247557089098e-02
2.528000000000000114e+01,2.805017289293970095e-01
2.532000000000000028e+01,2.644062955648985302e-01
2.535999999999999943e+01,2.203155224551237856e-01
2.539999999999999858e+01,2.508498590200604617e-01
2.544000000000000128e+01,2.440597343650655615e-01
2.548000000000000043e+01,1.999451534118226459e-01
2.551999999999999957e+01,2.341873494255580779e-01
2.555999999999999872e+01,2.796165818381600165e-01
2.560000000000000142e+01,1.589793605287903588e-01
2.564000000000000057e+01,2.342459855585986295e-01
2.567999999999999972e+01,2.199450435176316665e-01
2.571999999999999886e+01,2.037703737170315499e-01
2.576000000000000156e+01,2.696841629407314422e-01
2.580000000000000071e+01,3.038710140304806129e-01
2.583999999999999986e+01,2.261004025729284606e-01
2.587999999999999901e+01,3.255754043486107641e-01
2.592000000000000171e+01,1.974117250768192000e-01
2.596000000000000085e+01,3.621748972251753740e-01
2.600000000000000000e+01,4.355047154126299169e-01
2.603999999999999915e+01,3.334390026986209232e-01
2.607999999999999829e+01,1.455374246578965414e-01
2.612000000000000099e+01,2.039170611339216899e-01
2.616000000000000014e+01,2.417647613527936223e-01
2.619999999999999929e+01,2.404222676001437631e-01
2.623999999999999844e+01,9.167166150853808815e-02
2.628000000000000114e+01,2.097263785200816633e-01
2.632000000000000028e+01,2.102262132537277006e-01
2.635999999999999943e+01,2.890829283097375302e-01
2.639999999999999858e+01,1.738858941233941691e-01
2.644000000000000128e+01,1.967521905381608982e-01
2.648000000000000043e+01,1.468434546883035374e-01
2.651999999999999957e+01,3.282893724632002241e-01
2.655999999999999872e+01,1.067090191586679143e-01
2.660000000000000142e+01,3.012001294192052647e-01
2.664000000000000057e+01,3.426856977668218396e-01
2.667999999999999972e+01,2.498239917592548764e-01
2.671999999999999886e+01,2.689040831141168431e-01
2.676000000000000156e+01,1.685635200660113298e-01
2.680000000000000071e+01,2.790535561947962151e-01
2.683999999999999986e+01,3.596826084170461346e-01
2.687999999999999901e+01,2.798428432020643730e-01
2.692000000000000171e+01,1.869345402963664693e-01
2.696000000000000085e+01,3.197834663631428098e-01
2.700000000000000000e+01,2.343229755859716212e-01
2.703999999999999915e+01,1.861712710004883864e-01
2.707999999999999829e+01,1.921207939008292287e-01
2.712000000000000099e+01,1.402219733923482925e-01
2.716000000000000014e+01,1.704117841671448641e-01
2.719999999999999929e+01,2.229837907115257700e-01
2.723999999999999844e+01,2.456948625662230545e-01
2.728000000000000114e+01,2.086917844352356444e-01
2.732000000000000028e+01,3.228129290276667285e-01
2.735999999999999943e+01,2.242221798621306661e-01
2.739999999999999858e+01,2.730240107361732727e-01
2.744000000000000128e+01,2.024052708758951880e-01
2.748000000000000043e+01,1.523029349733915350e-01
2.751999999999999957e+01,2.010817110217783532e-01
2.755999999999999872e+01,2.255970705447792879e-01
2.760000000000000142e+01,1.288260527565928404e-01
2.764000000000000057e+01,3.977493173799378501e-01
2.767999999999999972e+01,2.599147962038258486e-01
2.771999999999999886e+01,1.369992297247822621e-01
2.776000000000000156e+01,2.043902916434093830e-01
2.780000000000000071e+01,2.232622251398887481e-01
2.783999999999999986e+01,1.544326836001899128e-01
2.787999999999999901e+01,2.796414377504274906e-01
2.792000000000000171e+01,2.872955064901701050e-01
2.796000000000000085e+01,1.512733270506243510e-01
2.800000000000000000e+01,2.559351146562073298e-01
2.803999999999999915e+01,1.068369143731489473e-01
2.807999999999999829e+01,2.767873940500209518e-01
2.812000000000000099e+01,1.052840612921626257e-01
2.816000000000000014e+01,3.050725537185576819e-01
2.819999999999999929e+01,4.003671790314911050e-01
2.823999999999999844e+01,2.680234087546847221e-01
2.828000000000000114e+01,2.215000600955469301e-01
2.832000000000000028e+01,2.663946167665795506e-01
2.835999999999999943e+01,1.191014916214313546e-01
2.839999999999999858e+01,1.602492473573093601e-01
2.844000000000000128e+01,3.133390120880723551e-01
2.848000000000000043e+01,2.369245844956009706e-01
2.851999999999999957e+01,2.108799090424032796e-01
2.855999999999999872e+01,2.911797785583306597e-01
2.860000000000000142e+01,2.520592200688016593e-01
2.864000000000000057e+01,1.868095516757775632e-01
2.867999999999999972e+01,2.223069642261152612e-01
2.871999999999999886e+01,1.178598746363931082e-01
2.876000000000000156e+01,3.175349385664025248e-01
2.880000000000000071e+01,2.615842818561799343e-01
2.883999999999999986e+01,3.157098570940888305e-01
2.887999999999999901e+01,2.149643397698321190e-01
2.892000000000000171e+01,2.914648097268747184e-01
2.896000000000000085e+01,2.709348111368926615e-01
2.900000000000000000e+01,2.765188823195335321e-01
2.903999999999999915e+01,1.384268382083837512e-01
2.907999999999999829e+01,2.802012455635744526e-01
2.912000000000000099e+01,3.044211151588205322e-01
2.916000000000000014e+01,8.794191851784442793e-02
2.919999999999999929e+01,1.494633618446586099e-01
2.923999999999999844e+01,2.781470822735277459e-01
2.928000000000000114e+01,1.773267088128627489e-01
2.932000000000000028e+01,0.000000000000000000e+00
2.935999999999999943e+01,2.051602216035752768e-01
2.939999999999999858e+01,1.789505378190654195e-01
2.944000000000000128e+01,1.975132405817704440e-01
2.948000000000000043e+01,1.582278903150721450e-01
2.951999999999999957e+01,2.308846819287548868e-01
2.955999999999999872e+01,2.139743838751122229e-01
2.960000000000000142e+01,3.015429324907985542e-01
2.964000000000000057e+01,3.275317952366109120e-01
2.967999999999999972e+01,1.911863587995375480e-01
2.971999999999999886e+01,1.630514363240601339e-01
2.976000000000000156e+01,3.046992994308458935e-01
2.980000000000000071e+01,3.437193185551769559e-01
2.983999999999999986e+01,2.483924521374440419e-01
2.987999999999999901e+01,2.053013314598833017e-01
2.992000000000000171e+01,2.051168301261505622e-01
2.996000000000000085e+01,1.732059025137127339e-01
3.000000000000000000e+01,3.502601415493631354e-01
3.003999999999999915e+01,2.287748084540917048e-01
3.007999999999999829e+01,1.800493346070777545e-01
3.012000000000000099e+01,2.581926865745648447e-01
3.016000000000000014e+01,2.560981540180290450e-01
3.019999999999999929e+01,2.390696610853468018e-01
3.023999999999999844e+01,2.089730389618091044e-01
3.028000000000000114e+01,1.564791612510741947e-01
3.032000000000000028e+01,3.502670148340167877e-01
3.035999999999999943e+01,2.548444669775458693e-01
3.039999999999999858e+01,2.079260763159413439e-01
3.044000000000000128e+01,3.550462963321163734e-01
3.048000000000000043e+01,2.390776973644095083e-01
3.051999999999999957e+01,2.760995411185315773e-01
3.055999999999999872e+01,2.496759859379305835e-01
3.060000000000000142e+01,2.213793034432728069e-01
3.064000000000000057e+01,2.173310662467191900e-01
3.067999999999999972e+01,2.002147539978458013e-01
3.071999999999999886e+01,2.017494180996306230e-01
3.076000000000000156e+01,2.443249786370252363e-01
3.080000000000000071e+01,2.066627333973576897e-01
3.083999999999999986e+01,1.932489580642197946e-01
3.087999999999999901e+01,1.462430433875265001e-01
3.092000000000000171e+01,2.037161377957701636e-01
3.096000000000000085e+01,3.152909370932861499e-01
3.100000000000000000e+01,1.898985490793036746e-01
3.103999999999999915e+01,1.242053545887809723e-01
3.107999999999999829e+01,2.096368454600723574e-01
3.112000000000000099e+01,2.633420527815242829e-01
3.116000000000000014e+01,3.412957693829864469e-01
3.119999999999999929e+01,2.699761576708338273e-01
3.123999999999999844e+01,2.303683701364829250e-01
3.128000000000000114e+01,3.213612036727113153e-01
3.132000000000000028e+01,1.362045377352054387e-01
3.135999999999999943e+01,1.394891168834185846e-01
3.139999999999999858e+01,3.685314713111467189e-01
3.144000000000000128e+01,3.027660783941398259e-01
3.148000000000000043e+01,1.063856542513689912e-01
3.151999999999999957e+01,1.189705837807177313e-01
3.155999999999999872e+01,3.013385203681556157e-01
3.160000000000000142e+01,2.989824788503241404e-01
3.164000000000000057e+01,2.462419551285039143e-01
3.167999999999999972e+01,2.364082673046549732e-01
3.171999999999999886e+01,1.220811454756279973e-01
3.176000000000000156e+01,2.353776694848858098e-01
3.180000000000000071e+01,2.889605996588678893e-01
3.183999999999999986e+01,2.436475893835433615e-01
3.187999999999999901e+01,3.774467568578166454e-01
3.192000000000000171e+01,3.899600785628872801e-01
3.196000000000000085e+01,1.057998906415241192e-01
3.200000000000000000e+01,2.209193943402621430e-01
3.203999999999999915e+01,1.960948043987980893e-01
3.207999999999999829e+01,2.589569298986877932e-01
3.211999999999999744e+01,2.285206281918821247e-01
3.215999999999999659e+01,2.353937426524519427e-01
3.220000000000000284e+01,2.030774013942568124e-01
3.224000000000000199e+01,2.006071810923847065e-01
3.228000000000000114e+01,3.044819634763463179e-01
3.232000000000000028e+01,1.564631108555719075e-01
3.235999999999999943e+01,2.939085920701276500e-01
3.239999999999999858e+01,2.466301936131156114e-01
3.243999999999999773e+01,1.582965427038431350e-01
3.247999999999999687e+01,1.875028766704620597e-01
3.252000000000000313e+01,2.185679720911175572e-01
3.256000000000000227e+01,3.205274056408967676e-01
3.260000000000000142e+01,1.817881962193687584e-01
3.264000000000000057e+01,3.210500500305451532e-01
3.267999999999999972e+01,1.468460464331688420e-01
3.271999999999999886e+01,1.965341542673080810e-01
3.275999999999999801e+01,2.331544429767497817e-01
3.279999999999999716e+01,2.175245659474630555e-01
3.284000000000000341e+01,2.205459261181431652e-01
3.288000000000000256e+01,2.515476597285009608e-01
3.292000000000000171e+01,1.743244544570213272e-01
3.296000000000000085e+01,2.538236446573696736e-01
3.300000000000000000e+01,1.971105118651678423e-01
3.303999999999999915e+01,2.112917762623114648e-01
3.307999999999999829e+01,3.392814468334106603e-01
3.311999999999999744e+01,3.142663728045668736e-01
3.315999999999999659e+01,2.911101389767187797e-01
3.320000000000000284e+01,2.324962249994432517e-01
3.324000000000000199e+01,1.160347206311591606e-01
3.328000000000000114e+01,2.122704390163472621e-01
3.332000000000000028e+01,2.469269243266861424e-01
3.335999999999999943e+01,3.021005370825020075e-01
3.339999999999999858e+01,2.191960497990125545e-01
3.343999999999999773e+01,1.847960937584531282e-01
3.347999999999999687e+01,1.877057163008750695e-01
3.352000000000000313e+01,2.484490112476242241e-01
3.356000000000000227e+01,2.662713652856889546e-01
3.360000000000000142e+01,2.747576560816529789e-01
3.364000000000000057e+01,1.750190965861102843e-01
3.367999999999999972e+01,3.159652030149734392e-01
3.371999999999999886e+01,2.572609820790306423e-01
3.375999999999999801e+01,1.836232387969107815e-01
3.379999999999999716e+01,2.144648589610511635e-01
3.384000000000000341e+01,2.807502757397329907e-01
3.388000000000000256e+01,2.798590495563389458e-01
3.392000000000000171e+01,2.211203166505821827e-01
3.396000000000000085e+01,1.866304375427890461e-01
3.400000000000000000e+01,1.297437605645074543e-01
3.403999999999999915e+01,1.717389977717792282e-01
3.407999999999999829e+01,2.454464085964921383e-01
3.411999999999999744e+01,2.407822484076063696e-01
3.415999999999999659e+01,1.166983443274866028e-01
3.420000000000000284e+01,2.202383863084396154e-01
3.424000000000000199e+01,2.566018296224829021e-01
3.428000000000000114e+01,1.791430226011635762e-01
3.432000000000000028e+01,2.453459945437249934e-01
3.435999999999999943e+01,2.089216835759271640e-01
3.439999999999999858e+01,2.116728906534721955e-01
3.443999999999999773e+01,1.808323964174314846e-01
3.447999999999999687e+01,9.214446436261856943e-02
3.452000000000000313e+01,1.079359843443958161e-01
3.456000000000000227e+01,8.267251272322005684e-02
3.460000000000000142e+01,6.673136353812510191e-02
3.464000000000000057e+01,2.578901256529783637e-01
3.467999999999999972e+01,1.281199713891096326e-01
3.471999999999999886e+01,2.334371322226413137e-01
3.475999999999999801e+01,3.667348978150486438e-01
3.479999999999999716e+01,2.854558588193022439e-01
3.484000000000000341e+01,2.209624768441692255e-01
3.488000000000000256e+01,2.721435487824251376e-01
3.492000000000000171e+01,2.468189744043887690e-01
3.496000000000000085e+01,2.252192879667818670e-01
3.500000000000000000e+01,2.353318883453722477e-01
3.503999999999999915e+01,1.838654672815694391e-01
3.507999999999999829e+01,2.648659611120307011e-01
3.511999999999999744e+01,2.283126554353046289e-01
3.515999999999999659e+01,1.712285208805609804e-01
3.520000000000000284e+01,2.820620149936415855e-01
3.524000000000000199e+01,2.025745000839750121e-01
3.528000000000000114e+01,7.830042963447554627e-02
3.532000000000000028e+01,1.088832187726159473e-01
3.535999999999999943e+01,2.551405208843661732e-01
3.539999999999999858e+01,7.487151641690881210e-02
3.543999999999999773e+01,2.192495762902464673e-01
3.547999999999999687e+01,3.430968466590479937e-01
3.552000000000000313e+01,3.176713202562186367e-01
3.556000000000000227e+01,1.280463918945999868e-01
3.560000000000000142e+01,1.809721919618752228e-01
3.564000000000000057e+01,1.723190444120328568e-01
3.567999999999999972e+01,2.793404492092813607e-01
3.571999999999999886e+01,1.848459464623696535e-01
3.575999999999999801e+01,1.743069594246255127e-01
3.579999999999999716e+01,5.740921412997214424e-02
3.584000000000000341e+01,2.278420571208547851e-01
3.588000000000000256e+01,3.105744143342539232e-01
3.592000000000000171e+01,2.272415876204230967e-01
3.596000000000000085e+01,2.204009961697628306e-01
3.600000000000000000e+01,1.911638529328655856e-01
3.603999999999999915e+01,2.887962639198574655e-01
3.607999999999999829e+01,2.091685530847262886e-01
3.611999999999999744e+01,2.489471012624322188e-01
3.615999999999999659e+01,2.532683334954035637e-01
3.620000000000000284e+01,2.575829537138297765e-01
3.624000000000000199e+01,2.283060940944966200e-01
3.628000000000000114e+01,2.326075050488880525e-01
3.632000000000000028e+01,1.995857934816794854e-01
3.635999999999999943e+01,1.161801804693174539e-01
3.639999999999999858e+01,2.585329579471002392e-01
3.643999999999999773e+01,2.441497467975872193e-01
3.647999999999999687e+01,2.204308267672967780e-01
3.652000000000000313e+01,1.556571562966208022e-01
3.656000000000000227e+01,2.158872777681331567e-01
3.660000000000000142e+01,3.283539718229048221e-01
3.664000000000000057e+01,2.038541725237690838e-01
3.667999999999999972e+01,2.230164425679317663e-01
3.671999999999999886e+01,9.663771601822661317e-02
3.675999999999999801e+01,3.005036950157394804e-01
3.679999999999999716e+01,1.554536245297558628e-01
3.684000000000000341e+01,1.801872107642870924e-01
3.688000000000000256e+01,2.291700100797916251e-01
3.692000000000000171e+01,1.456726212550907840e-01
3.696000000000000085e+01,1.479967220537139749e-01
3.700000000000000000e+01,2.436056224517679503e-01
3.703999999999999915e+01,2.403192222195714711e-01
3.707999999999999829e+01,1.642590939692862573e-01
3.711999999999999744e+01,1.889470851379089489e-01
3.715999999999999659e+01,9.608152780528131376e-02
3.720000000000000284e+01,1.375489724798308888e-01
3.724000000000000199e+01,1.883390644216738630e-01
3.728000000000000114e+01,2.428543297616791996e-01
3.732000000000000028e+01,2.525832905677883322e-01
3.735999999999999943e+01,2.977564810967237574e-01
3.739999999999999858e+01,2.757534617718673253e-01
3.743999999999999773e+01,2.462806779502801913e-01
3.747999999999999687e+01,2.466546598257577938e-01
3.752000000000000313e+01,3.272527214373331383e-01
3.756000000000000227e+01,1.802135342117841821e-01
3.760000000000000142e+01,1.619099194194458524e-01
3.764000000000000057e+01,1.958430051741785471e-01
3.767999999999999972e+01,1.476733054180708604e-01
3.771999999999999886e+01,2.226417140694126051e-01
3.775999999999999801e+01,2.397630884801559559e-01
3.779999999999999716e+01,1.561234295090586643e-01
3.784000000000000341e+01,2.851815543635305983e-01
3.788000000000000256e+01,2.910887405162658759e-01
3.792000000000000171e+01,1.925032555250058008e-01
3.796000000000000085e+01,3.756511408777729044e-01
3.800000000000000000e+01,1.688349465982725561e-01
3.803999999999999915e+01,1.859115183343995337e-01
3.807999999999999829e+01,3.205287639823246049e-01
3.811999999999999744e+01,2.629595287052204355e-01
3.815999999999999659e+01,2.259080114757988922e-01
3.820000000000000284e+01,2.952022253415984565e-01
3.824000000000000199e+01,2.842595488637537082e-01
3.828000000000000114e+01,2.453231223449037768e-01
3.832000000000000028e+01,2.866108739958526663e-01
3.835999999999999943e+01,2.551250551226348362e-01
3.839999999999999858e+01,2.273645474547601741e-01
3.843999999999999773e+01,2.219876185499692345e-01
3.847999999999999687e+01,2.987007137653223121e-01
3.852000000000000313e+01,4.388455753864504150e-01
3.856000000000000227e+01,2.580619980323055063e-01
3.860000000000000142e+01,3.702068273507815310e-01
3.864000000000000057e+01,2.696411508264732748e-01
3.867999999999999972e+01,2.810187432484229086e-01
3.871999999999999886e+01,4.603143974464803945e-01
3.875999999999999801e+01,4.026438191399375754e-01
3.879999999999999716e+01,4.307949568542303598e-01
3.884000000000000341e+01,4.775980700212455465e-01
3.888000000000000256e+01,5.505164686170915811e-01
3.892000000000000171e+01,3.976636119767106292e-01
3.896000000000000085e+01,4.257896304877860638e-01
3.900000000000000000e+01,5.042866906196175059e-01
3.903999999999999915e+01,5.454609629044323560e-01
3.907999999999999829e+01,5.082642744645948785e-01
3.911999999999999744e+01,4.897195959292757750e-01
3.915999999999999659e+01,5.644599827643794754e-01
3.920000000000000284e+01,5.682927286943081358e-01
3.924000000000000199e+01,7.083245539009566105e-01
3.928000000000000114e+01,7.401322227736895076e-01
3.932000000000000028e+01,6.599840877069813594e-01
3.935999999999999943e+01,7.906680972262672968e-01
3.939999999999999858e+01,8.541761429760149626e-01
3.943999999999999773e+01,7.814726581245046155e-01
3.947999999999999687e+01,8.039201042805034225e-01
3.952000000000000313e+01,8.188980418673937889e-01
3.956000000000000227e+01,8.581255222881548628e-01
3.960000000000000142e+01,9.309316817824986323e-01
3.964000000000000057e+01,1.000000000000000000e+00
3.967999999999999972e+01,9.104669019830884391e-01
3.971999999999999886e+01,9.963152938388326607e-01
3.975999999999999801e+01,9.646104571028547570e-01
3.979999999999999716e+01,7.892308290063626552e-01
3.984000000000000341e+01,9.870102894897639922e-01
3.988000000000000256e+01,9.179704350580583094e-01
3.992000000000000171e+01,9.067650405002876113e-01
3.996000000000000085e+01,8.395787086582011671e-01
4.000000000000000000e+01,8.955307657596118798e-01
4.003999999999999915e+01,7.033217902687112222e-01
4.007999999999999829e+01,7.965780984983557023e-01
4.011999999999999744e+01,8.133294002307644988e-01
4.015999999999999659e+01,7.218566539063285825e-01
4.020000000000000284e+01,7.833755413515037791e-01
4.024000000000000199e+01,6.415132511393241144e-01
4.028000000000000114e+01,6.395818206948857831e-01
4.032000000000000028e+01,5.648770608888487033e-01
4.035999999999999943e+01,5.815916878401801160e-01
4.039999999999999858e+01,5.703128255998139995e-01
4.043999999999999773e+01,4.638707335996379300e-01
4.047999999999999687e+01,4.712379582851518034e-01
4.052000000000000313e+01,4.935257126069491629e-01
4.056000000000000227e+01,5.475264378591654379e-01
4.060000000000000142e+01,5.362171732559993798e-01
4.064000000000000057e+01,6.051323722803646499e-01
4.067999999999999972e+01,4.855930578947547649e-01
4.071999999999999886e+01,4.947896998337894536e-01
4.075999999999999801e+01,3.118001856790088566e-01
4.079999999999999716e+01,3.881544761446267255e-01
4.084000000000000341e+01,3.600164547492577527e-01
4.088000000000000256e+01,3.803838800302365986e-01
4.092000000000000171e+01,2.887956982391762240e-01
4.096000000000000085e+01,3.632600275749806040e-01
4.100000000000000000e+01,3.966701576991244482e-01
4.103999999999999915e+01,3.218563480434952218e-01
4.107999999999999829e+01,3.739127127440701193e-01
4.111999999999999744e+01,2.860261010269486426e-01
4.115999999999999659e+01,2.690348856012367840e-01
4.120000000000000284e+01,4.050354269872608048e-01
4.124000000000000199e+01,3.805689178209836210e-01
4.128000000000000114e+01,3.243773752128686905e-01
4.132000000000000028e+01,3.129596808924267615e-01
4.135999999999999943e+01,3.201942720908656503e-01
4.139999999999999858e+01,2.863747132944942098e-01
4.143999999999999773e+01,2.133668356886041229e-01
4.147999999999999687e+01,2.877532705554282644e-01
4.152000000000000313e+01,3.341463540377370700e-01
4.156000000000000227e+01,3.600093961116361818e-01
4.160000000000000142e+01,2.123446480831607253e-01
4.164000000000000057e+01,1.374411816699202815e-01
4.167999999999999972e+01,2.323219675010867180e-01
4.171999999999999886e+01,3.160018629286109881e-01
4.175999999999999801e+01,3.138478223299595582e-01
4.179999999999999716e+01,2.706396809533487824e-01
4.184000000000000341e+01,3.039244983276090939e-01
4.188000000000000256e+01,2.551070469679598274e-01
4.192000000000000171e+01,1.503088994865619255e-01
4.196000000000000085e+01,2.227583437557874579e-01
4.200000000000000000e+01,1.515332673571769817e-01
4.203999999999999915e+01,1.810569157447347310e-01
4.207999999999999829e+01,2.926710312040913253e-01
4.211999999999999744e+01,2.997929922963817884e-01
4.215999999999999659e+01,2.863849858055393938e-01
4.220000000000000284e+01,1.367657883097067317e-01
4.224000000000000199e+01,2.744779665690178505e-01
4.228000000000000114e+01,2.367966121309943439e-01
4.232000000000000028e+01,3.595704573663103809e-01
4.235999999999999943e+01,2.080619877765709225e-01
4.239999999999999858e+01,2.617885580300733372e-01
4.243999999999999773e+01,2.688636274617600130e-01
4.247999999999999687e+01,2.311530272569222444e-01
4.252000000000000313e+01,1.953024189273820654e-01
4.256000000000000227e+01,2.322132054118335454e-01
4.260000000000000142e+01,2.355332946064490895e-01
4.264000000000000057e+01,3.862478390026456987e-01
4.267999999999999972e+01,2.328268877295794903e-01
4.271999999999999886e+01,2.678485793007852056e-01
4.275999999999999801e+01,3.047302922773995615e-01
4.279999999999999716e+01,2.520465446644377105e-01
4.284000000000000341e+01,2.422710060995749981e-01
4.288000000000000256e+01,1.634541056881663179e-01
4.292000000000000171e+01,2.618849151478224724e-01
4.296000000000000085e+01,1.494715765702856469e-01
4.300000000000000000e+01,2.199034364979998990e-01
4.303999999999999915e+01,1.578558613033223812e-01
4.307999999999999829e+01,2.767876681936606298e-01
4.311999999999999744e+01,2.483134396961326484e-01
4.315999999999999659e+01,1.862485828123592035e-01
4.320000000000000284e+01,1.932135469623267598e-01
4.324000000000000199e+01,2.318918117956109692e-01
4.328000000000000114e+01,2.183212003716494265e-01
4.332000000000000028e+01,3.054994712277777080e-01
4.335999999999999943e+01,1.426512917278482950e-01
4.339999999999999858e+01,1.831724488496811465e-01
4.343999999999999773e+01,3.113817191714202126e-01
4.347999999999999687e+01,2.753925620280096576e-01
4.352000000000000313e+01,1.834229056302523475e-01
4.356000000000000227e+01,2.873593004865756528e-01
4.360000000000000142e+01,2.326947614336208614e-01
4.364000000000000057e+01,2.004144409628047518e-01
4.367999999999999972e+01,2.763463521216670271e-01
4.371999999999999886e+01,2.365913481992311385e-01
4.375999999999999801e+01,2.826586705865780091e-01
4.379999999999999716e+01,2.186365665268133474e-01
4.384000000000000341e+01,3.132040229008151710e-01
4.388000000000000256e+01,1.801350080639305129e-01
4.392000000000000171e+01,1.720706907592825241e-01
4.396000000000000085e+01,2.069147203099154786e-01
4.400000000000000000e+01,2.492164026290093481e-01
4.403999999999999915e+01,2.150135607760015055e-01
4.407999999999999829e+01,2.796938684514944651e-01
4.411999999999999744e+01,2.380164415805678946e-01
4.415999999999999659e+01,2.672347801274297940e-01
4.420000000000000284e+01,2.012903515528757792e-01
4.424000000000000199e+01,3.872268458092127386e-01
4.428000000000000114e+01,2.764913463181100095e-01
4.432000000000000028e+01,1.396286662240502630e-01
4.435999999999999943e+01,3.031584065796797400e-01
4.439999999999999858e+01,1.868086043253737172e-01
4.443999999999999773e+01,2.458408727025592488e-01
4.447999999999999687e+01,2.302344973097846526e-01
4.452000000000000313e+01,1.287945254871019907e-01
4.456000000000000227e+01,2.363215118058643038e-01
4.460000000000000142e+01,1.964426448391070612e-01
4.464000000000000057e+01,2.442520387228078460e-01
4.467999999999999972e+01,2.080936821269465387e-01
4.471999999999999886e+01,2.204412446891975685e-01
4.475999999999999801e+01,2.215882908958705932e-01
4.479999999999999716e+01,2.264614357774948350e-01
4.484000000000000341e+01,2.126707690924888317e-01
4.488000000000000256e+01,2.697759564156020362e-01
4.492000000000000171e+01,3.287414309151154290e-01
4.496000000000000085e+01,3.709089348766598238e-01
4.500000000000000000e+01,3.589619479498100119e-01
4.503999999999999915e+01,4.011183983453694979e-01
4.507999999999999829e+01,3.145273171516852484e-01
4.511999999999999744e+01,2.633814204877260035e-01
4.515999999999999659e+01,1.954375778942226138e-01
4.520000000000000284e+01,3.103392044986478249e-01
4.524000000000000199e+01,2.647742727192762269e-01
4.528000000000000114e+01,2.527887188927639972e-01
4.532000000000000028e+01,3.098332469493008112e-01
4.535999999999999943e+01,3.164949809398195923e-01
4.539999999999999858e+01,3.436753238030147983e-01
4.543999999999999773e+01,2.906196622258738205e-01
4.547999999999999687e+01,4.166778517712468877e-01
4.552000000000000313e+01,3.374896870580857411e-01
4.556000000000000227e+01,3.180025024400561784e-01
4.560000000000000142e+01,3.675454341568712979e-01
4.564000000000000057e+01,3.629739537322523857e-01
4.567999999999999972e+01,3.546653752052340569e-01
4.571999999999999886e+01,1.877561236182447024e-01
4.575999999999999801e+01,3.398977273759758444e-01
4.579999999999999716e+01,3.707551931892157926e-01
4.584000000000000341e+01,3.176450512517596803e-01
4.588000000000000256e+01,4.417829833900624448e-01
4.592000000000000171e+01,4.110519196040298140e-01
4.596000000000000085e+01,3.168773517320164212e-01
4.600000000000000000e+01,3.383786060018355024e-01
4.603999999999999915e+01,2.945705397654382884e-01
4.607999999999999829e+01,3.533775216690053789e-01
4.611999999999999744e+01,3.002295363195887079e-01
4.615999999999999659e+01,4.429879221337807427e-01
4.620000000000000284e+01,3.413176858223694876e-01
4.624000000000000199e+01,4.784678345808633382e-01
4.628000000000000114e+01,4.551515529193711496e-01
4.632000000000000028e+01,4.113058155299901264e-01
4.635999999999999943e+01,4.961967284228453456e-01
4.639999999999999858e+01,4.392794882968246717e-01
4.643999999999999773e+01,3.823568961076307393e-01
4.647999999999999687e+01,4.168544436936181818e-01
4.652000000000000313e+01,3.468603782978950667e-01
4.656000000000000227e+01,3.888105514203829549e-01
4.660000000000000142e+01,3.766464305218792386e-01
4.664000000000000057e+01,2.823806265699856377e-01
4.667999999999999972e+01,3.896187365544225845e-01
4.671999999999999886e+01,3.363904702574091465e-01
4.675999999999999801e+01,3.391316791788676621e-01
4.679999999999999716e+01,2.504420934156494916e-01
4.684000000000000341e+01,4.099020978656392478e-01
4.688000000000000256e+01,3.883716568212584597e-01
4.692000000000000171e+01,2.754104358572559974e-01
4.696000000000000085e+01,2.594668925194715814e-01
4.700000000000000000e+01,3.349435529387740362e-01
4.703999999999999915e+01,3.675009310572527887e-01
4.707999999999999829e+01,2.881034600431893189e-01
4.711999999999999744e+01,3.131869913965064089e-01
4.715999999999999659e+01,2.468397723603114879e-01
4.720000000000000284e+01,2.476570402627574774e-01
4.724000000000000199e+01,2.764564484898137109e-01
4.728000000000000114e+01,2.586049514189451837e-01
4.732000000000000028e+01,1.847734226538099434e-01
4.735999999999999943e+01,1.725089217232387562e-01
4.739999999999999858e+01,3.505534657376965235e-01
4.743999999999999773e+01,2.375238836086497884e-01
4.747999999999999687e+01,1.953904753972497410e-01
4.752000000000000313e+01,2.260190722887874537e-01
4.756000000000000227e+01,2.361183660246726490e-01
4.760000000000000142e+01,2.536757554806731707e-01
4.764000000000000057e+01,2.395088940427587687e-01
4.767999999999999972e+01,2.402634432227513939e-01
4.771999999999999886e+01,2.895242806872351804e-01
4.775999999999999801e+01,2.324278314786390465e-01
4.779999999999999716e+01,2.462275955611706313e-01
4.784000000000000341e+01,1.984499131405241534e-01
4.788000000000000256e+01,1.973127124275034505e-01
4.792000000000000171e+01,1.812437316448127222e-01
4.796000000000000085e+01,2.267418525219616343e-01
4.800000000000000000e+01,1.658827162561413160e-01
4.803999999999999915e+01,1.740539965479530049e-01
4.807999999999999829e+01,1.840859528292838054e-01
4.811999999999999744e+01,2.221001577122960480e-01
4.815999999999999659e+01,2.190610443652709072e-01
4.820000000000000284e+01,2.234801005636370963e-01
4.824000000000000199e+01,2.316256787018681762e-01
4.828000000000000114e+01,1.054266401948425469e-01
4.832000000000000028e+01,1.154277981870422687e-01
4.835999999999999943e+01,1.795328020015102000e-01
4.839999999999999858e+01,2.921441777691152764e-01
4.843999999999999773e+01,1.174132029625533924e-01
4.847999999999999687e+01,2.374776767484235440e-01
4.852000000000000313e+01,2.698432200092852895e-01
4.856000000000000227e+01,1.865224437127407098e-01
4.860000000000000142e+01,1.554397165049689056e-01
4.864000000000000057e+01,2.101799160525544274e-01
4.867999999999999972e+01,1.622945946530272021e-01
4.871999999999999886e+01,8.081932898147582700e-02
4.875999999999999801e+01,2.381647584459874456e-01
4.879999999999999716e+01,1.902642372301389107e-01
4.884000000000000341e+01,2.113942310056238783e-01
4.888000000000000256e+01,2.101292577774569459e-01
4.892000000000000171e+01,2.760289831203877609e-01
4.896000000000000085e+01,1.348169512060938824e-01
4.900000000000000000e+01,2.119015550583125407e-01
4.903999999999999915e+01,2.143480762126664940e-01
4.907999999999999829e+01,1.664122610177113659e-01
4.911999999999999744e+01,1.464588174665642228e-01
4.915999999999999659e+01,1.358294878448546572e-01
4.920000000000000284e+01,1.830357599280101888e-01
4.924000000000000199e+01,1.705305840305702536e-01
4.928000000000000114e+01,2.270559772629985040e-01
4.932000000000000028e+01,2.593206313667059115e-01
4.935999999999999943e+01,2.915802926902482661e-01
4.939999999999999858e+01,1.316548610039451894e-01
4.943999999999999773e+01,2.049527293315345500e-01
4.947999999999999687e+01,1.457719549280234728e-01
4.952000000000000313e+01,2.545105711555834538e-01
4.956000000000000227e+01,2.345022070226241151e-01
4.960000000000000142e+01,1.902331382127389614e-01
4.964000000000000057e+01,2.224579878823099433e-01
4.967999999999999972e+01,1.259358719564170059e-01
4.971999999999999886e+01,1.450900358890657993e-01
4.975999999999999801e+01,2.463356118570423636e-01
4.979999999999999716e+01,2.225658895218211031e-01
4.984000000000000341e+01,2.510343688476096013e-01
4.988000000000000256e+01,1.563533859771761292e-01
4.992000000000000171e+01,2.407868005362963637e-01
4.996000000000000085e+01,1.815466738429047100e-01
5.000000000000000000e+01,1.876055523425007865e-01
5.003999999999999915e+01,2.608292672203762486e-01
5.007999999999999829e+01,2.183668495648768137e-01
5.011999999999999744e+01,2.374717993402100658e-01
5.015999999999999659e+01,1.931337618064926098e-01
5.020000000000000284e+01,1.581199661660238898e-01
5.024000000000000199e+01,2.611724295292683351e-01
5.028000000000000114e+01,1.925639970593981676e-01
5.032000000000000028e+01,2.788142698090608218e-01
5.035999999999999943e+01,2.792316646948323489e-01
5.039999999999999858e+01,1.695604452115253569e-01
5.043999999999999773e+01,2.240770770308342097e-01
5.047999999999999687e+01,1.834317144332791305e-01
5.052000000000000313e+01,2.323411624374895068e-01
5.056000000000000227e+01,2.401975875127657090e-01
5.060000000000000142e+01,2.088668208443978380e-01
5.064000000000000057e+01,2.745541845972729322e-01
5.067999999999999972e+01,2.767986250230026202e-01
5.071999999999999886e+01,1.969418844072176877e-01
5.075999999999999801e+01,2.327615516137856444e-01
5.079999999999999716e+01,1.528951748773091923e-01
5.084000000000000341e+01,2.036318259154001331e-01
5.088000000000000256e+01,2.263762772432751647e-01
5.092000000000000171e+01,1.726170509288769417e-01
5.096000000000000085e+01,6.847571958436805828e-02
5.100000000000000000e+01,1.397172660276971290e-01
5.103999999999999915e+01,2.352097678285055282e-01
5.107999999999999829e+01,2.094187813472488668e-01
5.111999999999999744e+01,2.097445863304461533e-01
5.115999999999999659e+01,2.249922301181502271e-01
5.120000000000000284e+01,1.488096206065320781e-01
5.124000000000000199e+01,2.274858295132027031e-01
5.128000000000000114e+01,1.345012656288853137e-01
5.132000000000000028e+01,2.896668431865012661e-01
5.135999999999999943e+01,2.750374840601048643e-01
5.139999999999999858e+01,1.950994639332885028e-01
5.143999999999999773e+01,1.748631473893058064e-01
5.147999999999999687e+01,1.770120140777322881e-01
5.152000000000000313e+01,2.519233780376002318e-01
5.156000000000000227e+01,2.036854865120185376e-01
5.160000000000000142e+01,2.692582799005702188e-01
5.164000000000000057e+01,2.284742640194912522e-01
5.167999999999999972e+01,2.175387610336680655e-01
5.171999999999999886e+01,2.551100385008414073e-01
5.175999999999999801e+01,2.012511315722829985e-01
5.179999999999999716e+01,2.052281462581185267e-01
5.184000000000000341e+01,1.364332490276480292e-01
5.188000000000000256e+01,2.113022913807930669e-01
5.192000000000000171e+01,1.872778639705254544e-01
5.196000000000000085e+01,1.259322384175113607e-01
5.200000000000000000e+01,1.410808217233713024e-01
5.203999999999999915e+01,1.506272632111476939e-01
5.207999999999999829e+01,2.403995759283784339e-01
5.211999999999999744e+01,1.286579989923202771e-01
5.215999999999999659e+01,1.288613496103794276e-01
5.220000000000000284e+01,2.018272811685264678e-01
5.224000000000000199e+01,2.020213500272186047e-01
5.228000000000000114e+01,1.238460823173234970e-01
5.232000000000000028e+01,2.023955921748179232e-01
5.235999999999999943e+01,1.410035086081145028e-01
5.239999999999999858e+01,1.393132467446863421e-01
5.243999999999999773e+01,2.290438579875102298e-01
5.247999999999999687e+01,2.068202845252738453e-01
5.252000000000000313e+01,1.920554121504133016e-01
5.256000000000000227e+01,1.511643730397150831e-01
5.260000000000000142e+01,1.326586549686064320e-01
5.264000000000000057e+01,1.477332204404063487e-01
5.267999999999999972e+01,1.684006804227165255e-01
5.271999999999999886e+01,2.170509550004878774e-01
5.275999999999999801e+01,2.041243884423427912e-01
5.279999999999999716e+01,2.061198624777911825e-01
5.284000000000000341e+01,3.088653901543702562e-01
5.288000000000000256e+01,2.436819944345740563e-01
5.292000000000000171e+01,1.840915227553991673e-01
5.296000000000000085e+01,1.860687679466948574e-01
5.300000000000000000e+01,2.477479086665406172e-01
5.303999999999999915e+01,1.862779760032839405e-01
5.307999999999999829e+01,2.759354356286163878e-01
5.311999999999999744e+01,1.995298276512895153e-01
5.315999999999999659e+01,1.940210924708865858e-01
5.320000000000000284e+01,1.791787056740551942e-01
5.324000000000000199e+01,2.165749388814629250e-01
5.328000000000000114e+01,2.129184838345197228e-01
5.332000000000000028e+01,1.850017818273600179e-01
5.335999999999999943e+01,2.652985024976584061e-01
5.339999999999999858e+01,1.925929738623315957e-01
5.343999999999999773e+01,2.243692252206228865e-01
5.347999999999999687e+01,3.046524735860517419e-01
5.352000000000000313e+01,1.106547802765527611e-01
5.356000000000000227e+01,1.573441989689282894e-01
5.360000000000000142e+01,1.611151425168273477e-01
5.364000000000000057e+01,3.029527634116681023e-01
5.367999999999999972e+01,1.499853734186610832e-01
5.371999999999999886e+01,1.052314503982785948e-01
5.375999999999999801e+01,1.780201305902324449e-01
5.379999999999999716e+01,2.228169703549791048e-01
5.384000000000000341e+01,1.705864028608011229e-01
5.388000000000000256e+01,2.041794068627209857e-01
5.392000000000000171e+01,1.426108397126908400e-01
5.396000000000000085e+01,2.825470822456707110e-01
5.400000000000000000e+01,2.713469755619054569e-01
5.403999999999999915e+01,1.911068801817226437e-01
5.407999999999999829e+01,1.817637707972193928e-01
5.411999999999999744e+01,1.742820805766780723e-01
5.415999999999999659e+01,2.451606912496080148e-01
5.420000000000000284e+01,2.451335066492550674e-01
5.424000000000000199e+01,2.115170569694145020e-01
5.428000000000000114e+01,2.226760502032015809e-01
5.432000000000000028e+01,2.916712751175397633e-01
5.435999999999999943e+01,1.554212334657401606e-01
5.439999999999999858e+01,1.758962253089527139e-01
5.443999999999999773e+01,2.654024211794051014e-01
5.447999999999999687e+01,2.578812885378928277e-01
5.452000000000000313e+01,2.279658828503213219e-01
5.456000000000000227e+01,1.402055100298701673e-01
5.460000000000000142e+01,2.352917630033342367e-01
5.464000000000000057e+01,2.034974869338865844e-01
5.467999999999999972e+01,2.463319232126046643e-01
5.471999999999999886e+01,1.921390605094687454e-01
5.475999999999999801e+01,1.995141361526308332e-01
5.479999999999999716e+01,1.938241045195555901e-01
5.484000000000000341e+01,2.105196695404330798e-01
5.488000000000000256e+01,2.607957937185820252e-01
5.492000000000000171e+01,1.711306394603744063e-01
5.496000000000000085e+01,1.710208421109729315e-01
5.500000000000000000e+01,1.932966611022640391e-01
5.503999999999999915e+01,2.528847114647775340e-01
5.507999999999999829e+01,2.844810788940049240e-01
5.511999999999999744e+01,2.246476753490451728e-01
5.515999999999999659e+01,2.394430432124726171e-01
5.520000000000000284e+01,2.523683105981464614e-01
5.524000000000000199e+01,2.466310460553022554e-01
5.528000000000000114e+01,1.587931615430388521e-01
5.532000000000000028e+01,1.530473731803241033e-01
5.535999999999999943e+01,2.368569909432654552e-01
5.539999999999999858e+01,2.833458338283742495e-01
5.543999999999999773e+01,2.570632077488314016e-01
5.547999999999999687e+01,2.046547742164586958e-01
5.552000000000000313e+01,2.679233341869591278e-01
5.556000000000000227e+01,2.472254823762302933e-01
5.560000000000000142e+01,1.705486176600383708e-01
5.564000000000000057e+01,2.767185067015729971e-01
5.567999999999999972e+01,2.410813845551632584e-01
5.571999999999999886e+01,2.296957936033819370e-01
5.575999999999999801e+01,2.817440903036300681e-01
5.579999999999999716e+01,1.584005178360895771e-01
5.584000000000000341e+01,2.552202490068106178e-01
5.588000000000000256e+01,2.009038622799840801e-01
5.592000000000000171e+01,2.025580778375052904e-01
5.596000000000000085e+01,2.247322015925555805e-01
5.600000000000000000e+01,1.871957091317823507e-01
5.603999999999999915e+01,3.026527994278978007e-01
5.607999999999999829e+01,2.725712752257085092e-01
5.611999999999999744e+01,2.536805475897594420e-01
5.615999999999999659e+01,2.366514901237095347e-01
5.620000000000000284e+01,2.308132390672713030e-01
5.624000000000000199e+01,2.175075367060734788e-01
5.628000000000000114e+01,2.620383071879948678e-01
5.632000000000000028e+01,2.020786705010416129e-01
5.635999999999999943e+01,2.148821266094217142e-01
5.639999999999999858e+01,2.743271127443421276e-01
5.643999999999999773e+01,2.927197994380301149e-01
5.647999999999999687e+01,2.346094926036669803e-01
5.652000000000000313e+01,2.567256033057980780e-01
5.656000000000000227e+01,2.489843869133850085e-01
5.660000000000000142e+01,2.263124584569573827e-01
5.664000000000000057e+01,1.831123440673824432e-01
5.667999999999999972e+01,2.779792810728134445e-01
5.671999999999999886e+01,2.273076823268989355e-01
5.675999999999999801e+01,1.729003487853431609e-01
5.679999999999999716e+01,2.173777298681321690e-01
5.684000000000000341e+01,3.196916526976306128e-01
5.688000000000000256e+01,2.148947927635430910e-01
5.692000000000000171e+01,2.313725773821218579e-01
5.696000000000000085e+01,1.993348214869518631e-01
5.700000000000000000e+01,2.139386694435986003e-01
5.703999999999999915e+01,2.733182999101413935e-01
5.707999999999999829e+01,1.946227439749264598e-01
5.711999999999999744e+01,1.980195056650880525e-01
5.715999999999999659e+01,2.629845010026506391e-01
5.720000000000000284e+01,2.738365065657578645e-01
5.724000000000000199e+01,2.212463959580677209e-01
5.728000000000000114e+01,1.779813983818798184e-01
5.732000000000000028e+01,2.149429167758873660e-01
5.735999999999999943e+01,2.649612105719780786e-01
5.739999999999999858e+01,2.664640179928561836e-01
5.743999999999999773e+01,2.026589075877561208e-01
5.747999999999999687e+01,1.892271126219038646e-01
5.752000000000000313e+01,2.541560319710678417e-01
5.756000000000000227e+01,2.612403533137310219e-01
5.760000000000000142e+01,3.261613099151193240e-01
5.764000000000000057e+01,2.324830601186806678e-01
5.767999999999999972e+01,2.264946756420256613e-01
5.771999999999999886e+01,1.365401451551327416e-01
5.775999999999999801e+01,1.958477565303743673e-01
5.779999999999999716e+01,2.271640196469143780e-01
5.784000000000000341e+01,2.398180707444641790e-01
5.788000000000000256e+01,3.009796602345070626e-01
5.792000000000000171e+01,2.445902555778395326e-01
5.796000000000000085e+01,1.975260476213189786e-01
5.800000000000000000e+01,1.821769564498977589e-01
5.803999999999999915e+01,2.657127324750576669e-01
5.807999999999999829e+01,1.272112632783399255e-01
5.811999999999999744e+01,2.704456449549119679e-01
5.815999999999999659e+01,1.711187023533149998e-01
5.820000000000000284e+01,2.247856082795998967e-01
5.824000000000000199e+01,3.064360079938821535e-01
5.828000000000000114e+01,2.294872800572980431e-01
5.832000000000000028e+01,3.428489406857606614e-01
5.835999999999999943e+01,2.845506996614882156e-01
5.839999999999999858e+01,2.337118832122933587e-01
5.843999999999999773e+01,2.612338942768699379e-01
5.847999999999999687e+01,2.831545559146567692e-01
5.852000000000000313e+01,2.379016063483560539e-01
5.856000000000000227e+01,2.486195838976163475e-01
5.860000000000000142e+01,1.977614388769773357e-01
5.864000000000000057e+01,1.972767520244517458e-01
5.867999999999999972e+01,2.508971807889365802e-01
5.871999999999999886e+01,3.045137684475584527e-01
5.875999999999999801e+01,2.760301643233589730e-01
5.879999999999999716e+01,2.307502925642163361e-01
5.884000000000000341e+01,2.078565096275314383e-01
5.888000000000000256e+01,2.446653457070984972e-01
5.892000000000000171e+01,2.366905349626948762e-01
5.896000000000000085e+01,2.529676540694093534e-01
5.900000000000000000e+01,1.927420897142309297e-01
5.903999999999999915e+01,2.276698630705481508e-01
5.907999999999999829e+01,2.513988820345343655e-01
5.911999999999999744e+01,2.340759313101868078e-01
5.915999999999999659e+01,2.036884097732720167e-01
5.920000000000000284e+01,2.236744153080623410e-01
5.924000000000000199e+01,2.119375972376014994e-01
5.928000000000000114e+01,2.225869221281329968e-01
5.932000000000000028e+01,2.276350009472596081e-01
5.935999999999999943e+01,2.308134911438780856e-01
5.939999999999999858e+01,2.022691774219853023e-01
5.943999999999999773e+01,2.222325940383021170e-01
5.947999999999999687e+01,2.291314792155323410e-01
5.952000000000000313e+01,1.837834863396465290e-01
5.956000000000000227e+01,2.559788103204286291e-01
5.960000000000000142e+01,2.777930923550697706e-01
5.964000000000000057e+01,2.641529474740988426e-01
5.967999999999999972e+01,2.411799482896775648e-01
5.971999999999999886e+01,2.835071502677103950e-01
5.975999999999999801e+01,2.698558511955266859e-01
5.979999999999999716e+01,2.170184923672602018e-01
5.984000000000000341e+01,2.500054383661631796e-01
5.988000000000000256e+01,2.997811223605191255e-01
5.992000000000000171e+01,3.271631977362962629e-01
5.996000000000000085e+01,1.679589582178960816e-01
