2.003999999999999915e+01,2.062781575878723170e-02
2.007999999999999829e+01,3.762847765494140712e-02
2.012000000000000099e+01,3.987297854495892857e-02
2.016000000000000014e+01,2.382841592875655640e-02
2.019999999999999929e+01,6.328038130958328622e-03
2.023999999999999844e+01,2.602596935981837598e-02
2.028000000000000114e+01,2.223939408669656226e-02
2.032000000000000028e+01,4.068824394883097800e-02
2.035999999999999943e+01,4.417312222567575108e-02
2.039999999999999858e+01,1.419824009693697667e-02
2.044000000000000128e+01,3.970964523599083279e-02
2.048000000000000043e+01,3.882709982724476261e-02
2.051999999999999957e+01,4.230764918773533001e-02
2.055999999999999872e+01,4.308548710287822547e-02
2.060000000000000142e+01,2.640554633243009236e-02
2.064000000000000057e+01,3.757212278251206850e-02
2.067999999999999972e+01,4.084054479148699346e-02
2.071999999999999886e+01,3.371699918705432092e-02
2.076000000000000156e+01,3.906145239503288485e-02
2.080000000000000071e+01,2.611686152718576542e-02
2.083999999999999986e+01,2.771845055613313819e-02
2.087999999999999901e+01,2.786424504828136778e-02
2.092000000000000171e+01,4.172495040379032433e-02
2.096000000000000085e+01,4.353115250782363388e-02
2.100000000000000000e+01,2.517795581800504057e-02
2.103999999999999915e+01,2.324130588700525774e-02
2.107999999999999829e+01,4.021501831592411147e-02
2.112000000000000099e+01,3.245734255190667328e-02
2.116000000000000014e+01,2.947841671863952670e-02
2.119999999999999929e+01,3.792841372838959280e-02
2.123999999999999844e+01,3.660991250860447244e-02
2.128000000000000114e+01,3.362781103045989206e-02
2.132000000000000028e+01,2.253975667604662253e-02
2.135999999999999943e+01,2.142590496334128083e-02
2.139999999999999858e+01,4.171623971245328605e-02
2.144000000000000128e+01,2.501394191588452928e-02
2.148000000000000043e+01,2.805329008546592756e-02
2.151999999999999957e+01,4.252157081326299326e-02
2.155999999999999872e+01,8.567240032869098340e-03
2.160000000000000142e+01,2.781323521672009885e-02
2.164000000000000057e+01,4.082364802952585109e-02
2.167999999999999972e+01,4.011703652558546579e-02
2.171999999999999886e+01,4.502046341622593234e-02
2.176000000000000156e+01,3.267396470442771039e-02
2.180000000000000071e+01,3.965348594286133288e-02
2.183999999999999986e+01,1.545928701524606520e-02
2.187999999999999901e+01,4.010124737594868150e-02
2.192000000000000171e+01,2.691931830153477395e-02
2.196000000000000085e+01,4.116831079172764141e-02
2.200000000000000000e+01,4.232374227704791686e-02
2.203999999999999915e+01,2.144944575288600455e-02
2.207999999999999829e+01,2.925298162988035355e-02
2.212000000000000099e+01,2.458641374187676976e-02
2.216000000000000014e+01,4.070060179261135447e-02
2.219999999999999929e+01,3.769451680928009862e-02
2.223999999999999844e+01,2.512778182196696505e-02
2.228000000000000114e+01,1.359910918854803294e-02
2.232000000000000028e+01,2.700755466263370097e-02
2.235999999999999943e+01,3.708988974268759981e-02
2.239999999999999858e+01,2.410341841506592059e-02
2.244000000000000128e+01,3.771661176261507931e-02
2.248000000000000043e+01,2.618282247570462989e-02
2.251999999999999957e+01,8.205659668986179517e-03
2.255999999999999872e+01,4.259758050987434708e-02
2.260000000000000142e+01,2.295583904689064286e-02
2.264000000000000057e+01,3.490139710447773269e-02
2.267999999999999972e+01,1.795925701955344150e-02
2.271999999999999886e+01,3.987804417854180078e-02
2.276000000000000156e+01,4.683293261622847176e-02
2.280000000000000071e+01,3.300502331137934037e-02
2.283999999999999986e+01,3.725625833780657481e-02
2.287999999999999901e+01,4.483157045526674211e-02
2.292000000000000171e+01,5.365278222257633539e-02
2.296000000000000085e+01,1.509051431347970505e-02
2.300000000000000000e+01,3.430060791490446154e-02
2.303999999999999915e+01,1.901193193334084833e-02
2.307999999999999829e+01,1.681477879605186229e-02
2.312000000000000099e+01,2.791696758299566303e-02
2.316000000000000014e+01,4.525269207958812490e-02
2.319999999999999929e+01,2.996001264081643578e-02
2.323999999999999844e+01,1.549760683597567294e-02
2.328000000000000114e+01,1.703618006522552089e-02
2.332000000000000028e+01,2.002848295388095362e-02
2.335999999999999943e+01,4.484066754106061370e-02
2.339999999999999858e+01,5.780624082071065400e-02
2.344000000000000128e+01,4.520922488037956710e-02
2.348000000000000043e+01,4.986010123948813461e-02
2.351999999999999957e+01,3.248129452190716415e-02
2.355999999999999872e+01,2.944093241474857181e-02
2.360000000000000142e+01,2.473704048441881936e-02
2.364000000000000057e+01,4.434685314011217738e-02
2.367999999999999972e+01,3.319863722326423655e-02
2.371999999999999886e+01,4.740321764903063229e-02
2.376000000000000156e+01,2.752468608212168405e-02
2.380000000000000071e+01,2.759568878210944334e-02
2.383999999999999986e+01,3.410806570210081490e-02
2.387999999999999901e+01,2.794257442512672329e-02
2.392000000000000171e+01,3.237481710812283031e-02
2.396000000000000085e+01,3.992335180538816863e-02
2.400000000000000000e+01,3.001421104104513154e-02
2.403999999999999915e+01,3.091062574543020774e-02
2.407999999999999829e+01,3.305297531725872456e-02
2.412000000000000099e+01,3.727253243316384218e-02
2.416000000000000014e+01,3.941294099637818182e-02
2.419999999999999929e+01,3.240839479231761439e-02
2.423999999999999844e+01,5.158793218030239408e-02
2.428000000000000114e+01,2.296839423595753091e-02
2.432000000000000028e+01,4.069127527161797014e-02
2.435999999999999943e+01,3.160468782514260638e-02
2.439999999999999858e+01,3.436275610478492504e-02
2.444000000000000128e+01,2.797587690355120976e-02
2.448000000000000043e+01,3.384929158835159324e-02
2.451999999999999957e+01,2.766831110325858323e-02
2.455999999999999872e+01,2.169419073061473399e-02
2.460000000000000142e+01,2.257710338268726497e-02
2.464000000000000057e+01,4.153921501402716571e-02
2.467999999999999972e+01,1.852116369266948448e-02
2.471999999999999886e+01,3.789700404970633429e-02
2.476000000000000156e+01,3.420410964865565340e-02
2.480000000000000071e+01,5.607186224457227919e-02
2.483999999999999986e+01,3.575163887983220240e-02
2.487999999999999901e+01,3.101680739405811293e-02
2.492000000000000171e+01,2.586539335365637196e-02
2.496000000000000085e+01,3.172738057873621120e-02
2.500000000000000000e+01,3.093825171123724613e-02
2.503999999999999915e+01,4.739706250477051380e-02
2.507999999999999829e+01,3.995587679318089724e-02
2.512000000000000099e+01,1.734304614431931429e-02
2.516000000000000014e+01,1.426415532083128920e-02
2.519999999999999929e+01,3.404429138604979366e-02
2.523999999999999844e+01,2.202735691252735717e-02
2.528000000000000114e+01,3.702580906767840435e-02
2.532000000000000028e+01,3.664480449199819523e-02
2.535999999999999943e+01,2.524851957661182131e-02
2.539999999999999858e+01,2.341092422619663049e-02
2.544000000000000128e+01,4.256200226086166716e-02
2.548000000000000043e+01,3.531928154770184319e-02
2.551999999999999957e+01,3.431016819377872423e-02
2.555999999999999872e+01,3.828775622014203572e-02
2.560000000000000142e+01,3.166570692431464051e-02
2.564000000000000057e+01,3.813525819434914615e-02
2.567999999999999972e+01,1.966574184746635104e-02
2.571999999999999886e+01,2.571781110095442552e-02
2.576000000000000156e+01,3.987385579010316317e-02
2.580000000000000071e+01,4.800226227134420792e-02
2.583999999999999986e+01,2.267107350537452340e-02
2.587999999999999901e+01,3.973381163539347477e-02
2.592000000000000171e+01,3.268876089712723781e-02
2.596000000000000085e+01,2.044734827078605044e-02
2.600000000000000000e+01,2.981807962779722820e-02
2.603999999999999915e+01,4.479898053456760065e-02
2.607999999999999829e+01,2.715156494275935625e-02
2.612000000000000099e+01,2.571303247298576539e-02
2.616000000000000014e+01,1.741560126266932657e-02
2.619999999999999929e+01,2.636614493097894779e-02
2.623999999999999844e+01,3.947213916213821588e-02
2.628000000000000114e+01,2.971726264796047123e-02
2.632000000000000028e+01,3.845727184895837009e-02
2.635999999999999943e+01,2.828495217902788142e-02
2.639999999999999858e+01,2.102118073619579919e-02
2.644000000000000128e+01,1.105487636478650997e-02
2.648000000000000043e+01,3.059780944074500311e-02
2.651999999999999957e+01,2.291570388103992065e-02
2.655999999999999872e+01,1.647960848156580435e-02
2.660000000000000142e+01,3.892930057598358723e-02
2.664000000000000057e+01,3.706340779575430927e-02
2.667999999999999972e+01,3.644352881895521201e-02
2.671999999999999886e+01,2.667877158206855698e-02
2.676000000000000156e+01,3.790272780545565073e-02
2.680000000000000071e+01,2.626582907070313527e-02
2.683999999999999986e+01,2.688929587157303305e-02
2.687999999999999901e+01,3.436986491794787740e-02
2.692000000000000171e+01,2.813356873395025937e-02
2.696000000000000085e+01,2.023384473636449452e-02
2.700000000000000000e+01,3.747919879661847087e-02
2.703999999999999915e+01,2.708389427728942131e-02
2.707999999999999829e+01,2.687078392439806382e-02
2.712000000000000099e+01,2.665679353998463147e-02
2.716000000000000014e+01,2.311683848951534906e-02
2.719999999999999929e+01,4.243597104774282647e-02
2.723999999999999844e+01,1.499520746701765543e-02
2.728000000000000114e+01,1.456989123495582884e-02
2.732000000000000028e+01,9.571708001087197992e-03
2.735999999999999943e+01,2.493880284681418771e-02
2.739999999999999858e+01,3.843466537179258263e-02
2.744000000000000128e+01,1.639280256996854257e-02
2.748000000000000043e+01,1.804130733987316035e-02
2.751999999999999957e+01,2.301403007118754326e-02
2.755999999999999872e+01,1.884190004480998729e-02
2.760000000000000142e+01,1.924089760199189716e-02
2.764000000000000057e+01,3.522537083172574274e-02
2.767999999999999972e+01,2.897246941679080048e-02
2.771999999999999886e+01,3.768159250653245473e-02
2.776000000000000156e+01,3.870059396948963976e-02
2.780000000000000071e+01,2.953566063336201739e-02
2.783999999999999986e+01,2.514968003275093109e-02
2.787999999999999901e+01,2.969901069322332388e-02
2.792000000000000171e+01,3.175367122346943460e-02
2.796000000000000085e+01,2.424785540890496069e-02
2.800000000000000000e+01,2.588517236418159603e-02
2.803999999999999915e+01,3.541871611034917711e-02
2.807999999999999829e+01,3.206670130597191748e-02
2.812000000000000099e+01,1.437440410654098472e-02
2.816000000000000014e+01,1.455359488800147053e-02
2.819999999999999929e+01,3.281209273031148593e-02
2.823999999999999844e+01,2.176742550056561323e-02
2.828000000000000114e+01,2.838643202935217311e-02
2.832000000000000028e+01,1.734007638615047212e-02
2.835999999999999943e+01,1.772286096353013762e-02
2.839999999999999858e+01,1.353281132789744580e-02
2.844000000000000128e+01,2.014845074497064598e-02
2.848000000000000043e+01,2.572416209232321685e-02
2.851999999999999957e+01,1.280324587745315483e-02
2.855999999999999872e+01,9.441115165138102769e-03
2.860000000000000142e+01,2.228794286764531826e-02
2.864000000000000057e+01,2.723685779460546103e-02
2.867999999999999972e+01,2.449567902597650157e-02
2.871999999999999886e+01,2.196148666737588254e-02
2.876000000000000156e+01,2.358282137881221457e-02
2.880000000000000071e+01,4.328348136709490174e-02
2.883999999999999986e+01,2.827772999480161059e-02
2.887999999999999901e+01,1.431024135236925662e-02
2.892000000000000171e+01,1.759081016774927814e-02
2.896000000000000085e+01,3.292399101638272818e-02
2.900000000000000000e+01,6.900593664171935336e-03
2.903999999999999915e+01,3.096048017119321441e-02
2.907999999999999829e+01,3.340648813421363827e-02
2.912000000000000099e+01,2.753896216336770841e-02
2.916000000000000014e+01,2.645042900323173532e-02
2.919999999999999929e+01,2.286726457366302853e-02
2.923999999999999844e+01,9.100209063402279683e-03
2.928000000000000114e+01,1.632194352060253525e-02
2.932000000000000028e+01,1.647705730928562470e-02
2.935999999999999943e+01,2.494407369516969675e-02
2.939999999999999858e+01,1.242067484892635937e-02
2.944000000000000128e+01,1.943134576883478321e-02
2.948000000000000043e+01,2.935065842462633579e-02
2.951999999999999957e+01,2.098119174374847226e-02
2.955999999999999872e+01,1.468909776531992541e-02
2.960000000000000142e+01,2.543726402394209246e-02
2.964000000000000057e+01,2.205301190026130384e-02
2.967999999999999972e+01,1.638196094550378040e-02
2.971999999999999886e+01,2.026973071089555739e-02
2.976000000000000156e+01,2.020816114954327239e-02
2.980000000000000071e+01,2.284742517371418299e-02
2.983999999999999986e+01,2.797970613224960365e-02
2.987999999999999901e+01,1.357631149036378666e-02
2.992000000000000171e+01,2.140863343968581536e-02
2.996000000000000085e+01,1.884926830195391909e-02
3.000000000000000000e+01,2.543309665405308825e-02
3.003999999999999915e+01,2.432687260015645517e-02
3.007999999999999829e+01,1.864786533803911364e-02
3.012000000000000099e+01,3.125604129351992888e-02
3.016000000000000014e+01,2.370509655270304147e-02
3.019999999999999929e+01,2.716771216374148923e-02
3.023999999999999844e+01,2.023864918852440187e-02
3.028000000000000114e+01,2.411533112840397869e-02
3.032000000000000028e+01,6.378172170676417972e-03
3.035999999999999943e+01,1.856600418821381659e-02
3.039999999999999858e+01,2.056998034265327541e-02
3.044000000000000128e+01,2.776862389971290410e-02
3.048000000000000043e+01,2.021142098019042266e-02
3.051999999999999957e+01,2.657723824553866535e-02
3.055999999999999872e+01,7.380682454069911400e-03
3.060000000000000142e+01,2.122639290764012296e-02
3.064000000000000057e+01,2.177098680113587204e-02
3.067999999999999972e+01,1.878190503019972618e-02
3.071999999999999886e+01,3.470347828953379565e-02
3.076000000000000156e+01,1.841251286618249272e-02
3.080000000000000071e+01,1.417421533847525519e-02
3.083999999999999986e+01,2.261204051748700108e-02
3.087999999999999901e+01,1.400803484277266669e-02
3.092000000000000171e+01,0.000000000000000000e+00
3.096000000000000085e+01,1.550133861737250200e-02
3.100000000000000000e+01,1.292176069642660824e-02
3.103999999999999915e+01,1.387432546963100234e-02
3.107999999999999829e+01,1.794339842026885026e-02
3.112000000000000099e+01,2.325861997271470860e-02
3.116000000000000014e+01,2.794963055134309232e-02
3.119999999999999929e+01,3.534151721948770170e-02
3.123999999999999844e+01,1.779450507228689041e-02
3.128000000000000114e+01,1.645653270469488172e-02
3.132000000000000028e+01,2.135234378431042496e-02
3.135999999999999943e+01,2.022068545759033581e-02
3.139999999999999858e+01,2.241336288906043209e-02
3.144000000000000128e+01,2.730692369644536002e-02
3.148000000000000043e+01,2.845901526183602925e-02
3.151999999999999957e+01,3.251981049749952390e-02
3.155999999999999872e+01,3.180004959217652000e-02
3.160000000000000142e+01,1.154466530562353252e-02
3.164000000000000057e+01,1.290159623279486627e-02
3.167999999999999972e+01,2.922067189022282616e-02
3.171999999999999886e+01,2.787448859964546111e-02
3.176000000000000156e+01,3.193083065243997737e-02
3.180000000000000071e+01,3.349262037178871859e-02
3.183999999999999986e+01,2.154551209749859877e-02
3.187999999999999901e+01,2.830127620551456044e-02
3.192000000000000171e+01,1.572924451305726667e-02
3.196000000000000085e+01,2.663989853954786685e-02
3.200000000000000000e+01,3.775763855685026343e-02
3.203999999999999915e+01,3.744466530809635596e-02
3.207999999999999829e+01,5.750464914083872232e-03
3.211999999999999744e+01,1.083929849235318321e-02
3.215999999999999659e+01,1.384922639789152622e-02
3.220000000000000284e+01,2.849622897195025484e-02
3.224000000000000199e+01,4.280566098248774973e-03
3.228000000000000114e+01,1.747139565110335593e-02
3.232000000000000028e+01,2.234878842207561195e-02
3.235999999999999943e+01,2.577073518899094737e-02
3.239999999999999858e+01,2.939978009071608431e-02
3.243999999999999773e+01,1.577922363474906081e-02
3.247999999999999687e+01,2.065373991152666053e-02
3.252000000000000313e+01,1.950082199956278475e-02
3.256000000000000227e+01,3.123189687906760895e-02
3.260000000000000142e+01,2.571337525847935263e-02
3.264000000000000057e+01,9.179794318948570481e-03
3.267999999999999972e+01,1.758364601647046527e-02
3.271999999999999886e+01,2.411642690841700465e-02
3.275999999999999801e+01,3.459703844482192592e-02
3.279999999999999716e+01,1.037135884623094188e-02
3.284000000000000341e+01,3.082581397033558324e-02
3.288000000000000256e+01,4.026521706189647998e-02
3.292000000000000171e+01,2.975340111630401033e-02
3.296000000000000085e+01,2.194251469381888406e-02
3.300000000000000000e+01,2.202800564779966441e-02
3.303999999999999915e+01,2.897078586485442309e-02
3.307999999999999829e+01,2.884705956697309129e-02
3.311999999999999744e+01,2.934608899421467521e-02
3.315999999999999659e+01,1.758316769636095525e-02
3.320000000000000284e+01,2.078243727595623785e-02
3.324000000000000199e+01,1.649956946709793884e-02
3.328000000000000114e+01,1.969745180438749882e-02
3.332000000000000028e+01,2.247900661100717817e-02
3.335999999999999943e+01,3.461167478259945945e-02
3.339999999999999858e+01,2.533841343092756854e-02
3.343999999999999773e+01,1.544101032622681099e-02
3.347999999999999687e+01,9.283641859622514259e-03
3.352000000000000313e+01,2.120574196904093447e-02
3.356000000000000227e+01,2.128153922847872415e-02
3.360000000000000142e+01,2.343483184474542610e-02
3.364000000000000057e+01,3.867996790683383979e-02
3.367999999999999972e+01,2.129701820630543890e-02
3.371999999999999886e+01,1.679809651483988794e-02
3.375999999999999801e+01,2.331284325681179728e-02
3.379999999999999716e+01,1.465620858626811955e-02
3.384000000000000341e+01,1.826015197131168957e-02
3.388000000000000256e+01,7.316169969314422969e-03
3.392000000000000171e+01,3.128491579756462887e-02
3.396000000000000085e+01,2.200213076732154480e-02
3.400000000000000000e+01,3.079882888589884765e-02
3.403999999999999915e+01,2.317724568500930879e-02
3.407999999999999829e+01,2.906315501945584689e-02
3.411999999999999744e+01,2.476532142998573438e-02
3.415999999999999659e+01,3.480625426688477991e-02
3.420000000000000284e+01,1.970056028846521937e-02
3.424000000000000199e+01,4.678122915003404825e-02
3.428000000000000114e+01,2.834912280036502516e-02
3.432000000000000028e+01,1.428053018786325755e-02
3.435999999999999943e+01,6.237995451395374723e-03
3.439999999999999858e+01,1.585932027662917410e-02
3.443999999999999773e+01,2.049235853210363764e-02
3.447999999999999687e+01,2.470910447450232889e-02
3.452000000000000313e+01,1.728739457807396129e-02
3.456000000000000227e+01,1.298229851186150259e-02
3.460000000000000142e+01,2.135343930594910122e-02
3.464000000000000057e+01,2.037212442555091929e-02
3.467999999999999972e+01,1.918234116963435029e-02
3.471999999999999886e+01,1.591372996257404276e-02
3.475999999999999801e+01,1.742428158219554157e-02
3.479999999999999716e+01,6.465114401555033252e-03
3.484000000000000341e+01,2.792488859565718518e-02
3.488000000000000256e+01,2.174424223253704214e-02
3.492000000000000171e+01,2.512257446154004398e-02
3.496000000000000085e+01,2.143445725239755129e-02
3.500000000000000000e+01,1.151116328174282312e-02
3.503999999999999915e+01,1.613448031981111822e-02
3.507999999999999829e+01,2.221188405082588288e-02
3.511999999999999744e+01,1.768993948680230854e-02
3.515999999999999659e+01,2.210352720462561635e-02
3.520000000000000284e+01,2.589302660301118220e-02
3.524000000000000199e+01,1.284864538280717887e-02
3.528000000000000114e+01,2.848249731569317544e-02
3.532000000000000028e+01,2.728247105878916709e-02
3.535999999999999943e+01,3.938215833245649333e-02
3.539999999999999858e+01,1.365836542373952307e-02
3.543999999999999773e+01,2.367861795469587000e-02
3.547999999999999687e+01,2.247607952353697022e-02
3.552000000000000313e+01,4.039215971618249218e-02
3.556000000000000227e+01,2.027694671848460917e-02
3.560000000000000142e+01,2.406016568123296381e-02
3.564000000000000057e+01,2.618022035514961168e-02
3.567999999999999972e+01,3.100128713135982816e-02
3.571999999999999886e+01,3.166537766083776795e-02
3.575999999999999801e+01,3.523830058696722500e-02
3.579999999999999716e+01,2.634153507282969292e-02
3.584000000000000341e+01,3.303049418320305741e-02
3.588000000000000256e+01,3.410775684553466608e-02
3.592000000000000171e+01,2.126060965189036089e-02
3.596000000000000085e+01,3.064936242382353820e-02
3.600000000000000000e+01,3.276387946644769567e-02
3.603999999999999915e+01,2.905888705307099751e-02
3.607999999999999829e+01,2.847055461710263149e-02
3.611999999999999744e+01,3.349269775964264922e-02
3.615999999999999659e+01,3.207188149270615712e-02
3.620000000000000284e+01,2.420810703069298936e-02
3.624000000000000199e+01,2.985189068160511161e-02
3.628000000000000114e+01,2.614326844842318476e-02
3.632000000000000028e+01,3.511093529473269942e-02
3.635999999999999943e+01,4.075291678694002023e-02
3.639999999999999858e+01,2.956105287815196520e-02
3.643999999999999773e+01,5.286635757568202559e-02
3.647999999999999687e+01,4.582965803972313679e-02
3.652000000000000313e+01,4.502689982294564436e-02
3.656000000000000227e+01,5.004244840863270039e-02
3.660000000000000142e+01,4.279615070760708212e-02
3.664000000000000057e+01,4.677142674236282882e-02
3.667999999999999972e+01,5.303210950829041065e-02
3.671999999999999886e+01,5.077167121075515377e-02
3.675999999999999801e+01,4.934191701428287946e-02
3.679999999999999716e+01,3.939104418314737233e-02
3.684000000000000341e+01,4.939010151324309261e-02
3.688000000000000256e+01,4.421787093960785620e-02
3.692000000000000171e+01,5.151412979590260649e-02
3.696000000000000085e+01,5.652381084188402155e-02
3.700000000000000000e+01,5.405146865299301912e-02
3.703999999999999915e+01,4.825346175479640343e-02
3.707999999999999829e+01,5.970376005197124136e-02
3.711999999999999744e+01,6.367203875747300124e-02
3.715999999999999659e+01,6.285993133796012600e-02
3.720000000000000284e+01,7.306159679026737186e-02
3.724000000000000199e+01,5.333691681379862382e-02
3.728000000000000114e+01,6.748597734936874482e-02
3.732000000000000028e+01,5.794323085171299709e-02
3.735999999999999943e+01,6.668788737801913113e-02
3.739999999999999858e+01,7.356161518352638540e-02
3.743999999999999773e+01,8.417549785271012663e-02
3.747999999999999687e+01,9.125591130542776153e-02
3.752000000000000313e+01,7.568361312471033608e-02
3.756000000000000227e+01,9.294597462903859963e-02
3.760000000000000142e+01,9.940124526555771389e-02
3.764000000000000057e+01,1.006605086187430526e-01
3.767999999999999972e+01,1.000488517519281390e-01
3.771999999999999886e+01,1.056711726362885434e-01
3.775999999999999801e+01,1.015254968382307832e-01
3.779999999999999716e+01,1.266815842971254769e-01
3.784000000000000341e+01,1.142220835175818960e-01
3.788000000000000256e+01,1.212969087425476711e-01
3.792000000000000171e+01,1.508155113042395912e-01
3.796000000000000085e+01,1.734755733733292504e-01
3.800000000000000000e+01,1.861598281808410915e-01
3.803999999999999915e+01,2.094422456314523340e-01
3.807999999999999829e+01,2.285677584849191701e-01
3.811999999999999744e+01,2.424972786278499215e-01
3.815999999999999659e+01,2.593357040314202000e-01
3.820000000000000284e+01,2.913442899779726258e-01
3.824000000000000199e+01,3.164943439327215224e-01
3.828000000000000114e+01,3.320842348578079140e-01
3.832000000000000028e+01,3.719882760536435962e-01
3.835999999999999943e+01,4.031634281108498752e-01
3.839999999999999858e+01,4.087764451335996752e-01
3.843999999999999773e+01,4.715388388285185473e-01
3.847999999999999687e+01,4.831775024541026253e-01
3.852000000000000313e+01,5.276508549103277046e-01
3.856000000000000227e+01,5.500949809041874028e-01
3.860000000000000142e+01,5.814747436182767792e-01
3.864000000000000057e+01,6.059959864845603228e-01
3.867999999999999972e+01,6.652222838291095286e-01
3.871999999999999886e+01,7.354624001926711729e-01
3.875999999999999801e+01,7.859592926870082596e-01
3.879999999999999716e+01,8.732394219583936579e-01
3.884000000000000341e+01,9.399450583271212745e-01
3.888000000000000256e+01,1.000000000000000000e+00
3.892000000000000171e+01,9.790054523215390159e-01
3.896000000000000085e+01,9.174859002900170868e-01
3.900000000000000000e+01,8.491078393402874402e-01
3.903999999999999915e+01,7.938217857803525623e-01
3.907999999999999829e+01,7.133892535618744368e-01
3.911999999999999744e+01,6.304623912451138290e-01
3.915999999999999659e+01,5.936705805851254514e-01
3.920000000000000284e+01,5.718411429625561704e-01
3.924000000000000199e+01,5.171759705133837093e-01
3.928000000000000114e+01,4.982549600862652972e-01
3.932000000000000028e+01,4.693581824727623975e-01
3.935999999999999943e+01,4.408765321651927360e-01
3.939999999999999858e+01,4.121865567812809661e-01
3.943999999999999773e+01,4.136296659069468862e-01
3.947999999999999687e+01,4.003172017959854001e-01
3.952000000000000313e+01,3.932387700841901701e-01
3.956000000000000227e+01,3.776393035313179158e-01
3.960000000000000142e+01,3.599611571840773405e-01
3.964000000000000057e+01,3.483092290136441949e-01
3.967999999999999972e+01,3.416444309066263840e-01
3.971999999999999886e+01,3.405902176740989162e-01
3.975999999999999801e+01,3.222866253190422858e-01
3.979999999999999716e+01,2.942150982159572048e-01
3.984000000000000341e+01,2.773652420006375019e-01
3.988000000000000256e+01,3.039488270490279254e-01
3.992000000000000171e+01,2.846041723854353389e-01
3.996000000000000085e+01,2.825079103539999137e-01
4.000000000000000000e+01,2.583824655785918467e-01
4.003999999999999915e+01,2.525445051919322226e-01
4.007999999999999829e+01,2.248851823556580753e-01
4.011999999999999744e+01,2.331778649093921574e-01
4.015999999999999659e+01,2.277540841990871867e-01
4.020000000000000284e+01,2.092372950358180606e-01
4.024000000000000199e+01,1.936294742819779646e-01
4.028000000000000114e+01,1.888277020431841924e-01
4.032000000000000028e+01,1.854801755837105215e-01
4.035999999999999943e+01,1.638441988899131119e-01
4.039999999999999858e+01,1.619504425733706843e-01
4.043999999999999773e+01,1.504965888047549438e-01
4.047999999999999687e+01,1.531738754721182205e-01
4.052000000000000313e+01,1.523177852174000813e-01
4.056000000000000227e+01,1.306794364136568687e-01
4.060000000000000142e+01,1.385507537404103151e-01
4.064000000000000057e+01,1.335368938381558124e-01
4.067999999999999972e+01,1.214567581569270249e-01
4.071999999999999886e+01,1.102074268023413295e-01
4.075999999999999801e+01,1.058156190899907784e-01
4.079999999999999716e+01,1.043327967886664293e-01
4.084000000000000341e+01,9.079607479256653069e-02
4.088000000000000256e+01,9.492340909093570367e-02
4.092000000000000171e+01,8.803593545112058105e-02
4.096000000000000085e+01,7.803073397873865058e-02
4.100000000000000000e+01,7.945505647727442444e-02
4.103999999999999915e+01,7.568347491645933955e-02
4.107999999999999829e+01,8.313360188980334353e-02
4.111999999999999744e+01,8.019238059363713311e-02
4.115999999999999659e+01,5.854709762002643925e-02
4.120000000000000284e+01,7.223039922854332384e-02
4.124000000000000199e+01,7.510672047963279363e-02
4.128000000000000114e+01,6.551351966322772891e-02
4.132000000000000028e+01,5.841368431392957722e-02
4.135999999999999943e+01,5.318376204946298480e-02
4.139999999999999858e+01,6.270846174884592283e-02
4.143999999999999773e+01,5.498383333049135929e-02
4.147999999999999687e+01,6.596236875039462877e-02
4.152000000000000313e+01,6.052284994359337367e-02
4.156000000000000227e+01,5.944706468032304181e-02
4.160000000000000142e+01,6.564446429280029749e-02
4.164000000000000057e+01,7.662123560872485806e-02
4.167999999999999972e+01,5.497016404199232126e-02
4.171999999999999886e+01,4.703463482651586841e-02
4.175999999999999801e+01,4.761920253773645195e-02
4.179999999999999716e+01,6.378967581903792483e-02
4.184000000000000341e+01,6.541246537885843371e-02
4.188000000000000256e+01,5.415011535606477355e-02
4.192000000000000171e+01,4.725150980640011739e-02
4.196000000000000085e+01,4.845737152431475736e-02
4.200000000000000000e+01,6.046933397646711561e-02
4.203999999999999915e+01,5.024435775347844274e-02
4.207999999999999829e+01,4.729258097903502739e-02
4.211999999999999744e+01,4.745764755636944221e-02
4.215999999999999659e+01,3.827048676638041685e-02
4.220000000000000284e+01,4.196761143821153145e-02
4.224000000000000199e+01,4.878158310501996830e-02
4.228000000000000114e+01,4.873714543440452879e-02
4.232000000000000028e+01,5.845972888543331247e-02
4.235999999999999943e+01,4.386720472093599138e-02
4.239999999999999858e+01,4.652314726698331820e-02
4.243999999999999773e+01,5.375066793891543349e-02
4.247999999999999687e+01,5.599014613544785191e-02
4.252000000000000313e+01,5.282594733986360064e-02
4.256000000000000227e+01,4.883006580884633602e-02
4.260000000000000142e+01,4.628849927793772523e-02
4.264000000000000057e+01,5.330614571831349818e-02
4.267999999999999972e+01,5.949211306645560415e-02
4.271999999999999886e+01,4.510370530872009898e-02
4.275999999999999801e+01,5.752339700681181889e-02
4.279999999999999716e+01,5.414852693566770542e-02
4.284000000000000341e+01,4.703253251207225455e-02
4.288000000000000256e+01,3.866922933712533400e-02
4.292000000000000171e+01,4.734659079436226436e-02
4.296000000000000085e+01,5.685482458463089750e-02
4.300000000000000000e+01,6.033594235890542973e-02
4.303999999999999915e+01,5.363358802041854473e-02
4.307999999999999829e+01,5.586700641493864278e-02
4.311999999999999744e+01,5.269676603333917769e-02
4.315999999999999659e+01,4.412286809001979282e-02
4.320000000000000284e+01,4.947237529630742203e-02
4.324000000000000199e+01,5.918566705091748287e-02
4.328000000000000114e+01,5.331222947464760858e-02
4.332000000000000028e+01,4.619149650542419411e-02
4.335999999999999943e+01,4.925345196335662035e-02
4.339999999999999858e+01,5.314629311271857476e-02
4.343999999999999773e+01,5.537620678120967754e-02
4.347999999999999687e+01,5.594319418322966225e-02
4.352000000000000313e+01,6.295215328995425186e-02
4.356000000000000227e+01,6.289492405449018109e-02
4.360000000000000142e+01,6.678585456582995794e-02
4.364000000000000057e+01,7.129986018943977599e-02
4.367999999999999972e+01,7.893075652641973194e-02
4.371999999999999886e+01,5.538859697404088095e-02
4.375999999999999801e+01,7.091582130542721518e-02
4.379999999999999716e+01,8.270195042995730217e-02
4.384000000000000341e+01,7.827791362852964951e-02
4.388000000000000256e+01,7.094405551127874743e-02
4.392000000000000171e+01,8.335252463846518078e-02
4.396000000000000085e+01,8.807136397078582646e-02
4.400000000000000000e+01,8.177548887370680863e-02
4.403999999999999915e+01,9.833921264763979819e-02
4.407999999999999829e+01,8.248298426846206732e-02
4.411999999999999744e+01,9.509743955917163150e-02
4.415999999999999659e+01,1.006457247236894337e-01
4.420000000000000284e+01,9.704966232083177269e-02
4.424000000000000199e+01,1.059223115830673217e-01
4.428000000000000114e+01,1.123007874045944404e-01
4.432000000000000028e+01,1.037160190663114351e-01
4.435999999999999943e+01,1.233941238187561545e-01
4.439999999999999858e+01,1.251995367223734112e-01
4.443999999999999773e+01,1.220169666561811139e-01
4.447999999999999687e+01,1.389923765671400302e-01
4.452000000000000313e+01,1.420436377180796794e-01
4.456000000000000227e+01,1.448867304502512721e-01
4.460000000000000142e+01,1.452356594569127746e-01
4.464000000000000057e+01,1.634565767771827272e-01
4.467999999999999972e+01,1.556999139926480702e-01
4.471999999999999886e+01,1.645683347571713362e-01
4.475999999999999801e+01,1.811256720661430786e-01
4.479999999999999716e+01,1.696272542579259912e-01
4.484000000000000341e+01,1.714288377930325291e-01
4.488000000000000256e+01,1.873616953480960190e-01
4.492000000000000171e+01,1.966440415816806953e-01
4.496000000000000085e+01,2.142387640283878736e-01
4.500000000000000000e+01,2.100122733966558186e-01
4.503999999999999915e+01,2.373737623493817894e-01
4.507999999999999829e+01,2.383420476101842655e-01
4.511999999999999744e+01,2.675732290353106668e-01
4.515999999999999659e+01,2.427714330780519625e-01
4.520000000000000284e+01,2.404136354782827334e-01
4.524000000000000199e+01,2.573825694670274777e-01
4.528000000000000114e+01,2.649993708116329949e-01
4.532000000000000028e+01,2.763565662566753733e-01
4.535999999999999943e+01,2.370058762402653951e-01
4.539999999999999858e+01,2.221773693089274804e-01
4.543999999999999773e+01,2.223114248613770327e-01
4.547999999999999687e+01,2.095604501271942921e-01
4.552000000000000313e+01,1.914058894808798039e-01
4.556000000000000227e+01,1.815637232636847787e-01
4.560000000000000142e+01,1.621616162519906312e-01
4.564000000000000057e+01,1.641644316283918936e-01
4.567999999999999972e+01,1.724014664215286485e-01
4.571999999999999886e+01,1.635971209032646978e-01
4.575999999999999801e+01,1.325559496490409384e-01
4.579999999999999716e+01,1.453640351208144166e-01
4.584000000000000341e+01,1.201411395029927109e-01
4.588000000000000256e+01,1.408456816955513391e-01
4.592000000000000171e+01,1.314163241185317688e-01
4.596000000000000085e+01,1.273899229968128433e-01
4.600000000000000000e+01,1.244023043680688168e-01
4.603999999999999915e+01,1.153876620177153034e-01
4.607999999999999829e+01,1.082430760513697632e-01
4.611999999999999744e+01,1.123203516335578994e-01
4.615999999999999659e+01,1.030969818427935197e-01
4.620000000000000284e+01,1.090440154749712232e-01
4.624000000000000199e+01,9.753404885182896666e-02
4.628000000000000114e+01,1.028570310048952108e-01
4.632000000000000028e+01,1.015295443404755776e-01
4.635999999999999943e+01,9.459067940076160141e-02
4.639999999999999858e+01,8.869060909802052584e-02
4.643999999999999773e+01,8.902478128561097659e-02
4.647999999999999687e+01,7.875995006770600271e-02
4.652000000000000313e+01,8.491243918129158519e-02
4.656000000000000227e+01,8.420664889823172017e-02
4.660000000000000142e+01,9.326800967759471539e-02
4.664000000000000057e+01,7.344239973992611192e-02
4.667999999999999972e+01,8.582827277378225761e-02
4.671999999999999886e+01,6.766463459493970989e-02
4.675999999999999801e+01,6.030724166391088908e-02
4.679999999999999716e+01,5.606683416943650938e-02
4.684000000000000341e+01,5.764504557817493047e-02
4.688000000000000256e+01,6.005424833112547878e-02
4.692000000000000171e+01,4.646119653246110620e-02
4.696000000000000085e+01,5.053238561703524839e-02
4.700000000000000000e+01,5.709711261348773825e-02
4.703999999999999915e+01,5.119249241601674799e-02
4.707999999999999829e+01,4.778141255922369740e-02
4.711999999999999744e+01,5.330622808981741456e-02
4.715999999999999659e+01,4.615388220412868642e-02
4.720000000000000284e+01,4.066380884008386626e-02
4.724000000000000199e+01,4.909726328002582407e-02
4.728000000000000114e+01,5.482881749368575391e-02
4.732000000000000028e+01,5.598811190543838412e-02
4.735999999999999943e+01,4.239207231732392694e-02
4.739999999999999858e+01,3.586157582736972799e-02
4.743999999999999773e+01,3.535753432218366465e-02
4.747999999999999687e+01,4.690666711735786559e-02
4.752000000000000313e+01,3.247830603011311185e-02
4.756000000000000227e+01,3.405166111763698739e-02
4.760000000000000142e+01,3.687166513968606618e-02
4.764000000000000057e+01,4.945885179855272207e-02
4.767999999999999972e+01,3.045746706252396713e-02
4.771999999999999886e+01,2.932816414888826662e-02
4.775999999999999801e+01,3.173151154851883843e-02
4.779999999999999716e+01,2.644534573566434399e-02
4.784000000000000341e+01,2.801691851380942733e-02
4.788000000000000256e+01,2.169116264271063119e-02
4.792000000000000171e+01,2.783423016148664844e-02
4.796000000000000085e+01,3.501613967882762773e-02
4.800000000000000000e+01,2.120819865994782311e-02
4.803999999999999915e+01,2.132380973305065056e-02
4.807999999999999829e+01,2.351735577570970154e-02
4.811999999999999744e+01,1.906048764887379593e-02
4.815999999999999659e+01,1.501901399592683525e-02
4.820000000000000284e+01,2.012128638471961245e-02
4.824000000000000199e+01,2.356077702061736348e-02
4.828000000000000114e+01,2.803911937027851742e-02
4.832000000000000028e+01,1.506052461340927004e-02
4.835999999999999943e+01,3.533255316064810858e-02
4.839999999999999858e+01,1.798931407099569127e-02
4.843999999999999773e+01,8.335103250573242667e-03
4.847999999999999687e+01,2.195626183065721784e-02
4.852000000000000313e+01,7.729596098292077638e-03
4.856000000000000227e+01,2.176593096863344359e-02
4.860000000000000142e+01,2.561896252778542507e-02
4.864000000000000057e+01,2.406850289799003506e-02
4.867999999999999972e+01,2.251781779816423509e-02
4.871999999999999886e+01,2.782489800613361167e-02
4.875999999999999801e+01,2.897539786170514470e-02
4.879999999999999716e+01,1.599406103247744820e-02
4.884000000000000341e+01,1.943011496992873288e-02
4.888000000000000256e+01,1.476105275257274044e-02
4.892000000000000171e+01,1.923575843615284164e-02
4.896000000000000085e+01,1.560535039372532365e-02
4.900000000000000000e+01,2.194998414326686589e-02
4.903999999999999915e+01,2.330677457897570998e-02
4.907999999999999829e+01,2.029917651192665942e-02
4.911999999999999744e+01,2.165554150997055227e-02
4.915999999999999659e+01,1.137389513951375664e-02
4.920000000000000284e+01,2.270509710429290118e-02
4.924000000000000199e+01,2.468428665051290369e-02
4.928000000000000114e+01,1.814273645480690353e-02
4.932000000000000028e+01,1.721206258954295978e-02
4.935999999999999943e+01,1.856718042018716541e-02
4.939999999999999858e+01,1.451883013548012011e-02
4.943999999999999773e+01,1.254845610992240922e-02
4.947999999999999687e+01,1.244824169235553106e-02
4.952000000000000313e+01,1.837454540834635927e-02
4.956000000000000227e+01,1.328630349650959663e-02
4.960000000000000142e+01,1.110731416365476863e-02
4.964000000000000057e+01,2.389101482656638339e-02
4.967999999999999972e+01,1.880218394142399094e-02
4.971999999999999886e+01,1.994769512739669182e-02
4.975999999999999801e+01,1.589756699317474223e-02
4.979999999999999716e+01,1.808178335886740165e-02
4.984000000000000341e+01,2.130489879991565028e-02
4.988000000000000256e+01,2.307310014401900075e-02
4.992000000000000171e+01,1.174858813430940813e-02
4.996000000000000085e+01,2.079004034008181262e-02
5.000000000000000000e+01,1.549187442749068097e-02
5.003999999999999915e+01,1.767496749456317143e-02
5.007999999999999829e+01,1.196079870438071860e-02
5.011999999999999744e+01,1.061062333928613696e-02
5.015999999999999659e+01,1.300098901700414561e-02
5.020000000000000284e+01,2.391170785977670896e-02
5.024000000000000199e+01,2.006718013946787865e-02
5.028000000000000114e+01,1.601465765956222587e-02
5.032000000000000028e+01,1.237759523113469116e-02
5.035999999999999943e+01,1.871561588426942299e-02
5.039999999999999858e+01,2.297528463098154686e-02
5.043999999999999773e+01,2.058460964338713201e-02
5.047999999999999687e+01,2.235012114492037141e-02
5.052000000000000313e+01,1.497147695424634606e-02
5.056000000000000227e+01,1.258029314373307686e-02
5.060000000000000142e+01,1.060457788549644918e-02
5.064000000000000057e+01,1.444759689845358762e-02
5.067999999999999972e+01,1.434191171576153223e-02
5.071999999999999886e+01,1.589860592189576427e-02
5.075999999999999801e+01,2.701475962247346443e-02
5.079999999999999716e+01,1.049097609694885601e-02
5.084000000000000341e+01,1.495663710037698629e-02
5.088000000000000256e+01,1.796741436685515142e-02
5.092000000000000171e+01,2.804384159867576165e-02
5.096000000000000085e+01,8.402157806409776136e-03
5.100000000000000000e+01,1.743918442635477434e-02
5.103999999999999915e+01,1.670861754461484480e-02
5.107999999999999829e+01,3.924461854447856834e-03
5.111999999999999744e+01,2.127374527859980657e-02
5.115999999999999659e+01,1.493164185185638648e-02
5.120000000000000284e+01,1.794119341239592061e-02
5.124000000000000199e+01,1.949587216558373512e-02
5.128000000000000114e+01,1.543932201465252410e-02
5.132000000000000028e+01,1.262953373742778558e-02
5.135999999999999943e+01,1.272905147277621565e-02
5.139999999999999858e+01,1.262060845172221536e-02
5.143999999999999773e+01,1.749965252762453183e-02
5.147999999999999687e+01,1.406584151914820092e-02
5.152000000000000313e+01,1.437261284307761455e-02
5.156000000000000227e+01,1.405579253708708586e-02
5.160000000000000142e+01,1.145283889110966687e-02
5.164000000000000057e+01,1.362956054852914115e-02
5.167999999999999972e+01,1.663741927813658025e-02
5.171999999999999886e+01,1.881387336986501194e-02
5.175999999999999801e+01,1.662602032362205801e-02
5.179999999999999716e+01,3.423689655940252794e-03
5.184000000000000341e+01,1.536719118837323074e-02
5.188000000000000256e+01,1.213986021699974167e-02
5.192000000000000171e+01,1.493912024317194109e-02
5.196000000000000085e+01,2.085552236347258670e-02
5.200000000000000000e+01,2.136853530440901636e-02
5.203999999999999915e+01,2.541432849939019231e-02
5.207999999999999829e+01,1.886128830484775157e-02
5.211999999999999744e+01,1.189249134754097673e-02
5.215999999999999659e+01,1.822391796872108519e-02
5.220000000000000284e+01,2.497086171816984695e-02
5.224000000000000199e+01,1.696261962452712616e-02
5.228000000000000114e+01,1.269498293688633983e-02
5.232000000000000028e+01,5.102145440663153307e-03
5.235999999999999943e+01,1.475807704053463433e-02
5.239999999999999858e+01,2.150444599174012802e-02
5.243999999999999773e+01,1.889889967637030030e-02
5.247999999999999687e+01,1.130561448555046991e-02
5.252000000000000313e+01,1.451874941611550236e-02
5.256000000000000227e+01,2.271940544683115001e-02
5.260000000000000142e+01,1.678834016072853694e-02
5.264000000000000057e+01,1.584479840357626637e-02
5.267999999999999972e+01,1.344642755746499989e-02
5.271999999999999886e+01,1.416522187907836954e-02
5.275999999999999801e+01,2.111845056619151423e-02
5.279999999999999716e+01,2.183704289970301790e-02
5.284000000000000341e+01,2.213990032964645305e-02
5.288000000000000256e+01,1.433776304476253732e-02
5.292000000000000171e+01,2.523913691647898874e-02
5.296000000000000085e+01,1.286481431640773207e-02
5.300000000000000000e+01,1.462201225945251003e-02
5.303999999999999915e+01,2.261365306879575127e-02
5.307999999999999829e+01,2.977393052985302657e-02
5.311999999999999744e+01,3.360903147032396482e-02
5.315999999999999659e+01,2.227333876778207072e-02
5.320000000000000284e+01,2.340662975588839526e-02
5.324000000000000199e+01,1.664275482432394856e-02
5.328000000000000114e+01,1.943841589439035400e-02
5.332000000000000028e+01,1.620727426361082482e-02
5.335999999999999943e+01,2.980929635780411174e-02
5.339999999999999858e+01,2.159036039751597094e-02
5.343999999999999773e+01,1.794333652305747998e-02
5.347999999999999687e+01,1.969949741106163596e-02
5.352000000000000313e+01,1.813049392247741490e-02
5.356000000000000227e+01,2.778357786078955102e-02
5.360000000000000142e+01,2.933168894347067471e-02
5.364000000000000057e+01,2.734682142720443881e-02
5.367999999999999972e+01,2.078988719859893933e-02
5.371999999999999886e+01,1.859705569106320788e-02
5.375999999999999801e+01,2.388559610237236605e-02
5.379999999999999716e+01,2.044571613337447039e-02
5.384000000000000341e+01,2.511066410869618876e-02
5.388000000000000256e+01,2.270973705697728467e-02
5.392000000000000171e+01,1.906183642825150584e-02
5.396000000000000085e+01,1.957022794143599420e-02
5.400000000000000000e+01,1.924728403752988537e-02
5.403999999999999915e+01,2.245718110765856576e-02
5.407999999999999829e+01,2.816083103842992666e-02
5.411999999999999744e+01,2.492825243853443590e-02
5.415999999999999659e+01,2.294252193473105342e-02
5.420000000000000284e+01,2.968508390152051202e-02
5.424000000000000199e+01,1.585362050957454458e-02
5.428000000000000114e+01,2.197261675717209622e-02
5.432000000000000028e+01,1.458339750381783956e-02
5.435999999999999943e+01,2.859936537771531548e-02
5.439999999999999858e+01,2.765239512055206114e-02
5.443999999999999773e+01,2.441937774578754883e-02
5.447999999999999687e+01,2.596612189680573210e-02
5.452000000000000313e+01,2.148609977897191631e-02
5.456000000000000227e+01,2.344838454018713728e-02
5.460000000000000142e+01,2.748880221812581917e-02
5.464000000000000057e+01,1.282556747135219465e-02
5.467999999999999972e+01,2.767242632380450748e-02
5.471999999999999886e+01,2.402345304590248337e-02
5.475999999999999801e+01,1.601026371001407211e-02
5.479999999999999716e+01,2.566155327972473657e-02
5.484000000000000341e+01,2.616881831240637155e-02
5.488000000000000256e+01,2.314314239253452421e-02
5.492000000000000171e+01,2.115651977679266701e-02
5.496000000000000085e+01,2.083240527625574226e-02
5.500000000000000000e+01,2.030043931529830828e-02
5.503999999999999915e+01,3.930332033636400879e-02
5.507999999999999829e+01,3.066639407210587295e-02
5.511999999999999744e+01,2.452325224288522468e-02
5.515999999999999659e+01,2.586152483650254116e-02
5.520000000000000284e+01,3.197958081509884309e-02
5.524000000000000199e+01,2.064090977832989254e-02
5.528000000000000114e+01,2.966836447221631382e-02
5.532000000000000028e+01,2.830490200852116625e-02
5.535999999999999943e+01,2.798050620735389321e-02
5.539999999999999858e+01,2.266846018192188866e-02
5.543999999999999773e+01,2.920201225685188987e-02
5.547999999999999687e+01,2.243520191398254426e-02
5.552000000000000313e+01,2.585144917580785295e-02
5.556000000000000227e+01,2.573477612987623564e-02
5.560000000000000142e+01,2.894317355401310188e-02
5.564000000000000057e+01,2.716392804028409241e-02
5.567999999999999972e+01,3.078793408100687079e-02
5.571999999999999886e+01,2.090376712477066273e-02
5.575999999999999801e+01,2.743720102637866101e-02
5.579999999999999716e+01,2.628136459546129289e-02
5.584000000000000341e+01,2.055352702979383259e-02
5.588000000000000256e+01,2.604784732621094265e-02
5.592000000000000171e+01,2.759362251335257393e-02
5.596000000000000085e+01,3.142538977236920134e-02
5.600000000000000000e+01,2.569753198083424284e-02
5.603999999999999915e+01,3.597164781682532508e-02
5.607999999999999829e+01,2.504834055979659677e-02
5.611999999999999744e+01,3.449118453581892507e-02
5.615999999999999659e+01,2.959459741104677327e-02
5.620000000000000284e+01,2.989345976236538679e-02
5.624000000000000199e+01,3.206268695524081003e-02
5.628000000000000114e+01,2.571138692615506163e-02
5.632000000000000028e+01,3.390734396648543286e-02
5.635999999999999943e+01,3.420622981032940546e-02
5.639999999999999858e+01,1.975005610866086003e-02
5.643999999999999773e+01,2.566004335524183291e-02
5.647999999999999687e+01,2.367296304853577782e-02
5.652000000000000313e+01,2.937515631981903533e-02
5.656000000000000227e+01,2.614119513882302848e-02
5.660000000000000142e+01,2.934960277126595282e-02
5.664000000000000057e+01,3.151893727144664675e-02
5.667999999999999972e+01,2.225830657584723996e-02
5.671999999999999886e+01,3.003875948036218921e-02
5.675999999999999801e+01,2.431107096231309439e-02
5.679999999999999716e+01,3.562446847317796150e-02
5.684000000000000341e+01,3.218281979692814987e-02
5.688000000000000256e+01,4.079463080499146771e-02
5.692000000000000171e+01,3.257321939915613224e-02
5.696000000000000085e+01,3.204109492970797640e-02
5.700000000000000000e+01,1.987119711411978670e-02
5.703999999999999915e+01,3.160038217727004217e-02
5.707999999999999829e+01,2.815889260858775792e-02
5.711999999999999744e+01,3.178324123721680550e-02
5.715999999999999659e+01,3.499198611745618637e-02
5.720000000000000284e+01,3.674603913591383691e-02
5.724000000000000199e+01,2.374505811125485200e-02
5.728000000000000114e+01,3.069462780612443667e-02
5.732000000000000028e+01,3.265660556791967484e-02
5.735999999999999943e+01,3.565771071223269861e-02
5.739999999999999858e+01,3.159304769668747764e-02
5.743999999999999773e+01,2.503461077796752948e-02
5.747999999999999687e+01,2.824365523841572065e-02
5.752000000000000313e+01,3.103710688007244381e-02
5.756000000000000227e+01,3.279151332066237295e-02
5.760000000000000142e+01,3.184433285011841613e-02
5.764000000000000057e+01,3.027374533842405735e-02
5.767999999999999972e+01,3.867846314345521619e-02
5.771999999999999886e+01,4.230341902496830703e-02
5.775999999999999801e+01,3.553753182728762450e-02
5.779999999999999716e+01,3.729222853062336140e-02
5.784000000000000341e+01,3.447498481919882701e-02
5.788000000000000256e+01,3.082652348746424756e-02
5.792000000000000171e+01,4.006282487667100350e-02
5.796000000000000085e+01,3.579102127530753297e-02
5.800000000000000000e+01,3.276618235241701704e-02
5.803999999999999915e+01,3.348212370909948304e-02
5.807999999999999829e+01,3.253558205523753716e-02
5.811999999999999744e+01,4.218781267317392447e-02
5.815999999999999659e+01,3.770849077586405085e-02
5.820000000000000284e+01,3.530741109125957317e-02
5.824000000000000199e+01,3.768620708601882335e-02
5.828000000000000114e+01,4.193542985672465973e-02
5.832000000000000028e+01,4.140490891990953465e-02
5.835999999999999943e+01,3.671809908664824817e-02
5.839999999999999858e+01,3.078445168915761032e-02
5.843999999999999773e+01,3.544958627866365980e-02
5.847999999999999687e+01,3.720534280827316603e-02
5.852000000000000313e+01,3.251881877789379593e-02
5.856000000000000227e+01,2.970273002425958750e-02
5.860000000000000142e+01,4.018706036747998062e-02
5.864000000000000057e+01,4.319002446611908824e-02
5.867999999999999972e+01,3.434744835785129985e-02
5.871999999999999886e+01,3.070039823286162955e-02
5.875999999999999801e+01,3.391141823001661559e-02
5.879999999999999716e+01,3.836942719364045545e-02
5.884000000000000341e+01,2.931935788348981678e-02
5.888000000000000256e+01,3.918079854106790855e-02
5.892000000000000171e+01,3.491070975699595014e-02
5.896000000000000085e+01,3.292670412478389264e-02
5.900000000000000000e+01,4.361967613674930938e-02
5.903999999999999915e+01,3.831076156023886792e-02
5.907999999999999829e+01,3.902865535883807968e-02
5.911999999999999744e+01,4.327954436024662038e-02
5.915999999999999659e+01,3.755526851757094026e-02
5.920000000000000284e+01,4.180634413881312295e-02
5.924000000000000199e+01,3.899170746258780879e-02
5.928000000000000114e+01,4.594460681352151299e-02
5.932000000000000028e+01,3.772689953901142007e-02
5.935999999999999943e+01,4.239399870383531166e-02
5.939999999999999858e+01,4.851592291668349599e-02
5.943999999999999773e+01,4.507832651736286278e-02
5.947999999999999687e+01,4.330337546042439811e-02
5.952000000000000313e+01,3.903471364910088282e-02
5.956000000000000227e+01,3.393488522225884124e-02
5.960000000000000142e+01,3.694005961330742993e-02
5.964000000000000057e+01,4.410169859103772738e-02
5.967999999999999972e+01,4.357418503302312035e-02
5.971999999999999886e+01,5.219076726389032528e-02
5.975999999999999801e+01,4.813057061441179674e-02
5.979999999999999716e+01,4.635648261918898921e-02
5.984000000000000341e+01,4.354341864368783954e-02
5.988000000000000256e+01,4.426337294459221222e-02
5.992000000000000171e+01,4.165835717287600520e-02
5.996000000000000085e+01,4.508017649306496344e-02
