2.003999999999999915e+01,4.398393076627640785e-02
2.007999999999999829e+01,4.946256744207817857e-02
2.012000000000000099e+01,5.916693911087791274e-02
2.016000000000000014e+01,6.301604146814436536e-02
2.019999999999999929e+01,6.816413913490682042e-02
2.023999999999999844e+01,7.851355919907056224e-02
2.028000000000000114e+01,7.812980979645950397e-02
2.032000000000000028e+01,6.018382415565616539e-02
2.035999999999999943e+01,4.483761703020620187e-02
2.039999999999999858e+01,5.843188448659888956e-02
2.044000000000000128e+01,5.348834058931541124e-02
2.048000000000000043e+01,6.707907526416752308e-02
2.051999999999999957e+01,4.814867128919542855e-02
2.055999999999999872e+01,5.360603754229267132e-02
2.060000000000000142e+01,6.231358210627788857e-02
2.064000000000000057e+01,4.695503175102639509e-02
2.067999999999999972e+01,4.980557645535550748e-02
2.071999999999999886e+01,3.444351789638151751e-02
2.076000000000000156e+01,4.899753361255200501e-02
2.080000000000000071e+01,6.062305656742480314e-02
2.083999999999999986e+01,4.883288235044395270e-02
2.087999999999999901e+01,4.094328828803720649e-02
2.092000000000000171e+01,3.955582645485887505e-02
2.096000000000000085e+01,7.003561165745932071e-02
2.100000000000000000e+01,7.775009538743780924e-02
2.103999999999999915e+01,3.180587312822896057e-02
2.107999999999999829e+01,4.211843554771443898e-02
2.112000000000000099e+01,6.771337177663151741e-02
2.116000000000000014e+01,6.501472091921484120e-02
2.119999999999999929e+01,5.938759778201520290e-02
2.123999999999999844e+01,3.945022304723582590e-02
2.128000000000000114e+01,6.633902438583662298e-02
2.132000000000000028e+01,4.834936541175634261e-02
2.135999999999999943e+01,6.417813647484710282e-02
2.139999999999999858e+01,4.716062019413342493e-02
2.144000000000000128e+01,3.014138770236153564e-02
2.148000000000000043e+01,5.019252892534275395e-02
2.151999999999999957e+01,4.260048900197954680e-02
2.155999999999999872e+01,5.646952673065767925e-02
2.160000000000000142e+01,5.505275003518123739e-02
2.164000000000000057e+01,4.680519854983479500e-02
2.167999999999999972e+01,4.863694949503567788e-02
2.171999999999999886e+01,6.347474869875097125e-02
2.176000000000000156e+01,6.660387295735821500e-02
2.180000000000000071e+01,7.038168694489629895e-02
2.183999999999999986e+01,5.041866121105523929e-02
2.187999999999999901e+01,4.866479198133984857e-02
2.192000000000000171e+01,7.715225017647511785e-02
2.196000000000000085e+01,5.068027447665614249e-02
2.200000000000000000e+01,5.379924279136533843e-02
2.203999999999999915e+01,4.130722545827358871e-02
2.207999999999999829e+01,3.661817476405446886e-02
2.212000000000000099e+01,5.306503664268520659e-02
2.216000000000000014e+01,5.260014400471819951e-02
2.219999999999999929e+01,3.749985517149413694e-02
2.223999999999999844e+01,5.589284768146159099e-02
2.228000000000000114e+01,5.704889806597254753e-02
2.232000000000000028e+01,4.389475215299425137e-02
2.235999999999999943e+01,2.911296836987764189e-02
2.239999999999999858e+01,5.692989921531698555e-02
2.244000000000000128e+01,7.921687124716704498e-02
2.248000000000000043e+01,4.426807973684277614e-02
2.251999999999999957e+01,4.021103388026753267e-02
2.255999999999999872e+01,5.794031063283409944e-02
2.260000000000000142e+01,8.184661188367889362e-02
2.264000000000000057e+01,4.526522025182715125e-02
2.267999999999999972e+01,5.063217007896580329e-02
2.271999999999999886e+01,6.705405684852948356e-02
2.276000000000000156e+01,6.461305730389088620e-02
2.280000000000000071e+01,8.525916767055438661e-02
2.283999999999999986e+01,5.387263298141175411e-02
2.287999999999999901e+01,6.183289996551468576e-02
2.292000000000000171e+01,2.263843228980676539e-02
2.296000000000000085e+01,6.864308960075407584e-02
2.300000000000000000e+01,6.749301634819331042e-02
2.303999999999999915e+01,7.414595889014148622e-02
2.307999999999999829e+01,7.461858788229903949e-02
2.312000000000000099e+01,6.305741781318696670e-02
2.316000000000000014e+01,5.572213839659703044e-02
2.319999999999999929e+01,3.927980779485593099e-02
2.323999999999999844e+01,5.925755351990847491e-02
2.328000000000000114e+01,6.459995834979501139e-02
2.332000000000000028e+01,4.490082422665678946e-02
2.335999999999999943e+01,5.609347876844903574e-02
2.339999999999999858e+01,6.891048622516982025e-02
2.344000000000000128e+01,6.416541719951558698e-02
2.348000000000000043e+01,3.015129862037578198e-02
2.351999999999999957e+01,5.369486467042308003e-02
2.355999999999999872e+01,3.105931009102206458e-02
2.360000000000000142e+01,8.159074439612604146e-02
2.364000000000000057e+01,5.667562436993133640e-02
2.367999999999999972e+01,5.777440309418696573e-02
2.371999999999999886e+01,6.309910114508589241e-02
2.376000000000000156e+01,6.517026424458520484e-02
2.380000000000000071e+01,5.098014430832353838e-02
2.383999999999999986e+01,4.621904989616488352e-02
2.387999999999999901e+01,6.226876442220880686e-02
2.392000000000000171e+01,5.295177696418788826e-02
2.396000000000000085e+01,4.883630238165762721e-02
2.400000000000000000e+01,5.545063652908761159e-02
2.403999999999999915e+01,5.620990003567564314e-02
2.407999999999999829e+01,7.485323894140891166e-02
2.412000000000000099e+01,5.869926725776291460e-02
2.416000000000000014e+01,5.945379380962631521e-02
2.419999999999999929e+01,4.784938284699793293e-02
2.423999999999999844e+01,3.656859279722856487e-02
2.428000000000000114e+01,4.837498844036637602e-02
2.432000000000000028e+01,3.383912132101618564e-02
2.435999999999999943e+01,5.799974414989106375e-02
2.439999999999999858e+01,4.573710195988336252e-02
2.444000000000000128e+01,4.973258483581993739e-02
2.448000000000000043e+01,2.836139440181267846e-02
2.451999999999999957e+01,2.650027066318096092e-02
2.455999999999999872e+01,4.935231572108116083e-02
2.460000000000000142e+01,4.195978731379960969e-02
2.464000000000000057e+01,3.911841909395876588e-02
2.467999999999999972e+01,4.538092565608931039e-02
2.471999999999999886e+01,4.123568384957419786e-02
2.476000000000000156e+01,5.302338974090270440e-02
2.480000000000000071e+01,4.334676374725292963e-02
2.483999999999999986e+01,3.009146434898096398e-02
2.487999999999999901e+01,4.382570640564260184e-02
2.492000000000000171e+01,3.609562272178040709e-02
2.496000000000000085e+01,6.055818464216002062e-02
2.500000000000000000e+01,2.876069331384779534e-02
2.503999999999999915e+01,5.614693321104372720e-02
2.507999999999999829e+01,6.336963057357306028e-02
2.512000000000000099e+01,5.823343752909466986e-02
2.516000000000000014e+01,3.260851229294010889e-02
2.519999999999999929e+01,2.746926983067473141e-02
2.523999999999999844e+01,3.858819339738382703e-02
2.528000000000000114e+01,4.482769107588604335e-02
2.532000000000000028e+01,3.610675856163555325e-02
2.535999999999999943e+01,2.088043548891721155e-02
2.539999999999999858e+01,7.589444968770592270e-02
2.544000000000000128e+01,8.245308324697697699e-02
2.548000000000000043e+01,9.063617622505476534e-02
2.551999999999999957e+01,3.540498000752853591e-02
2.555999999999999872e+01,6.634862316644322966e-02
2.560000000000000142e+01,7.095006910371719211e-02
2.564000000000000057e+01,6.319265125995333909e-02
2.567999999999999972e+01,6.551474066188690826e-02
2.571999999999999886e+01,5.612835788571084172e-02
2.576000000000000156e+01,2.235094860037696932e-02
2.580000000000000071e+01,3.214800929641493249e-02
2.583999999999999986e+01,3.381373524523868801e-02
2.587999999999999901e+01,6.051789133290665784e-02
2.592000000000000171e+01,4.819731020494657375e-02
2.596000000000000085e+01,3.424927554048311229e-02
2.600000000000000000e+01,3.525867080662111602e-02
2.603999999999999915e+01,5.610340435120446390e-02
2.607999999999999829e+01,7.109317171067250363e-02
2.612000000000000099e+01,3.795278700251112497e-02
2.616000000000000014e+01,4.220820939614118583e-02
2.619999999999999929e+01,4.223464051567455552e-02
2.623999999999999844e+01,6.144603264778509405e-02
2.628000000000000114e+01,5.789239366327117442e-02
2.632000000000000028e+01,6.474348844819180493e-02
2.635999999999999943e+01,4.167529363990925273e-02
2.639999999999999858e+01,3.681648677687166665e-02
2.644000000000000128e+01,2.772870092864585662e-02
2.648000000000000043e+01,3.067162580902475094e-02
2.651999999999999957e+01,6.255533863842524522e-02
2.655999999999999872e+01,5.704031578918578038e-02
2.660000000000000142e+01,5.997887852656406948e-02
2.664000000000000057e+01,4.535552863368667170e-02
2.667999999999999972e+01,4.926677477642730368e-02
2.671999999999999886e+01,5.220099380416877433e-02
2.676000000000000156e+01,8.049888178340006140e-02
2.680000000000000071e+01,3.595192726180394815e-02
2.683999999999999986e+01,1.676864578800064259e-02
2.687999999999999901e+01,4.994012093510547673e-02
2.692000000000000171e+01,2.912799741798011155e-02
2.696000000000000085e+01,4.701249697892747464e-02
2.700000000000000000e+01,3.562812722372177970e-02
2.703999999999999915e+01,5.318457204350715561e-02
2.707999999999999829e+01,4.179734539675508675e-02
2.712000000000000099e+01,4.244086224903136084e-02
2.716000000000000014e+01,2.292094307051893015e-02
2.719999999999999929e+01,5.380463437824951206e-02
2.723999999999999844e+01,7.395551259756595608e-02
2.728000000000000114e+01,3.459451677969807570e-02
2.732000000000000028e+01,3.848287501964571533e-02
2.735999999999999943e+01,2.903687628913132271e-02
2.739999999999999858e+01,2.934527912151605258e-02
2.744000000000000128e+01,5.859451701040716692e-02
2.748000000000000043e+01,5.955049142090134556e-02
2.751999999999999957e+01,4.034304823397031475e-02
2.755999999999999872e+01,4.682450871487206512e-02
2.760000000000000142e+01,1.753325553563683456e-02
2.764000000000000057e+01,1.848362266691660344e-02
2.767999999999999972e+01,6.918723735563184207e-02
2.771999999999999886e+01,4.542008788443988032e-02
2.776000000000000156e+01,3.921200848901780500e-02
2.780000000000000071e+01,4.601028867113799575e-02
2.783999999999999986e+01,5.768508664613135328e-02
2.787999999999999901e+01,5.179803548356571447e-02
2.792000000000000171e+01,5.208828122342762379e-02
2.796000000000000085e+01,5.270233835423807078e-02
2.800000000000000000e+01,4.648594635126643976e-02
2.803999999999999915e+01,6.270654506081749235e-02
2.807999999999999829e+01,5.908894860037732649e-02
2.812000000000000099e+01,2.197502137895914961e-02
2.816000000000000014e+01,2.876087873316370697e-02
2.819999999999999929e+01,3.814691604041541700e-02
2.823999999999999844e+01,4.135290400941971783e-02
2.828000000000000114e+01,4.098039471483085061e-02
2.832000000000000028e+01,3.605380894486186899e-02
2.835999999999999943e+01,4.023128638680212310e-02
2.839999999999999858e+01,3.985469144966518468e-02
2.844000000000000128e+01,2.516821358221815047e-02
2.848000000000000043e+01,4.787766160934963516e-02
2.851999999999999957e+01,2.961134303082342198e-02
2.855999999999999872e+01,4.321266063686102221e-02
2.860000000000000142e+01,3.730100345218937546e-02
2.864000000000000057e+01,1.935582985115499866e-02
2.867999999999999972e+01,6.124496136404051355e-02
2.871999999999999886e+01,4.004516128675469216e-02
2.876000000000000156e+01,3.120138243602146866e-02
2.880000000000000071e+01,7.276129599759106892e-02
2.883999999999999986e+01,8.310127193809936641e-02
2.887999999999999901e+01,5.083953093974943882e-02
2.892000000000000171e+01,5.044544455932666732e-02
2.896000000000000085e+01,1.980700796223559129e-02
2.900000000000000000e+01,7.014048682960932757e-02
2.903999999999999915e+01,5.738505049202361624e-02
2.907999999999999829e+01,4.918100168669491123e-02
2.912000000000000099e+01,4.260159868195924349e-02
2.916000000000000014e+01,4.382552483891183348e-02
2.919999999999999929e+01,6.098262603852425134e-02
2.923999999999999844e+01,4.561903508533915463e-02
2.928000000000000114e+01,7.252931728945462286e-02
2.932000000000000028e+01,4.513092996511718080e-02
2.935999999999999943e+01,3.789324466911215411e-02
2.939999999999999858e+01,3.032905699088393747e-02
2.944000000000000128e+01,0.000000000000000000e+00
2.948000000000000043e+01,4.056187669870160717e-02
2.951999999999999957e+01,2.714028786302052215e-02
2.955999999999999872e+01,3.062747376330138271e-02
2.960000000000000142e+01,4.744630516125460801e-02
2.964000000000000057e+01,6.426384021920625300e-02
2.967999999999999972e+01,3.132543672844791821e-02
2.971999999999999886e+01,4.066092892465671127e-02
2.976000000000000156e+01,3.113389323317549209e-02
2.980000000000000071e+01,5.542571973883134162e-02
2.983999999999999986e+01,5.435114738684385105e-02
2.987999999999999901e+01,6.693342862290214967e-02
2.992000000000000171e+01,5.252334633105607692e-02
2.996000000000000085e+01,3.063252775822595392e-02
3.000000000000000000e+01,4.841406918292096712e-02
3.003999999999999915e+01,5.091022834342735781e-02
3.007999999999999829e+01,2.641403216863542902e-02
3.012000000000000099e+01,4.126500838251037639e-02
3.016000000000000014e+01,2.327014579775938188e-02
3.019999999999999929e+01,2.413525323927112609e-02
3.023999999999999844e+01,5.621769538108371128e-02
3.028000000000000114e+01,5.447872360878661807e-02
3.032000000000000028e+01,1.208927115096199156e-02
3.035999999999999943e+01,3.733885990892783086e-02
3.039999999999999858e+01,4.177479102975070052e-02
3.044000000000000128e+01,4.685985428022788196e-02
3.048000000000000043e+01,6.397583307445914302e-02
3.051999999999999957e+01,4.629482898355100767e-02
3.055999999999999872e+01,3.706761324625919285e-02
3.060000000000000142e+01,4.767596927668339701e-02
3.064000000000000057e+01,5.795788641758073401e-02
3.067999999999999972e+01,5.067809779152394195e-02
3.071999999999999886e+01,4.729939316530979571e-02
3.076000000000000156e+01,5.465084340665913448e-02
3.080000000000000071e+01,3.370920016618588616e-02
3.083999999999999986e+01,3.943220980190664804e-02
3.087999999999999901e+01,3.637375525087668121e-02
3.092000000000000171e+01,5.119972633289782832e-02
3.096000000000000085e+01,4.358609968533299489e-02
3.100000000000000000e+01,5.385690276712233604e-02
3.103999999999999915e+01,1.664819321054225587e-02
3.107999999999999829e+01,4.772894924310525089e-02
3.112000000000000099e+01,2.612709668059667867e-02
3.116000000000000014e+01,6.208331994421140837e-02
3.119999999999999929e+01,6.616933892107754178e-02
3.123999999999999844e+01,4.261267445241326973e-02
3.128000000000000114e+01,1.645324759145647478e-02
3.132000000000000028e+01,3.581973587665494840e-02
3.135999999999999943e+01,2.981990313396697470e-02
3.139999999999999858e+01,2.316847666331809177e-02
3.144000000000000128e+01,6.009180896340191036e-02
3.148000000000000043e+01,5.799068874091583420e-02
3.151999999999999957e+01,3.442558072290325538e-02
3.155999999999999872e+01,5.638640013995477318e-02
3.160000000000000142e+01,3.932277317889099066e-02
3.164000000000000057e+01,4.502151501729752953e-02
3.167999999999999972e+01,6.242604009069029070e-02
3.171999999999999886e+01,2.031891847171501606e-02
3.176000000000000156e+01,5.137920356015048678e-02
3.180000000000000071e+01,4.861815256423294290e-02
3.183999999999999986e+01,3.707568653720049595e-02
3.187999999999999901e+01,4.341769529885532858e-02
3.192000000000000171e+01,3.479961181275470494e-02
3.196000000000000085e+01,4.991949477127482354e-02
3.200000000000000000e+01,6.113587719097837714e-02
3.203999999999999915e+01,4.536000463480691774e-02
3.207999999999999829e+01,3.641202949544456585e-02
3.211999999999999744e+01,1.738187864877656016e-02
3.215999999999999659e+01,4.485326721938351358e-02
3.220000000000000284e+01,1.639016496188147945e-02
3.224000000000000199e+01,2.955069991826525175e-02
3.228000000000000114e+01,1.376782966780639057e-02
3.232000000000000028e+01,1.326790670919865758e-02
3.235999999999999943e+01,3.357922689691127810e-02
3.239999999999999858e+01,4.283280445444034856e-02
3.243999999999999773e+01,4.493096646969106656e-02
3.247999999999999687e+01,5.385704638326577892e-02
3.252000000000000313e+01,4.099399595178861849e-02
3.256000000000000227e+01,4.243832384113308681e-02
3.260000000000000142e+01,3.152414432780041575e-02
3.264000000000000057e+01,4.597393484422782062e-02
3.267999999999999972e+01,2.432607806244560869e-02
3.271999999999999886e+01,5.405769567175172652e-02
3.275999999999999801e+01,2.427771984062881624e-02
3.279999999999999716e+01,3.384505362432299602e-02
3.284000000000000341e+01,4.731357995988939164e-02
3.288000000000000256e+01,2.728601926450625187e-02
3.292000000000000171e+01,3.099647416937974589e-02
3.296000000000000085e+01,2.950270267782130473e-02
3.300000000000000000e+01,5.239733838944811428e-02
3.303999999999999915e+01,4.472263904254663441e-02
3.307999999999999829e+01,4.257511330299044300e-02
3.311999999999999744e+01,4.530437571230536142e-02
3.315999999999999659e+01,2.591934679367948954e-02
3.320000000000000284e+01,3.905257915181686162e-02
3.324000000000000199e+01,3.950214312438808661e-02
3.328000000000000114e+01,4.612927845168759283e-02
3.332000000000000028e+01,3.974755573641108874e-02
3.335999999999999943e+01,4.604728353842209992e-02
3.339999999999999858e+01,4.616722621372925522e-02
3.343999999999999773e+01,4.075777331710964818e-02
3.347999999999999687e+01,4.705419582229359438e-02
3.352000000000000313e+01,5.237393939823306588e-02
3.356000000000000227e+01,5.151390604007459462e-02
3.360000000000000142e+01,5.780704168179490871e-02
3.364000000000000057e+01,1.141769776198817664e-02
3.367999999999999972e+01,3.656989009429993664e-02
3.371999999999999886e+01,2.627487588696672191e-02
3.375999999999999801e+01,2.703536391187201168e-02
3.379999999999999716e+01,2.519321857802923198e-02
3.384000000000000341e+01,4.123564839229710427e-02
3.388000000000000256e+01,1.792855481977217308e-02
3.392000000000000171e+01,3.331844070368071564e-02
3.396000000000000085e+01,3.667508257537565458e-02
3.400000000000000000e+01,7.059886416698686606e-02
3.403999999999999915e+01,3.525530525963260775e-02
3.407999999999999829e+01,5.291725914708161199e-02
3.411999999999999744e+01,5.074132713541550099e-02
3.415999999999999659e+01,5.084068649805695977e-02
3.420000000000000284e+01,4.053278290395787714e-02
3.424000000000000199e+01,4.225598737985385850e-02
3.428000000000000114e+01,3.194596422874813185e-02
3.432000000000000028e+01,2.228527187799192108e-02
3.435999999999999943e+01,2.660685626156217287e-02
3.439999999999999858e+01,2.995180677522069415e-02
3.443999999999999773e+01,1.443446903491475350e-02
3.447999999999999687e+01,4.606917701129633474e-02
3.452000000000000313e+01,5.168733825713436175e-02
3.456000000000000227e+01,6.510910516511289603e-02
3.460000000000000142e+01,3.527906051327171777e-02
3.464000000000000057e+01,3.829254462496052558e-02
3.467999999999999972e+01,4.163018421704957339e-02
3.471999999999999886e+01,3.521097498499310696e-02
3.475999999999999801e+01,4.700158176184450476e-02
3.479999999999999716e+01,3.407643115846416965e-02
3.484000000000000341e+01,3.773513189373065707e-02
3.488000000000000256e+01,3.618970454383698548e-02
3.492000000000000171e+01,4.407387005601118984e-02
3.496000000000000085e+01,2.561631761399569066e-02
3.500000000000000000e+01,4.878254370831942160e-02
3.503999999999999915e+01,3.324969331886943463e-02
3.507999999999999829e+01,4.340613164973398247e-02
3.511999999999999744e+01,3.665147906508624959e-02
3.515999999999999659e+01,5.103340675067652432e-02
3.520000000000000284e+01,5.175618515018570731e-02
3.524000000000000199e+01,5.085198518433926146e-02
3.528000000000000114e+01,3.466267126215046707e-02
3.532000000000000028e+01,6.302389604132828393e-02
3.535999999999999943e+01,5.398683573519558881e-02
3.539999999999999858e+01,3.746931769668269963e-02
3.543999999999999773e+01,2.290196282001245517e-02
3.547999999999999687e+01,2.752004207891552146e-02
3.552000000000000313e+01,4.156774492215900563e-02
3.556000000000000227e+01,2.894856678017232801e-02
3.560000000000000142e+01,5.795319789679741901e-02
3.564000000000000057e+01,3.525103311940876866e-02
3.567999999999999972e+01,4.539245035748905310e-02
3.571999999999999886e+01,4.219993868877035259e-02
3.575999999999999801e+01,6.177000677912629356e-02
3.579999999999999716e+01,4.589297483371523184e-02
3.584000000000000341e+01,5.733123929006116865e-02
3.588000000000000256e+01,5.153325799246041838e-02
3.592000000000000171e+01,4.085639561495138516e-02
3.596000000000000085e+01,4.546266691107985619e-02
3.600000000000000000e+01,4.031215492391081179e-02
3.603999999999999915e+01,5.272113697987199782e-02
3.607999999999999829e+01,5.179620856239774973e-02
3.611999999999999744e+01,4.956954059221354431e-02
3.615999999999999659e+01,5.612214147016820337e-02
3.620000000000000284e+01,5.779587560527499335e-02
3.624000000000000199e+01,3.670508861348075608e-02
3.628000000000000114e+01,7.349783336451440330e-02
3.632000000000000028e+01,6.964040465274547176e-02
3.635999999999999943e+01,4.757117350490937951e-02
3.639999999999999858e+01,3.915912979381319659e-02
3.643999999999999773e+01,4.115233803448032496e-02
3.647999999999999687e+01,5.907909408138013740e-02
3.652000000000000313e+01,6.237118717125968853e-02
3.656000000000000227e+01,4.192319425951183953e-02
3.660000000000000142e+01,5.464402422403012716e-02
3.664000000000000057e+01,5.858368493561336154e-02
3.667999999999999972e+01,6.219721602854612341e-02
3.671999999999999886e+01,5.020051314527765318e-02
3.675999999999999801e+01,4.958465985892300532e-02
3.679999999999999716e+01,4.864268309837233017e-02
3.684000000000000341e+01,8.021915399637120914e-02
3.688000000000000256e+01,8.187687396501118486e-02
3.692000000000000171e+01,6.109530137863850019e-02
3.696000000000000085e+01,9.266900154735133177e-02
3.700000000000000000e+01,8.521853183840095991e-02
3.703999999999999915e+01,9.597799488299400827e-02
3.707999999999999829e+01,5.242918574052472108e-02
3.711999999999999744e+01,9.147867660383848798e-02
3.715999999999999659e+01,9.540633082184891978e-02
3.720000000000000284e+01,9.608113826736301710e-02
3.724000000000000199e+01,1.009825573147269256e-01
3.728000000000000114e+01,1.065334587256513699e-01
3.732000000000000028e+01,9.810012564921115341e-02
3.735999999999999943e+01,1.026736416585211642e-01
3.739999999999999858e+01,8.708424596382617622e-02
3.743999999999999773e+01,9.946061610357385951e-02
3.747999999999999687e+01,1.196407414205212932e-01
3.752000000000000313e+01,9.819517345927265828e-02
3.756000000000000227e+01,1.079673150100491641e-01
3.760000000000000142e+01,1.092835302168393558e-01
3.764000000000000057e+01,1.463701715783372048e-01
3.767999999999999972e+01,1.415059341009321237e-01
3.771999999999999886e+01,1.538760829357073701e-01
3.775999999999999801e+01,1.740500012847428501e-01
3.779999999999999716e+01,1.584517282522733272e-01
3.784000000000000341e+01,1.747215665755151581e-01
3.788000000000000256e+01,1.802591366186415134e-01
3.792000000000000171e+01,2.014051344481415373e-01
3.796000000000000085e+01,2.209242931865879056e-01
3.800000000000000000e+01,2.326379335691885208e-01
3.803999999999999915e+01,2.466270639967920730e-01
3.807999999999999829e+01,2.850048617428213027e-01
3.811999999999999744e+01,2.937891658055009070e-01
3.815999999999999659e+01,2.993206722513202522e-01
3.820000000000000284e+01,3.484272836054755906e-01
3.824000000000000199e+01,3.718427324604895445e-01
3.828000000000000114e+01,4.141185650683689157e-01
3.832000000000000028e+01,4.264757204803433233e-01
3.835999999999999943e+01,4.707010138739985416e-01
3.839999999999999858e+01,4.898855404677440739e-01
3.843999999999999773e+01,5.149227088744484648e-01
3.847999999999999687e+01,5.399590335826325305e-01
3.852000000000000313e+01,5.916604044120985506e-01
3.856000000000000227e+01,5.952322601490510623e-01
3.860000000000000142e+01,6.131118034777017778e-01
3.864000000000000057e+01,6.716397304645396193e-01
3.867999999999999972e+01,7.054520987418408939e-01
3.871999999999999886e+01,7.171504603842598913e-01
3.875999999999999801e+01,7.590910117233105048e-01
3.879999999999999716e+01,8.576144488254821008e-01
3.884000000000000341e+01,8.660583909948483816e-01
3.888000000000000256e+01,9.252317354640077207e-01
3.892000000000000171e+01,9.707461211251752209e-01
3.896000000000000085e+01,1.000000000000000000e+00
3.900000000000000000e+01,9.814495800652905944e-01
3.903999999999999915e+01,9.170460258890756888e-01
3.907999999999999829e+01,8.744296402085711684e-01
3.911999999999999744e+01,8.363651561463498751e-01
3.915999999999999659e+01,7.765118817322252953e-01
3.920000000000000284e+01,7.312915193853841700e-01
3.924000000000000199e+01,7.260691839123769586e-01
3.928000000000000114e+01,7.218216269638179083e-01
3.932000000000000028e+01,7.283046631872430732e-01
3.935999999999999943e+01,6.664962125757903921e-01
3.939999999999999858e+01,6.212718467922553334e-01
3.943999999999999773e+01,6.651497748735464288e-01
3.947999999999999687e+01,6.248017283520864718e-01
3.952000000000000313e+01,6.179478479752649189e-01
3.956000000000000227e+01,6.205237980460851510e-01
3.960000000000000142e+01,5.974086552549149332e-01
3.964000000000000057e+01,5.645369155622335100e-01
3.967999999999999972e+01,5.732891940396167563e-01
3.971999999999999886e+01,5.287089167678751256e-01
3.975999999999999801e+01,5.576216495871565426e-01
3.979999999999999716e+01,5.345026057668674779e-01
3.984000000000000341e+01,5.354471256303570126e-01
3.988000000000000256e+01,5.107005669689168581e-01
3.992000000000000171e+01,4.765226194963387285e-01
3.996000000000000085e+01,4.690097918784962849e-01
4.000000000000000000e+01,4.758047235376544060e-01
4.003999999999999915e+01,4.442260284852890262e-01
4.007999999999999829e+01,4.324833906125446492e-01
4.011999999999999744e+01,4.054558866097894287e-01
4.015999999999999659e+01,3.956628938564558662e-01
4.020000000000000284e+01,3.979013143476906045e-01
4.024000000000000199e+01,3.825785185801792165e-01
4.028000000000000114e+01,3.614014837213344600e-01
4.032000000000000028e+01,3.041271927612161363e-01
4.035999999999999943e+01,3.193703613544552344e-01
4.039999999999999858e+01,3.118492218285489059e-01
4.043999999999999773e+01,2.955471076241000250e-01
4.047999999999999687e+01,2.639601457230038029e-01
4.052000000000000313e+01,2.492825197513798274e-01
4.056000000000000227e+01,2.352545440917391817e-01
4.060000000000000142e+01,2.365099396913099006e-01
4.064000000000000057e+01,2.137002644473931789e-01
4.067999999999999972e+01,2.240596209911954462e-01
4.071999999999999886e+01,2.074271670079980145e-01
4.075999999999999801e+01,1.709571671188343245e-01
4.079999999999999716e+01,1.832655053208589735e-01
4.084000000000000341e+01,1.877684705857943781e-01
4.088000000000000256e+01,1.688567648027770041e-01
4.092000000000000171e+01,1.593749591045522940e-01
4.096000000000000085e+01,1.576970867727078285e-01
4.100000000000000000e+01,1.690262499083999281e-01
4.103999999999999915e+01,1.517376501357401986e-01
4.107999999999999829e+01,1.572119025263045422e-01
4.111999999999999744e+01,1.369951398846354917e-01
4.115999999999999659e+01,1.281594521365448935e-01
4.120000000000000284e+01,1.401354601762559715e-01
4.124000000000000199e+01,1.088599966492962007e-01
4.128000000000000114e+01,1.305904145844093978e-01
4.132000000000000028e+01,1.113457213223446041e-01
4.135999999999999943e+01,9.437668810185700918e-02
4.139999999999999858e+01,1.213081173951381653e-01
4.143999999999999773e+01,1.072644416356957064e-01
4.147999999999999687e+01,1.052522446616694779e-01
4.152000000000000313e+01,1.045401346618881205e-01
4.156000000000000227e+01,9.894943237155975901e-02
4.160000000000000142e+01,9.433362739846647138e-02
4.164000000000000057e+01,1.124807032627180847e-01
4.167999999999999972e+01,1.062375677821085079e-01
4.171999999999999886e+01,7.300267297828660906e-02
4.175999999999999801e+01,1.002531405405504839e-01
4.179999999999999716e+01,8.522774647020291139e-02
4.184000000000000341e+01,7.507958704575312670e-02
4.188000000000000256e+01,8.834470825418291873e-02
4.192000000000000171e+01,9.380451182561393153e-02
4.196000000000000085e+01,8.690628726181819086e-02
4.200000000000000000e+01,8.521049928983906452e-02
4.203999999999999915e+01,9.684699379064835856e-02
4.207999999999999829e+01,6.913438477572210472e-02
4.211999999999999744e+01,9.865521902711672786e-02
4.215999999999999659e+01,9.337966640545816710e-02
4.220000000000000284e+01,8.875384806999436771e-02
4.224000000000000199e+01,7.274559719630285803e-02
4.228000000000000114e+01,8.307739121682107541e-02
4.232000000000000028e+01,6.706784414302520425e-02
4.235999999999999943e+01,9.690997125851100180e-02
4.239999999999999858e+01,7.114332357783255401e-02
4.243999999999999773e+01,7.887099155685167728e-02
4.247999999999999687e+01,6.123290789410130996e-02
4.252000000000000313e+01,8.164185653373096097e-02
4.256000000000000227e+01,6.757963253513515900e-02
4.260000000000000142e+01,6.197181338375656184e-02
4.264000000000000057e+01,8.433002632651535879e-02
4.267999999999999972e+01,8.717598542789264937e-02
4.271999999999999886e+01,8.546860538842905586e-02
4.275999999999999801e+01,7.270401319002005314e-02
4.279999999999999716e+01,8.335274873197506817e-02
4.284000000000000341e+01,8.587101999110294259e-02
4.288000000000000256e+01,6.432433510322731196e-02
4.292000000000000171e+01,5.741075276072424988e-02
4.296000000000000085e+01,8.984500026351907587e-02
4.300000000000000000e+01,7.382476626530404262e-02
4.303999999999999915e+01,9.942872248187954731e-02
4.307999999999999829e+01,8.405765761994274388e-02
4.311999999999999744e+01,7.258831168481326424e-02
4.315999999999999659e+01,8.355673066347302225e-02
4.320000000000000284e+01,8.899625381917142253e-02
4.324000000000000199e+01,7.947626435398870426e-02
4.328000000000000114e+01,9.141846468711097018e-02
4.332000000000000028e+01,7.604379386976825583e-02
4.335999999999999943e+01,8.700922324672590025e-02
4.339999999999999858e+01,9.992522336767446778e-02
4.343999999999999773e+01,9.593055858862234442e-02
4.347999999999999687e+01,9.356127489655137464e-02
4.352000000000000313e+01,9.606931187274114770e-02
4.356000000000000227e+01,9.597521523914853692e-02
4.360000000000000142e+01,7.897046189816134265e-02
4.364000000000000057e+01,7.464768544939669181e-02
4.367999999999999972e+01,9.471386306026770285e-02
4.371999999999999886e+01,1.056740401877059171e-01
4.375999999999999801e+01,1.088289938931142897e-01
4.379999999999999716e+01,1.210888013969104171e-01
4.384000000000000341e+01,1.187143207554105101e-01
4.388000000000000256e+01,1.111361728628377649e-01
4.392000000000000171e+01,1.152644349396097362e-01
4.396000000000000085e+01,1.154898088748630980e-01
4.400000000000000000e+01,1.290475656423282491e-01
4.403999999999999915e+01,1.136625193594912320e-01
4.407999999999999829e+01,1.174633475647996195e-01
4.411999999999999744e+01,1.505310586591022126e-01
4.415999999999999659e+01,1.442497727415470166e-01
4.420000000000000284e+01,1.243097983719978344e-01
4.424000000000000199e+01,1.401405881021534905e-01
4.428000000000000114e+01,1.302805246040440734e-01
4.432000000000000028e+01,1.513133230022503106e-01
4.435999999999999943e+01,1.421025597221151071e-01
4.439999999999999858e+01,1.553296248484653530e-01
4.443999999999999773e+01,1.727836702439353167e-01
4.447999999999999687e+01,1.674736164317128795e-01
4.452000000000000313e+01,1.859021721836819352e-01
4.456000000000000227e+01,1.857941516173281238e-01
4.460000000000000142e+01,1.850352132130076710e-01
4.464000000000000057e+01,2.005354341911383675e-01
4.467999999999999972e+01,1.731095534969400718e-01
4.471999999999999886e+01,1.970637616392793834e-01
4.475999999999999801e+01,1.959775286377973269e-01
4.479999999999999716e+01,2.098496881981210538e-01
4.484000000000000341e+01,1.957546669311110710e-01
4.488000000000000256e+01,2.171052487809171094e-01
4.492000000000000171e+01,2.387805104379069066e-01
4.496000000000000085e+01,2.217572035526945984e-01
4.500000000000000000e+01,2.330252433558710479e-01
4.503999999999999915e+01,2.641295943094544296e-01
4.507999999999999829e+01,2.461291827592803627e-01
4.511999999999999744e+01,2.538185740154468295e-01
4.515999999999999659e+01,2.663853699140854570e-01
4.520000000000000284e+01,2.926098038427937809e-01
4.524000000000000199e+01,2.989969212585035785e-01
4.528000000000000114e+01,2.527021551247724540e-01
4.532000000000000028e+01,2.763235524886817340e-01
4.535999999999999943e+01,2.918146146033082644e-01
4.539999999999999858e+01,2.816148808379116408e-01
4.543999999999999773e+01,2.571061346065918740e-01
4.547999999999999687e+01,2.482062032622790460e-01
4.552000000000000313e+01,2.584922201395656316e-01
4.556000000000000227e+01,2.655258183080190237e-01
4.560000000000000142e+01,2.283325868983765716e-01
4.564000000000000057e+01,2.337392600933104470e-01
4.567999999999999972e+01,2.228857705913532272e-01
4.571999999999999886e+01,2.191860706791788349e-01
4.575999999999999801e+01,2.271928749513180967e-01
4.579999999999999716e+01,2.166631663978311750e-01
4.584000000000000341e+01,1.954015971463769485e-01
4.588000000000000256e+01,1.962527383297009431e-01
4.592000000000000171e+01,1.863720229113605131e-01
4.596000000000000085e+01,2.073842533635472662e-01
4.600000000000000000e+01,1.955514560851014938e-01
4.603999999999999915e+01,1.898968835217121343e-01
4.607999999999999829e+01,1.712341062760747157e-01
4.611999999999999744e+01,1.837894768468832929e-01
4.615999999999999659e+01,1.771579655188033897e-01
4.620000000000000284e+01,1.607701931860581468e-01
4.624000000000000199e+01,1.560889496154445333e-01
4.628000000000000114e+01,1.722196619478729152e-01
4.632000000000000028e+01,1.724154381071469622e-01
4.635999999999999943e+01,1.504975988284747990e-01
4.639999999999999858e+01,1.568711779234936987e-01
4.643999999999999773e+01,1.411311456768692962e-01
4.647999999999999687e+01,1.276670356352141433e-01
4.652000000000000313e+01,1.584288440240323448e-01
4.656000000000000227e+01,1.560204596030261570e-01
4.660000000000000142e+01,1.220678531869112543e-01
4.664000000000000057e+01,1.251869087728422758e-01
4.667999999999999972e+01,1.328582530776896697e-01
4.671999999999999886e+01,1.242694879375849243e-01
4.675999999999999801e+01,1.225093718858891317e-01
4.679999999999999716e+01,1.230251944243745260e-01
4.684000000000000341e+01,9.850068232291629700e-02
4.688000000000000256e+01,9.673931936664938169e-02
4.692000000000000171e+01,1.099364575242177677e-01
4.696000000000000085e+01,1.156537298651889034e-01
4.700000000000000000e+01,1.116147821645246674e-01
4.703999999999999915e+01,1.043234915366327009e-01
4.707999999999999829e+01,7.101629729776778865e-02
4.711999999999999744e+01,9.396722108422270181e-02
4.715999999999999659e+01,8.537395154968983879e-02
4.720000000000000284e+01,9.856826628562184722e-02
4.724000000000000199e+01,8.672226686312517474e-02
4.728000000000000114e+01,6.967277428243298654e-02
4.732000000000000028e+01,7.148412833684486545e-02
4.735999999999999943e+01,6.581563705617439475e-02
4.739999999999999858e+01,6.925218390752670150e-02
4.743999999999999773e+01,7.463950836617121165e-02
4.747999999999999687e+01,5.986443725498834245e-02
4.752000000000000313e+01,4.476379157421109950e-02
4.756000000000000227e+01,7.746624886228709039e-02
4.760000000000000142e+01,6.496639771990374290e-02
4.764000000000000057e+01,7.230299085777480705e-02
4.767999999999999972e+01,5.915200491326306348e-02
4.771999999999999886e+01,3.591964204053015725e-02
4.775999999999999801e+01,5.918961736415664920e-02
4.779999999999999716e+01,7.302860736249063012e-02
4.784000000000000341e+01,5.499824510509938869e-02
4.788000000000000256e+01,5.875550193674848598e-02
4.792000000000000171e+01,3.909844819510857605e-02
4.796000000000000085e+01,4.708250519844246751e-02
4.800000000000000000e+01,6.157008102956904733e-02
4.803999999999999915e+01,3.248133972646682216e-02
4.807999999999999829e+01,4.794379048505915258e-02
4.811999999999999744e+01,5.202410978369399752e-02
4.815999999999999659e+01,4.439710591720992527e-02
4.820000000000000284e+01,4.132246859939922579e-02
4.824000000000000199e+01,4.247500612510046736e-02
4.828000000000000114e+01,3.289580789007574835e-02
4.832000000000000028e+01,3.437285741443506237e-02
4.835999999999999943e+01,3.487398787375584064e-02
4.839999999999999858e+01,5.098408273514300204e-02
4.843999999999999773e+01,3.750121233626712430e-02
4.847999999999999687e+01,2.759514156318653225e-02
4.852000000000000313e+01,2.386742249055530049e-02
4.856000000000000227e+01,5.623588247130362205e-02
4.860000000000000142e+01,3.754859766574929203e-02
4.864000000000000057e+01,4.032377711080097071e-02
4.867999999999999972e+01,3.757034132964667816e-02
4.871999999999999886e+01,4.034487998307358797e-02
4.875999999999999801e+01,3.856638876653602221e-02
4.879999999999999716e+01,1.890192584236018158e-02
4.884000000000000341e+01,2.004954990292216396e-02
4.888000000000000256e+01,2.639996283735844898e-02
4.892000000000000171e+01,3.990432921369754804e-02
4.896000000000000085e+01,2.804327574880967691e-02
4.900000000000000000e+01,2.853927987513249151e-02
4.903999999999999915e+01,3.651443734112538170e-02
4.907999999999999829e+01,3.440828751604795704e-02
4.911999999999999744e+01,3.360261381400009989e-02
4.915999999999999659e+01,2.889431823012840808e-02
4.920000000000000284e+01,3.849425299810179529e-02
4.924000000000000199e+01,3.085862609472908580e-02
4.928000000000000114e+01,2.875100230005840987e-02
4.932000000000000028e+01,4.290277752156423235e-02
4.935999999999999943e+01,4.762364729568590443e-02
4.939999999999999858e+01,3.315780107119044307e-02
4.943999999999999773e+01,3.267500373413628756e-02
4.947999999999999687e+01,3.902099475979303039e-02
4.952000000000000313e+01,3.333453850416910613e-02
4.956000000000000227e+01,2.992416216117966057e-02
4.960000000000000142e+01,2.911506153228915136e-02
4.964000000000000057e+01,3.936227625178204126e-02
4.967999999999999972e+01,2.391891424346213879e-02
4.971999999999999886e+01,2.180822795301834427e-02
4.975999999999999801e+01,3.628215696173030941e-02
4.979999999999999716e+01,3.449613423315545102e-02
4.984000000000000341e+01,3.661217452083973672e-02
4.988000000000000256e+01,3.872795483318082488e-02
4.992000000000000171e+01,2.783572708581782962e-02
4.996000000000000085e+01,3.482889989161928185e-02
5.000000000000000000e+01,2.361096868101458107e-02
5.003999999999999915e+01,3.092882962650305226e-02
5.007999999999999829e+01,2.296233443170362862e-02
5.011999999999999744e+01,2.312543538329035059e-02
5.015999999999999659e+01,3.206852203604029089e-02
5.020000000000000284e+01,3.320671501915158086e-02
5.024000000000000199e+01,2.654001638077573694e-02
5.028000000000000114e+01,3.775873468077634021e-02
5.032000000000000028e+01,3.857101542909027736e-02
5.035999999999999943e+01,3.970825453319183629e-02
5.039999999999999858e+01,2.100844133583820370e-02
5.043999999999999773e+01,1.726730948965172693e-02
5.047999999999999687e+01,2.360695474309175770e-02
5.052000000000000313e+01,4.002737914430975347e-02
5.056000000000000227e+01,2.685494683729417950e-02
5.060000000000000142e+01,2.148694150116980256e-02
5.064000000000000057e+01,2.262259017083708551e-02
5.067999999999999972e+01,3.579018870076515479e-02
5.071999999999999886e+01,3.464904512076787124e-02
5.075999999999999801e+01,3.253210536482187970e-02
5.079999999999999716e+01,4.602425290003216152e-02
5.084000000000000341e+01,2.634642677762850591e-02
5.088000000000000256e+01,3.430986091525809606e-02
5.092000000000000171e+01,1.853394433764817689e-02
5.096000000000000085e+01,3.950471720913341367e-02
5.100000000000000000e+01,1.852529327616462412e-02
5.103999999999999915e+01,1.705729396301482528e-02
5.107999999999999829e+01,3.184878378470749893e-02
5.111999999999999744e+01,3.363232699124087816e-02
5.115999999999999659e+01,4.939900715573002782e-02
5.120000000000000284e+01,3.199573209596863477e-02
5.124000000000000199e+01,1.686862297120470325e-02
5.128000000000000114e+01,3.881341343406062572e-02
5.132000000000000028e+01,2.661267355718204344e-02
5.135999999999999943e+01,3.587453720521139450e-02
5.139999999999999858e+01,4.643699372090564353e-02
5.143999999999999773e+01,2.675625108107373626e-02
5.147999999999999687e+01,3.309083065698361498e-02
5.152000000000000313e+01,1.893802777305454016e-02
5.156000000000000227e+01,3.307690747435985956e-02
5.160000000000000142e+01,2.640321505881658079e-02
5.164000000000000057e+01,2.037974029322158279e-02
5.167999999999999972e+01,2.053477903204427996e-02
5.171999999999999886e+01,2.231562077705693745e-02
5.175999999999999801e+01,4.035598647548734041e-02
5.179999999999999716e+01,2.197449013881161428e-02
5.184000000000000341e+01,2.375484689161051072e-02
5.188000000000000256e+01,3.236411489621016102e-02
5.192000000000000171e+01,3.186780228843431179e-02
5.196000000000000085e+01,3.462327374232138100e-02
5.200000000000000000e+01,3.575262500633071688e-02
5.203999999999999915e+01,1.444345791659370874e-02
5.207999999999999829e+01,3.898646271695237892e-02
5.211999999999999744e+01,3.913979073999102748e-02
5.215999999999999659e+01,3.018755043956307393e-02
5.220000000000000284e+01,3.424291908909137677e-02
5.224000000000000199e+01,2.496520471838971703e-02
5.228000000000000114e+01,3.032107216051129622e-02
5.232000000000000028e+01,3.307525453802859922e-02
5.235999999999999943e+01,3.647969143222123956e-02
5.239999999999999858e+01,4.313593491774335431e-02
5.243999999999999773e+01,2.312616173796751620e-02
5.247999999999999687e+01,3.856238082379239568e-02
5.252000000000000313e+01,3.708839994000692059e-02
5.256000000000000227e+01,3.593949006034138222e-02
5.260000000000000142e+01,3.348968446638331958e-02
5.264000000000000057e+01,2.518627265990500130e-02
5.267999999999999972e+01,2.663855684807264756e-02
5.271999999999999886e+01,2.711514521971506927e-02
5.275999999999999801e+01,3.604665866905538280e-02
5.279999999999999716e+01,3.619783031866607298e-02
5.284000000000000341e+01,4.057641234921095102e-02
5.288000000000000256e+01,4.788163179559035837e-02
5.292000000000000171e+01,4.413015931350494636e-02
5.296000000000000085e+01,3.452509700411106330e-02
5.300000000000000000e+01,3.337497206132396949e-02
5.303999999999999915e+01,2.149335508783946358e-02
5.307999999999999829e+01,4.440737359560240766e-02
5.311999999999999744e+01,3.805386023014049879e-02
5.315999999999999659e+01,2.909870481125589187e-02
5.320000000000000284e+01,2.209462193347930953e-02
5.324000000000000199e+01,4.338230766330002791e-02
5.328000000000000114e+01,3.377650094593787761e-02
5.332000000000000028e+01,4.856014189272238324e-02
5.335999999999999943e+01,3.862897580157030608e-02
5.339999999999999858e+01,3.260005501216067109e-02
5.343999999999999773e+01,3.697725663890125136e-02
5.347999999999999687e+01,3.289934503780041208e-02
5.352000000000000313e+01,3.727639742927583294e-02
5.356000000000000227e+01,2.051578431001329153e-02
5.360000000000000142e+01,4.700587088410082548e-02
5.364000000000000057e+01,3.935054591124076406e-02
5.367999999999999972e+01,3.234554304405559688e-02
5.371999999999999886e+01,2.696644559063522684e-02
5.375999999999999801e+01,2.679038688557200745e-02
5.379999999999999716e+01,3.376853149689426625e-02
5.384000000000000341e+01,4.464894393962552666e-02
5.388000000000000256e+01,4.122077607639969971e-02
5.392000000000000171e+01,2.153286743549147689e-02
5.396000000000000085e+01,3.696583308847666005e-02
5.400000000000000000e+01,4.394371213958982170e-02
5.403999999999999915e+01,2.945875650447015576e-02
5.407999999999999829e+01,3.676173742187301835e-02
5.411999999999999744e+01,4.016235042823788903e-02
5.415999999999999659e+01,3.218114124552141214e-02
5.420000000000000284e+01,4.241074347334112399e-02
5.424000000000000199e+01,4.646162766138765138e-02
5.428000000000000114e+01,3.978108331143297149e-02
5.432000000000000028e+01,4.740903147671515078e-02
5.435999999999999943e+01,4.593152396686338984e-02
5.439999999999999858e+01,3.827530660984423960e-02
5.443999999999999773e+01,4.850471919895740780e-02
5.447999999999999687e+01,4.084845091794512412e-02
5.452000000000000313e+01,3.189138523391230051e-02
5.456000000000000227e+01,3.301530556095875341e-02
5.460000000000000142e+01,4.552098896048728527e-02
5.464000000000000057e+01,2.583247453673265595e-02
5.467999999999999972e+01,1.915169604832705694e-02
5.471999999999999886e+01,4.303911822231397399e-02
5.475999999999999801e+01,3.863467375722596381e-02
5.479999999999999716e+01,3.618138375930589345e-02
5.484000000000000341e+01,2.202111263756722018e-02
5.488000000000000256e+01,3.225036905788369185e-02
5.492000000000000171e+01,4.280481732325856770e-02
5.496000000000000085e+01,4.425384063577178506e-02
5.500000000000000000e+01,5.155635369596434786e-02
5.503999999999999915e+01,4.259918332671645824e-02
5.507999999999999829e+01,4.209705682795328308e-02
5.511999999999999744e+01,6.533408265352845523e-02
5.515999999999999659e+01,5.279980599534911390e-02
5.520000000000000284e+01,3.311127919309396483e-02
5.524000000000000199e+01,5.602314855177478042e-02
5.528000000000000114e+01,3.503387773833516183e-02
5.532000000000000028e+01,4.721438833606290963e-02
5.535999999999999943e+01,4.150926312299817872e-02
5.539999999999999858e+01,3.970648561925080311e-02
5.543999999999999773e+01,5.188706422566954218e-02
5.547999999999999687e+01,6.536844461120605576e-02
5.552000000000000313e+01,4.698086598610515252e-02
5.556000000000000227e+01,4.160106835568642275e-02
5.560000000000000142e+01,5.020463502803962363e-02
5.564000000000000057e+01,3.767064269353268685e-02
5.567999999999999972e+01,3.684366248491119378e-02
5.571999999999999886e+01,4.024424012413175406e-02
5.575999999999999801e+01,4.494563387953069700e-02
5.579999999999999716e+01,5.810210837214137974e-02
5.584000000000000341e+01,4.361715903239320180e-02
5.588000000000000256e+01,4.604233211229279144e-02
5.592000000000000171e+01,4.879274824103827651e-02
5.596000000000000085e+01,4.796608442702750968e-02
5.600000000000000000e+01,4.226156770516062422e-02
5.603999999999999915e+01,4.956485655579382504e-02
5.607999999999999829e+01,5.524223412800209621e-02
5.611999999999999744e+01,3.392858971153756009e-02
5.615999999999999659e+01,4.188244467766814860e-02
5.620000000000000284e+01,4.788520075651560293e-02
5.624000000000000199e+01,4.966050372304149640e-02
5.628000000000000114e+01,4.233044932570521890e-02
5.632000000000000028e+01,5.028457111111921812e-02
5.635999999999999943e+01,4.718217710909727164e-02
5.639999999999999858e+01,5.448605708643633472e-02
5.643999999999999773e+01,5.593652542564733071e-02
5.647999999999999687e+01,6.096420302095345578e-02
5.652000000000000313e+01,4.485436666873229145e-02
5.656000000000000227e+01,4.565468755473440360e-02
5.660000000000000142e+01,4.678028630815807276e-02
5.664000000000000057e+01,4.172728991089826728e-02
5.667999999999999972e+01,4.643019432343445385e-02
5.671999999999999886e+01,6.218977660716923372e-02
5.675999999999999801e+01,5.193395093259377954e-02
5.679999999999999716e+01,4.558054465263804145e-02
5.684000000000000341e+01,4.898304737508416690e-02
5.688000000000000256e+01,6.116587988814547322e-02
5.692000000000000171e+01,5.611354397494819346e-02
5.696000000000000085e+01,5.496363564897668863e-02
5.700000000000000000e+01,4.243205055268045589e-02
5.703999999999999915e+01,6.437110995131728464e-02
5.707999999999999829e+01,4.858780265759442968e-02
5.711999999999999744e+01,5.914530012228746969e-02
5.715999999999999659e+01,6.189826029570269506e-02
5.720000000000000284e+01,5.196877892629917645e-02
5.724000000000000199e+01,5.016925827424852102e-02
5.728000000000000114e+01,4.836985655488203195e-02
5.732000000000000028e+01,5.079809460941755311e-02
5.735999999999999943e+01,6.070591201913479174e-02
5.739999999999999858e+01,6.345959193310879431e-02
5.743999999999999773e+01,5.515681135973717758e-02
5.747999999999999687e+01,4.425260993330457082e-02
5.752000000000000313e+01,5.936403999349013777e-02
5.756000000000000227e+01,6.341901571078448208e-02
5.760000000000000142e+01,5.153963283364711850e-02
5.764000000000000057e+01,5.689565624813635453e-02
5.767999999999999972e+01,4.891887519099941128e-02
5.771999999999999886e+01,4.679572315584351605e-02
5.775999999999999801e+01,6.548511484320963805e-02
5.779999999999999716e+01,6.303705812389658047e-02
5.784000000000000341e+01,7.164573662402408394e-02
5.788000000000000256e+01,6.106813333365223445e-02
5.792000000000000171e+01,5.504339429276784712e-02
5.796000000000000085e+01,6.040059036909136564e-02
5.800000000000000000e+01,5.372577337225183797e-02
5.803999999999999915e+01,6.591235191511796154e-02
5.807999999999999829e+01,6.411575896124725726e-02
5.811999999999999744e+01,6.882320301749826619e-02
5.815999999999999659e+01,6.800251725944846115e-02
5.820000000000000284e+01,5.840176620212134823e-02
5.824000000000000199e+01,7.091435845838540974e-02
5.828000000000000114e+01,6.489107691229065167e-02
5.832000000000000028e+01,5.724199878425498961e-02
5.835999999999999943e+01,5.642216370856276836e-02
5.839999999999999858e+01,7.023622381287317196e-02
5.843999999999999773e+01,5.901054324117445404e-02
5.847999999999999687e+01,5.624008063283802289e-02
5.852000000000000313e+01,6.452638806251757841e-02
5.856000000000000227e+01,7.021132993922668541e-02
5.860000000000000142e+01,5.638483313885068321e-02
5.864000000000000057e+01,6.954960643327297298e-02
5.867999999999999972e+01,6.840604519991801136e-02
5.871999999999999886e+01,7.896965175196241082e-02
5.875999999999999801e+01,5.343694640057409379e-02
5.879999999999999716e+01,5.944823188296950028e-02
5.884000000000000341e+01,6.676049118920866776e-02
5.888000000000000256e+01,6.984543256112536735e-02
5.892000000000000171e+01,6.837786429355804940e-02
5.896000000000000085e+01,5.975623840815598442e-02
5.900000000000000000e+01,7.584954477772612447e-02
5.903999999999999915e+01,6.397639741374432087e-02
5.907999999999999829e+01,6.771276130827902362e-02
5.911999999999999744e+01,6.396988202427213166e-02
5.915999999999999659e+01,5.242256785656219248e-02
5.920000000000000284e+01,6.331383991139222234e-02
5.924000000000000199e+01,6.802664994538633325e-02
5.928000000000000114e+01,5.713038116062443134e-02
5.932000000000000028e+01,7.322541728923634419e-02
5.935999999999999943e+01,6.883347239570312970e-02
5.939999999999999858e+01,7.062043629982690807e-02
5.943999999999999773e+01,6.720452968381054881e-02
5.947999999999999687e+01,7.874776730120003343e-02
5.952000000000000313e+01,6.590170704929672330e-02
5.956000000000000227e+01,7.224231392016862430e-02
5.960000000000000142e+01,6.525021463068632344e-02
5.964000000000000057e+01,7.159129900065176744e-02
5.967999999999999972e+01,7.825781894570388308e-02
5.971999999999999886e+01,8.232303273417901357e-02
5.975999999999999801e+01,7.630748608803394895e-02
5.979999999999999716e+01,7.159296242136864441e-02
5.984000000000000341e+01,6.037481370282702514e-02
5.988000000000000256e+01,7.419683605190344200e-02
5.992000000000000171e+01,7.371058736589908289e-02
5.996000000000000085e+01,6.737110727909845220e-02
