2.003999999999999915e+01,2.059592305984720220e-02
2.007999999999999829e+01,1.294855609955214426e-01
2.012000000000000099e+01,8.757522896966919712e-02
2.016000000000000014e+01,7.353750417274479423e-02
2.019999999999999929e+01,9.877702118200140657e-02
2.023999999999999844e+01,1.392173358385791204e-01
2.028000000000000114e+01,1.581101901492904249e-01
2.032000000000000028e+01,1.263104144215430047e-01
2.035999999999999943e+01,2.300936741463475432e-01
2.039999999999999858e+01,1.906800670948216592e-01
2.044000000000000128e+01,1.892765332242447862e-01
2.048000000000000043e+01,2.132112608266533982e-01
2.051999999999999957e+01,2.130641780745290981e-01
2.055999999999999872e+01,2.078430078457337293e-01
2.060000000000000142e+01,1.012419671257286241e-01
2.064000000000000057e+01,1.644378740955335649e-01
2.067999999999999972e+01,1.009102871582029243e-01
2.071999999999999886e+01,1.286144063905726997e-01
2.076000000000000156e+01,1.385726349437743921e-01
2.080000000000000071e+01,7.376181268969266014e-02
2.083999999999999986e+01,2.573131945300971557e-01
2.087999999999999901e+01,1.278654297305561738e-01
2.092000000000000171e+01,1.479397253704645421e-01
2.096000000000000085e+01,1.642071361808024599e-01
2.100000000000000000e+01,2.412939148430159053e-01
2.103999999999999915e+01,1.016873405116553719e-01
2.107999999999999829e+01,1.508854580116328614e-01
2.112000000000000099e+01,1.126427278809317006e-01
2.116000000000000014e+01,1.656317273099639498e-01
2.119999999999999929e+01,1.400501530450821153e-01
2.123999999999999844e+01,5.363854658071304238e-02
2.128000000000000114e+01,1.902455399322046659e-01
2.132000000000000028e+01,9.241865580662946000e-02
2.135999999999999943e+01,1.707246645626295800e-01
2.139999999999999858e+01,1.463836639713216037e-01
2.144000000000000128e+01,1.118998971496789480e-01
2.148000000000000043e+01,9.768571942645945527e-02
2.151999999999999957e+01,1.797720159340060464e-01
2.155999999999999872e+01,3.632275143324180666e-01
2.160000000000000142e+01,1.323093936908500690e-01
2.164000000000000057e+01,2.556974409467300396e-02
2.167999999999999972e+01,1.532533480289219874e-01
2.171999999999999886e+01,1.199996159888817998e-01
2.176000000000000156e+01,4.492360014361729270e-02
2.180000000000000071e+01,1.168353287510035809e-01
2.183999999999999986e+01,1.304514198212710363e-01
2.187999999999999901e+01,1.529324888027318585e-01
2.192000000000000171e+01,4.108704149382873955e-02
2.196000000000000085e+01,2.434972897561949734e-01
2.200000000000000000e+01,2.342829615915210384e-01
2.203999999999999915e+01,1.895822714233544870e-01
2.207999999999999829e+01,9.672340754373071059e-02
2.212000000000000099e+01,1.559210306614263464e-01
2.216000000000000014e+01,1.314794055842764264e-01
2.219999999999999929e+01,1.779946632174695675e-01
2.223999999999999844e+01,1.358019513748185136e-01
2.228000000000000114e+01,4.671825783597920861e-02
2.232000000000000028e+01,2.579512837879464060e-01
2.235999999999999943e+01,2.157427667968869478e-01
2.239999999999999858e+01,1.507197207739655875e-01
2.244000000000000128e+01,1.376458494680913858e-01
2.248000000000000043e+01,1.118949044505526957e-01
2.251999999999999957e+01,2.077881144916086387e-01
2.255999999999999872e+01,1.440112145955090017e-01
2.260000000000000142e+01,1.397865862225226297e-01
2.264000000000000057e+01,2.128547708670774641e-01
2.267999999999999972e+01,1.908791025086593041e-01
2.271999999999999886e+01,1.004703923257258130e-01
2.276000000000000156e+01,1.621182031619780306e-01
2.280000000000000071e+01,1.147831721565941571e-01
2.283999999999999986e+01,2.283749361071600592e-01
2.287999999999999901e+01,1.088000868923944958e-01
2.292000000000000171e+01,8.806014909809788127e-02
2.296000000000000085e+01,1.623535807003364251e-01
2.300000000000000000e+01,1.568093529117319807e-01
2.303999999999999915e+01,1.563286205486577596e-01
2.307999999999999829e+01,1.533082974368832341e-01
2.312000000000000099e+01,2.263136314756164225e-01
2.316000000000000014e+01,1.611909709910580302e-01
2.319999999999999929e+01,1.581549766919790601e-01
2.323999999999999844e+01,1.855261161189232788e-01
2.328000000000000114e+01,1.571360573248167247e-01
2.332000000000000028e+01,1.325423274573752919e-01
2.335999999999999943e+01,1.294854680110257561e-01
2.339999999999999858e+01,2.569430800873704346e-01
2.344000000000000128e+01,1.398294763166208488e-01
2.348000000000000043e+01,7.973382808218601459e-02
2.351999999999999957e+01,1.881680992525349427e-01
2.355999999999999872e+01,1.914211131325143367e-01
2.360000000000000142e+01,2.073407405077567489e-01
2.364000000000000057e+01,1.370868355968572483e-01
2.367999999999999972e+01,1.618663383570958236e-01
2.371999999999999886e+01,2.423966280284182429e-01
2.376000000000000156e+01,1.379132438849293429e-01
2.380000000000000071e+01,2.019597940307890638e-01
2.383999999999999986e+01,1.101378464335304730e-01
2.387999999999999901e+01,1.108149543723770808e-01
2.392000000000000171e+01,8.107452578069943017e-02
2.396000000000000085e+01,1.045505340914402032e-01
2.400000000000000000e+01,2.002507021824590228e-01
2.403999999999999915e+01,1.426167459290579032e-01
2.407999999999999829e+01,1.470695026412055517e-01
2.412000000000000099e+01,2.389526021139285195e-01
2.416000000000000014e+01,3.219602613326875140e-01
2.419999999999999929e+01,1.160453966851673624e-01
2.423999999999999844e+01,7.105740141643310248e-02
2.428000000000000114e+01,1.933321845700168018e-01
2.432000000000000028e+01,1.394635933619542134e-01
2.435999999999999943e+01,2.249797943934180866e-01
2.439999999999999858e+01,2.483989498249344341e-01
2.444000000000000128e+01,1.717056202798823983e-01
2.448000000000000043e+01,1.532974808137479161e-01
2.451999999999999957e+01,2.400602447399170225e-01
2.455999999999999872e+01,1.595499167466714330e-01
2.460000000000000142e+01,1.537981431960712131e-01
2.464000000000000057e+01,2.190033820641847651e-01
2.467999999999999972e+01,1.663556093458690988e-01
2.471999999999999886e+01,2.442223783203494036e-01
2.476000000000000156e+01,1.294724383385898459e-01
2.480000000000000071e+01,7.934361236384647464e-02
2.483999999999999986e+01,1.774698738290596822e-01
2.487999999999999901e+01,1.463385018887811140e-01
2.492000000000000171e+01,1.709579806505885646e-01
2.496000000000000085e+01,1.372819877318828263e-01
2.500000000000000000e+01,1.859676588200876723e-01
2.503999999999999915e+01,6.484590073841320357e-02
2.507999999999999829e+01,1.097197822229577374e-01
2.512000000000000099e+01,1.520541814035060446e-01
2.516000000000000014e+01,1.006120407992518034e-01
2.519999999999999929e+01,2.037609136894213691e-01
2.523999999999999844e+01,1.320336425078119935e-01
2.528000000000000114e+01,1.692788592697733185e-01
2.532000000000000028e+01,1.811753394577794163e-01
2.535999999999999943e+01,2.234790660692454745e-01
2.539999999999999858e+01,2.378996975926238877e-01
2.544000000000000128e+01,6.223801907486296164e-02
2.548000000000000043e+01,3.736582478579280470e-02
2.551999999999999957e+01,1.468097588671526399e-01
2.555999999999999872e+01,1.333320026084201804e-01
2.560000000000000142e+01,1.984143981018009484e-01
2.564000000000000057e+01,2.381480740321594014e-01
2.567999999999999972e+01,1.308836197162993875e-01
2.571999999999999886e+01,2.339661874086810534e-01
2.576000000000000156e+01,2.382035216780288567e-01
2.580000000000000071e+01,1.892141544542966514e-01
2.583999999999999986e+01,1.820366916213234931e-01
2.587999999999999901e+01,1.634495172012908337e-01
2.592000000000000171e+01,1.968117024922135527e-01
2.596000000000000085e+01,9.458040487238192351e-02
2.600000000000000000e+01,5.316874090026969812e-02
2.603999999999999915e+01,4.976744780045085775e-02
2.607999999999999829e+01,1.008498856839200042e-01
2.612000000000000099e+01,1.684006151740562451e-01
2.616000000000000014e+01,1.028922351521365519e-01
2.619999999999999929e+01,1.438220292133564615e-01
2.623999999999999844e+01,7.323480153361543177e-02
2.628000000000000114e+01,1.065513894228810321e-01
2.632000000000000028e+01,1.652065492346784237e-01
2.635999999999999943e+01,1.655663117887976321e-01
2.639999999999999858e+01,1.570507531654919686e-01
2.644000000000000128e+01,1.396598754911272111e-01
2.648000000000000043e+01,1.640809362293895457e-01
2.651999999999999957e+01,2.708637417764991895e-01
2.655999999999999872e+01,1.381442228668531558e-01
2.660000000000000142e+01,1.181988062211785789e-01
2.664000000000000057e+01,1.856838662971838083e-01
2.667999999999999972e+01,1.226442072707677744e-01
2.671999999999999886e+01,1.584396616696606419e-01
2.676000000000000156e+01,1.612833677432038426e-01
2.680000000000000071e+01,7.415216536327955132e-02
2.683999999999999986e+01,1.340089753582173471e-01
2.687999999999999901e+01,1.152955136033190081e-01
2.692000000000000171e+01,8.137085139659763766e-02
2.696000000000000085e+01,9.305969726920278184e-02
2.700000000000000000e+01,2.770801916907958407e-01
2.703999999999999915e+01,1.126207881967998814e-01
2.707999999999999829e+01,1.483710279400506094e-01
2.712000000000000099e+01,7.133711133897549517e-02
2.716000000000000014e+01,1.108788709213058832e-01
2.719999999999999929e+01,1.428125332369789557e-01
2.723999999999999844e+01,1.455960168939998134e-01
2.728000000000000114e+01,1.483744958376959633e-01
2.732000000000000028e+01,2.119726785992141205e-01
2.735999999999999943e+01,1.070307369035566752e-01
2.739999999999999858e+01,1.161301213826390621e-01
2.744000000000000128e+01,1.353619607213256970e-01
2.748000000000000043e+01,2.027416985489720325e-01
2.751999999999999957e+01,1.307264922438678978e-01
2.755999999999999872e+01,1.588136254012084969e-01
2.760000000000000142e+01,1.400100596691372656e-01
2.764000000000000057e+01,1.389420477291016254e-01
2.767999999999999972e+01,1.695485869252310596e-01
2.771999999999999886e+01,6.709609953760878320e-02
2.776000000000000156e+01,1.167003989650158141e-01
2.780000000000000071e+01,1.510935447206686322e-01
2.783999999999999986e+01,6.256512133913318119e-02
2.787999999999999901e+01,1.336965794523248818e-01
2.792000000000000171e+01,7.937210991419621497e-02
2.796000000000000085e+01,1.238828197187464009e-01
2.800000000000000000e+01,1.329074843484490120e-01
2.803999999999999915e+01,1.558661798835559442e-01
2.807999999999999829e+01,1.306670206622195241e-01
2.812000000000000099e+01,2.093717748227610920e-01
2.816000000000000014e+01,1.600862513233165807e-01
2.819999999999999929e+01,1.893610177898236158e-01
2.823999999999999844e+01,8.430960393191375135e-02
2.828000000000000114e+01,1.820022598691186655e-01
2.832000000000000028e+01,2.290027110412148070e-01
2.835999999999999943e+01,1.771580670041168482e-01
2.839999999999999858e+01,6.955249692091124147e-02
2.844000000000000128e+01,1.152709311844023893e-01
2.848000000000000043e+01,1.381751596237767443e-01
2.851999999999999957e+01,5.082966890852753938e-02
2.855999999999999872e+01,8.639583571668457695e-02
2.860000000000000142e+01,1.156211610644526377e-01
2.864000000000000057e+01,1.118948380261075709e-01
2.867999999999999972e+01,2.260114533565367456e-01
2.871999999999999886e+01,2.564891692162678538e-01
2.876000000000000156e+01,9.435038875643410317e-02
2.880000000000000071e+01,6.526072964566985435e-02
2.883999999999999986e+01,1.248688455901899030e-01
2.887999999999999901e+01,2.579685621151645569e-01
2.892000000000000171e+01,2.554749530805238700e-01
2.896000000000000085e+01,1.452660110481590328e-01
2.900000000000000000e+01,1.643046568463997492e-01
2.903999999999999915e+01,1.503916755221945400e-01
2.907999999999999829e+01,2.036343984931129336e-01
2.912000000000000099e+01,1.656351549564027692e-01
2.916000000000000014e+01,1.010201975935117041e-01
2.919999999999999929e+01,1.656528386930594954e-01
2.923999999999999844e+01,2.226774909706537853e-01
2.928000000000000114e+01,1.238339346910065780e-01
2.932000000000000028e+01,1.491692577191665314e-01
2.935999999999999943e+01,1.048047105162584758e-01
2.939999999999999858e+01,1.161912521685124350e-01
2.944000000000000128e+01,1.960006986366228665e-01
2.948000000000000043e+01,1.604917514491801811e-01
2.951999999999999957e+01,9.583274680599132567e-02
2.955999999999999872e+01,2.326506986182204084e-01
2.960000000000000142e+01,1.325008503444327079e-01
2.964000000000000057e+01,1.121785499692323634e-01
2.967999999999999972e+01,9.945446076330860530e-02
2.971999999999999886e+01,1.703052046361774874e-02
2.976000000000000156e+01,2.057785233399913316e-01
2.980000000000000071e+01,8.786376067336884588e-02
2.983999999999999986e+01,1.878993273313599721e-01
2.987999999999999901e+01,1.485400753122389506e-01
2.992000000000000171e+01,1.421226748892535363e-01
2.996000000000000085e+01,1.585096771213072853e-01
3.000000000000000000e+01,9.379221069326458549e-02
3.003999999999999915e+01,1.139710389612091229e-01
3.007999999999999829e+01,1.632901831804578208e-01
3.012000000000000099e+01,1.606500369376682447e-01
3.016000000000000014e+01,1.681424901474219136e-01
3.019999999999999929e+01,1.186069316141392799e-01
3.023999999999999844e+01,2.097236592797274424e-01
3.028000000000000114e+01,2.298733842372501779e-01
3.032000000000000028e+01,1.549796623278475727e-01
3.035999999999999943e+01,1.307683547726771478e-01
3.039999999999999858e+01,1.787815472164650255e-01
3.044000000000000128e+01,1.634308337582516257e-01
3.048000000000000043e+01,1.708845505978455748e-01
3.051999999999999957e+01,1.910052487941486521e-01
3.055999999999999872e+01,1.198840570320270360e-01
3.060000000000000142e+01,1.919495333729429876e-01
3.064000000000000057e+01,2.107885655111549350e-01
3.067999999999999972e+01,7.756100766526020929e-02
3.071999999999999886e+01,1.268027471879245860e-01
3.076000000000000156e+01,1.215508675035530950e-01
3.080000000000000071e+01,1.213628957598609920e-01
3.083999999999999986e+01,1.401778293009772469e-01
3.087999999999999901e+01,1.235068707656521714e-01
3.092000000000000171e+01,1.017623754826429833e-01
3.096000000000000085e+01,2.067312094553437340e-01
3.100000000000000000e+01,1.114805778844192852e-01
3.103999999999999915e+01,1.416760984385052047e-01
3.107999999999999829e+01,1.490575513823129139e-01
3.112000000000000099e+01,3.351760955100557132e-02
3.116000000000000014e+01,1.663404204168053291e-01
3.119999999999999929e+01,1.280889481897718452e-01
3.123999999999999844e+01,2.786427078912294686e-01
3.128000000000000114e+01,1.174650551915301794e-01
3.132000000000000028e+01,1.235505551546954156e-01
3.135999999999999943e+01,1.232953603767778100e-01
3.139999999999999858e+01,2.142724395084818489e-01
3.144000000000000128e+01,1.379767924558515935e-01
3.148000000000000043e+01,1.693867815502047292e-01
3.151999999999999957e+01,6.773794606564723098e-02
3.155999999999999872e+01,1.270163690849898386e-01
3.160000000000000142e+01,1.482745755356269513e-01
3.164000000000000057e+01,1.555890138291503855e-01
3.167999999999999972e+01,1.489596860919278065e-01
3.171999999999999886e+01,1.765394870207778188e-01
3.176000000000000156e+01,1.166790059325031742e-01
3.180000000000000071e+01,1.695929035358777204e-01
3.183999999999999986e+01,1.388680675251607322e-01
3.187999999999999901e+01,1.132071968670249340e-01
3.192000000000000171e+01,1.242898282736615151e-01
3.196000000000000085e+01,1.581769686536747266e-01
3.200000000000000000e+01,1.287002860599900655e-01
3.203999999999999915e+01,1.511732885113733216e-01
3.207999999999999829e+01,1.977179876986661367e-01
3.211999999999999744e+01,1.732957819907640085e-01
3.215999999999999659e+01,1.982889049401637405e-01
3.220000000000000284e+01,1.953992942838227442e-01
3.224000000000000199e+01,1.760315845990035044e-01
3.228000000000000114e+01,5.401744393863262134e-02
3.232000000000000028e+01,2.221831032932917727e-01
3.235999999999999943e+01,1.723888300327335865e-01
3.239999999999999858e+01,7.823847581363974069e-02
3.243999999999999773e+01,1.779621428477721201e-01
3.247999999999999687e+01,1.243521342008680614e-01
3.252000000000000313e+01,1.505698265509576028e-01
3.256000000000000227e+01,1.096221815461853460e-01
3.260000000000000142e+01,1.662427811592015470e-01
3.264000000000000057e+01,9.233897849844202588e-02
3.267999999999999972e+01,1.045987922573071716e-01
3.271999999999999886e+01,1.029148952709621201e-01
3.275999999999999801e+01,8.475292689890671916e-02
3.279999999999999716e+01,5.771597756810557117e-02
3.284000000000000341e+01,2.169499824536001431e-01
3.288000000000000256e+01,9.739937596186377944e-02
3.292000000000000171e+01,1.755243603900527860e-01
3.296000000000000085e+01,1.205905967885341767e-01
3.300000000000000000e+01,1.201409320317513851e-01
3.303999999999999915e+01,1.703738240957717309e-01
3.307999999999999829e+01,8.881515589261738952e-02
3.311999999999999744e+01,1.479089269867398249e-01
3.315999999999999659e+01,8.915013728418283434e-02
3.320000000000000284e+01,7.600518737416557535e-02
3.324000000000000199e+01,1.021381724658883688e-01
3.328000000000000114e+01,1.650147319188530193e-01
3.332000000000000028e+01,1.936727103871804523e-01
3.335999999999999943e+01,1.767074775463411407e-01
3.339999999999999858e+01,1.027144030718052381e-01
3.343999999999999773e+01,5.279309762964810165e-02
3.347999999999999687e+01,8.523390698415275746e-02
3.352000000000000313e+01,1.316090385563063458e-01
3.356000000000000227e+01,1.006814348653033570e-01
3.360000000000000142e+01,1.571846778837935332e-01
3.364000000000000057e+01,1.097743808397684678e-01
3.367999999999999972e+01,1.105123118715489322e-01
3.371999999999999886e+01,1.327876640534096375e-01
3.375999999999999801e+01,1.335162724749973384e-01
3.379999999999999716e+01,2.229429196213454645e-01
3.384000000000000341e+01,8.300508037714916798e-02
3.388000000000000256e+01,6.344481869627102699e-02
3.392000000000000171e+01,2.136822106589624515e-01
3.396000000000000085e+01,1.193489460090141063e-01
3.400000000000000000e+01,1.707368929701431337e-01
3.403999999999999915e+01,1.549595812519799221e-01
3.407999999999999829e+01,8.468882681522063582e-02
3.411999999999999744e+01,1.246582116325155587e-01
3.415999999999999659e+01,1.925009479070900198e-01
3.420000000000000284e+01,1.982471595415710997e-01
3.424000000000000199e+01,1.304922162114286188e-01
3.428000000000000114e+01,2.439395781130530572e-01
3.432000000000000028e+01,1.381599302079982161e-01
3.435999999999999943e+01,1.312158018643019564e-01
3.439999999999999858e+01,1.318701356011579007e-01
3.443999999999999773e+01,5.775614362179138511e-02
3.447999999999999687e+01,6.473713821482246500e-02
3.452000000000000313e+01,1.756223864084103525e-01
3.456000000000000227e+01,9.769299075591036940e-02
3.460000000000000142e+01,2.313782705485021574e-01
3.464000000000000057e+01,1.217601112601224139e-01
3.467999999999999972e+01,1.451913858967251170e-01
3.471999999999999886e+01,1.369385167383926349e-01
3.475999999999999801e+01,2.097806490370245358e-01
3.479999999999999716e+01,4.058653214358474981e-02
3.484000000000000341e+01,1.146866380392614904e-01
3.488000000000000256e+01,1.026138091578528977e-01
3.492000000000000171e+01,1.716359902388762682e-01
3.496000000000000085e+01,7.845435778957059181e-02
3.500000000000000000e+01,1.259252645767793555e-01
3.503999999999999915e+01,1.455135887302853592e-01
3.507999999999999829e+01,7.766180735510763711e-02
3.511999999999999744e+01,1.504625715955439091e-01
3.515999999999999659e+01,1.675027691458534085e-01
3.520000000000000284e+01,6.162178881045630302e-02
3.524000000000000199e+01,1.990350525278426763e-01
3.528000000000000114e+01,1.450993479068764802e-01
3.532000000000000028e+01,1.722586745120094909e-01
3.535999999999999943e+01,1.905431562458684558e-01
3.539999999999999858e+01,6.689874997436028037e-02
3.543999999999999773e+01,1.079833526146266320e-01
3.547999999999999687e+01,1.249869401615238962e-01
3.552000000000000313e+01,1.761998583793345508e-01
3.556000000000000227e+01,1.767209567044177032e-01
3.560000000000000142e+01,5.432089840746178594e-02
3.564000000000000057e+01,1.574745660588954821e-01
3.567999999999999972e+01,1.516460765587856752e-01
3.571999999999999886e+01,1.686222959105272701e-01
3.575999999999999801e+01,9.689126449838608712e-02
3.579999999999999716e+01,9.358347599441556308e-02
3.584000000000000341e+01,9.787422612020053869e-02
3.588000000000000256e+01,1.084963356186745276e-01
3.592000000000000171e+01,1.165795369321741548e-01
3.596000000000000085e+01,1.335284646379627793e-01
3.600000000000000000e+01,1.289307676600157937e-01
3.603999999999999915e+01,1.331988013270907489e-01
3.607999999999999829e+01,1.298592097809265211e-01
3.611999999999999744e+01,1.607289808011770904e-01
3.615999999999999659e+01,7.754789465255358671e-02
3.620000000000000284e+01,6.532443544263415169e-02
3.624000000000000199e+01,1.760130420185360423e-01
3.628000000000000114e+01,1.232307238507795305e-01
3.632000000000000028e+01,7.044388152858177543e-02
3.635999999999999943e+01,1.545081065890681060e-01
3.639999999999999858e+01,1.600025659750035911e-01
3.643999999999999773e+01,3.750718785887035417e-02
3.647999999999999687e+01,8.480959947377837704e-02
3.652000000000000313e+01,4.213761934233920675e-02
3.656000000000000227e+01,1.299808103082531197e-01
3.660000000000000142e+01,1.202465254799558875e-01
3.664000000000000057e+01,1.523247191614390539e-01
3.667999999999999972e+01,1.210393386541338961e-01
3.671999999999999886e+01,2.253378632833811790e-01
3.675999999999999801e+01,1.230813216486500716e-01
3.679999999999999716e+01,8.164498778066020535e-02
3.684000000000000341e+01,1.225709473241388403e-01
3.688000000000000256e+01,1.153395199118587983e-01
3.692000000000000171e+01,1.752642135625850084e-01
3.696000000000000085e+01,1.629550782250598073e-01
3.700000000000000000e+01,8.348084155938126361e-02
3.703999999999999915e+01,1.408577084246222799e-01
3.707999999999999829e+01,1.855582777020606255e-01
3.711999999999999744e+01,1.415516685120859763e-01
3.715999999999999659e+01,9.754057982137144533e-02
3.720000000000000284e+01,1.194184456947983142e-01
3.724000000000000199e+01,1.717041895226096571e-01
3.728000000000000114e+01,1.086719543363831308e-01
3.732000000000000028e+01,1.698190237313131623e-01
3.735999999999999943e+01,1.194496625152380864e-01
3.739999999999999858e+01,1.843893404490225263e-01
3.743999999999999773e+01,1.188048712730403744e-01
3.747999999999999687e+01,5.448312099068568920e-02
3.752000000000000313e+01,1.118063231544555308e-01
3.756000000000000227e+01,1.640563415474217135e-01
3.760000000000000142e+01,1.567443788083336675e-01
3.764000000000000057e+01,1.101453391984858893e-01
3.767999999999999972e+01,1.205650099851488660e-01
3.771999999999999886e+01,1.005678778378160942e-01
3.775999999999999801e+01,1.958798039776434297e-01
3.779999999999999716e+01,7.069772392126580374e-02
3.784000000000000341e+01,0.000000000000000000e+00
3.788000000000000256e+01,1.624592094042598134e-01
3.792000000000000171e+01,1.386383163441037847e-01
3.796000000000000085e+01,1.845079623993559903e-01
3.800000000000000000e+01,1.277314815495010913e-01
3.803999999999999915e+01,1.976687063222704044e-01
3.807999999999999829e+01,2.409906914486433238e-01
3.811999999999999744e+01,1.170403054939290061e-01
3.815999999999999659e+01,9.065845972198124936e-02
3.820000000000000284e+01,1.719826073266302602e-01
3.824000000000000199e+01,1.443247338672080382e-01
3.828000000000000114e+01,1.635481516323345763e-01
3.832000000000000028e+01,1.396829845246367052e-01
3.835999999999999943e+01,1.601647501273554819e-01
3.839999999999999858e+01,1.096799446744580464e-01
3.843999999999999773e+01,1.225497969362049494e-01
3.847999999999999687e+01,1.126059749655219377e-01
3.852000000000000313e+01,1.140623782414652426e-01
3.856000000000000227e+01,8.383484185368160480e-02
3.860000000000000142e+01,1.727179525570584073e-01
3.864000000000000057e+01,1.348785240919706530e-01
3.867999999999999972e+01,1.616609474831599835e-01
3.871999999999999886e+01,2.087138764368403343e-01
3.875999999999999801e+01,1.911361603893702854e-01
3.879999999999999716e+01,1.241339780683127086e-01
3.884000000000000341e+01,1.787768183634819985e-01
3.888000000000000256e+01,1.421782109845096398e-01
3.892000000000000171e+01,7.896440861284248491e-02
3.896000000000000085e+01,1.994875230247177278e-01
3.900000000000000000e+01,1.793491221876661046e-01
3.903999999999999915e+01,1.566719790222463327e-01
3.907999999999999829e+01,1.998838903602039585e-01
3.911999999999999744e+01,1.860682641349103439e-01
3.915999999999999659e+01,1.355000046076585418e-01
3.920000000000000284e+01,1.698285267143797572e-01
3.924000000000000199e+01,1.534654245541136608e-01
3.928000000000000114e+01,2.296021965811515519e-01
3.932000000000000028e+01,1.587415634530314201e-01
3.935999999999999943e+01,1.474340927956922787e-01
3.939999999999999858e+01,3.021230229438677251e-01
3.943999999999999773e+01,2.312493085431426565e-01
3.947999999999999687e+01,2.782191066302145410e-01
3.952000000000000313e+01,2.542223931999392783e-01
3.956000000000000227e+01,3.734128241788531866e-01
3.960000000000000142e+01,3.633464042552381756e-01
3.964000000000000057e+01,3.621459063496524911e-01
3.967999999999999972e+01,4.559796666619036487e-01
3.971999999999999886e+01,4.306940335181895785e-01
3.975999999999999801e+01,5.384581043480349827e-01
3.979999999999999716e+01,7.007066355049628159e-01
3.984000000000000341e+01,6.221863667754625737e-01
3.988000000000000256e+01,7.628841424720621545e-01
3.992000000000000171e+01,8.288138837646839008e-01
3.996000000000000085e+01,9.150141965371654251e-01
4.000000000000000000e+01,9.429198371430309589e-01
4.003999999999999915e+01,9.416759795276046230e-01
4.007999999999999829e+01,9.670386066883035481e-01
4.011999999999999744e+01,1.000000000000000000e+00
4.015999999999999659e+01,9.151092046291984250e-01
4.020000000000000284e+01,8.809013466988480090e-01
4.024000000000000199e+01,7.883988293600822095e-01
4.028000000000000114e+01,6.629452824079262729e-01
4.032000000000000028e+01,5.970449489593524506e-01
4.035999999999999943e+01,5.653542034720691056e-01
4.039999999999999858e+01,3.930020171586948163e-01
4.043999999999999773e+01,4.386007236571221046e-01
4.047999999999999687e+01,4.221032393550352424e-01
4.052000000000000313e+01,3.523798360628320192e-01
4.056000000000000227e+01,3.346065707318133797e-01
4.060000000000000142e+01,2.509355768290822963e-01
4.064000000000000057e+01,1.900695533213118404e-01
4.067999999999999972e+01,2.546501943929380118e-01
4.071999999999999886e+01,2.406612994376219894e-01
4.075999999999999801e+01,1.202248801462057620e-01
4.079999999999999716e+01,2.278768238713556327e-01
4.084000000000000341e+01,2.278140661297056446e-01
4.088000000000000256e+01,2.011362175873320224e-01
4.092000000000000171e+01,2.023320798582176616e-01
4.096000000000000085e+01,1.642410417467833617e-01
4.100000000000000000e+01,2.173827878729900354e-01
4.103999999999999915e+01,1.932221963666216624e-01
4.107999999999999829e+01,1.639886082097230524e-01
4.111999999999999744e+01,1.423538393629908971e-01
4.115999999999999659e+01,1.599974265386155114e-01
4.120000000000000284e+01,1.370869447066875579e-01
4.124000000000000199e+01,1.496532789995508872e-01
4.128000000000000114e+01,1.343373623719249788e-01
4.132000000000000028e+01,1.697044427230195718e-01
4.135999999999999943e+01,1.467769232039669580e-01
4.139999999999999858e+01,9.216561499322650786e-02
4.143999999999999773e+01,6.542804523851319942e-02
4.147999999999999687e+01,1.007781134188841105e-01
4.152000000000000313e+01,1.893455519766747419e-01
4.156000000000000227e+01,1.283813416889799941e-01
4.160000000000000142e+01,1.079626921971089393e-01
4.164000000000000057e+01,4.445563432085379574e-02
4.167999999999999972e+01,1.532810053701832986e-01
4.171999999999999886e+01,2.101477026038314211e-01
4.175999999999999801e+01,1.326889382250231730e-01
4.179999999999999716e+01,6.029466653774983448e-02
4.184000000000000341e+01,1.615000136649609452e-01
4.188000000000000256e+01,7.895983160493019737e-02
4.192000000000000171e+01,1.079273848239033912e-01
4.196000000000000085e+01,2.369980429973495561e-01
4.200000000000000000e+01,1.126282022738428062e-01
4.203999999999999915e+01,1.301784564108298681e-01
4.207999999999999829e+01,1.021059627866013203e-01
4.211999999999999744e+01,1.259836900518608027e-01
4.215999999999999659e+01,1.536587477625235010e-01
4.220000000000000284e+01,1.509172406922656140e-01
4.224000000000000199e+01,1.139576268171558493e-01
4.228000000000000114e+01,1.352841492541657364e-01
4.232000000000000028e+01,1.274612946727887719e-01
4.235999999999999943e+01,1.285045067023804777e-01
4.239999999999999858e+01,1.257419736349773554e-01
4.243999999999999773e+01,1.204408789803793761e-01
4.247999999999999687e+01,1.772274754200341973e-01
4.252000000000000313e+01,1.224979155499939798e-01
4.256000000000000227e+01,1.311232324103726032e-01
4.260000000000000142e+01,1.156679126706635780e-01
4.264000000000000057e+01,9.640686059216049819e-02
4.267999999999999972e+01,2.051269421782574431e-01
4.271999999999999886e+01,1.415061716817108683e-01
4.275999999999999801e+01,2.122024460196627049e-01
4.279999999999999716e+01,1.080235097608389094e-01
4.284000000000000341e+01,1.495662550401431756e-01
4.288000000000000256e+01,1.632268344536282056e-01
4.292000000000000171e+01,1.249288038424340580e-01
4.296000000000000085e+01,1.740621175105525054e-01
4.300000000000000000e+01,1.256182956031395292e-01
4.303999999999999915e+01,1.379950131756804699e-01
4.307999999999999829e+01,1.414972962657299327e-01
4.311999999999999744e+01,1.120487007144282815e-01
4.315999999999999659e+01,1.345503813381506986e-01
4.320000000000000284e+01,1.405745455578840120e-01
4.324000000000000199e+01,1.871443577544779080e-01
4.328000000000000114e+01,1.133277843583140321e-01
4.332000000000000028e+01,1.814313738663807796e-01
4.335999999999999943e+01,6.325515009590994275e-02
4.339999999999999858e+01,1.478237998871841652e-01
4.343999999999999773e+01,1.322809747260951518e-01
4.347999999999999687e+01,1.129324618799142504e-01
4.352000000000000313e+01,1.708778720147168251e-01
4.356000000000000227e+01,9.703227899043198601e-02
4.360000000000000142e+01,1.410304174697189217e-01
4.364000000000000057e+01,1.812228767693803977e-01
4.367999999999999972e+01,1.276397807920439109e-01
4.371999999999999886e+01,1.957019668476780161e-01
4.375999999999999801e+01,9.775926302336915286e-02
4.379999999999999716e+01,1.341336593190937676e-01
4.384000000000000341e+01,1.210838572634406474e-01
4.388000000000000256e+01,1.143658398538263399e-01
4.392000000000000171e+01,1.393232368852766745e-01
4.396000000000000085e+01,1.414672509965416713e-01
4.400000000000000000e+01,1.195307029305545943e-01
4.403999999999999915e+01,1.444757522859280996e-01
4.407999999999999829e+01,1.047904394469286599e-01
4.411999999999999744e+01,8.664310061336411017e-02
4.415999999999999659e+01,1.179117283471260436e-01
4.420000000000000284e+01,6.047355398038957441e-02
4.424000000000000199e+01,1.132760568384942879e-01
4.428000000000000114e+01,1.331277427198842012e-01
4.432000000000000028e+01,1.314332462018221737e-01
4.435999999999999943e+01,1.424064667633647419e-01
4.439999999999999858e+01,2.065972108007329000e-01
4.443999999999999773e+01,1.351954543087841021e-01
4.447999999999999687e+01,1.372861276803216679e-01
4.452000000000000313e+01,1.381055314191682870e-01
4.456000000000000227e+01,7.176023571317732830e-02
4.460000000000000142e+01,1.232587246699263089e-01
4.464000000000000057e+01,1.608141365387553978e-01
4.467999999999999972e+01,1.438766691761765026e-01
4.471999999999999886e+01,1.345382124967710036e-01
4.475999999999999801e+01,1.201269547925762349e-01
4.479999999999999716e+01,1.323224327757829277e-01
4.484000000000000341e+01,1.090327607845431035e-01
4.488000000000000256e+01,9.207492659851056194e-02
4.492000000000000171e+01,1.840906244021214277e-01
4.496000000000000085e+01,1.303763982517190945e-01
4.500000000000000000e+01,2.033762477117551370e-01
4.503999999999999915e+01,1.116384567190171623e-01
4.507999999999999829e+01,1.618209221906465323e-01
4.511999999999999744e+01,1.524418062871700785e-01
4.515999999999999659e+01,1.126462829539129490e-01
4.520000000000000284e+01,1.792899437280005559e-01
4.524000000000000199e+01,1.711658529048875887e-01
4.528000000000000114e+01,1.250222727304963199e-01
4.532000000000000028e+01,1.650429809076226495e-01
4.535999999999999943e+01,1.062194975814225312e-01
4.539999999999999858e+01,1.196213116417113170e-01
4.543999999999999773e+01,1.241488166751465727e-01
4.547999999999999687e+01,1.616190004613825282e-01
4.552000000000000313e+01,1.382604427527477919e-01
4.556000000000000227e+01,1.275696659147198264e-01
4.560000000000000142e+01,1.016686816381407316e-01
4.564000000000000057e+01,1.353211936719214969e-01
4.567999999999999972e+01,1.575650466701831731e-01
4.571999999999999886e+01,1.430566150906340261e-01
4.575999999999999801e+01,1.690939654490503929e-01
4.579999999999999716e+01,8.868405939357699996e-02
4.584000000000000341e+01,1.451257246697069403e-01
4.588000000000000256e+01,2.307085458120063659e-01
4.592000000000000171e+01,1.654927684993628967e-01
4.596000000000000085e+01,2.079833970784648045e-01
4.600000000000000000e+01,2.454012905501471165e-01
4.603999999999999915e+01,1.928452983507679686e-01
4.607999999999999829e+01,1.783007423334228569e-01
4.611999999999999744e+01,1.827599038729841030e-01
4.615999999999999659e+01,1.960853340283544022e-01
4.620000000000000284e+01,3.006438248490430065e-01
4.624000000000000199e+01,2.708770922103505563e-01
4.628000000000000114e+01,2.005565606126828992e-01
4.632000000000000028e+01,2.468127237280926256e-01
4.635999999999999943e+01,2.436448224532292706e-01
4.639999999999999858e+01,3.380458993926829248e-01
4.643999999999999773e+01,3.171294842560835048e-01
4.647999999999999687e+01,2.987434478290628137e-01
4.652000000000000313e+01,3.487812241765012033e-01
4.656000000000000227e+01,3.582652164495308544e-01
4.660000000000000142e+01,3.576077799769102339e-01
4.664000000000000057e+01,4.190382557406835962e-01
4.667999999999999972e+01,3.626168894197390746e-01
4.671999999999999886e+01,3.442069933026962736e-01
4.675999999999999801e+01,2.358232497891936674e-01
4.679999999999999716e+01,3.289173791951774950e-01
4.684000000000000341e+01,2.357318803165302235e-01
4.688000000000000256e+01,2.857339149721872529e-01
4.692000000000000171e+01,2.280215713687900325e-01
4.696000000000000085e+01,2.602751474482461469e-01
4.700000000000000000e+01,2.431046931592975857e-01
4.703999999999999915e+01,1.600368526436827254e-01
4.707999999999999829e+01,1.986144727758450412e-01
4.711999999999999744e+01,1.573557157163120446e-01
4.715999999999999659e+01,1.667802660850444540e-01
4.720000000000000284e+01,2.028116797231831470e-01
4.724000000000000199e+01,2.401063310884357094e-01
4.728000000000000114e+01,2.457175063379119229e-01
4.732000000000000028e+01,1.030645203221475098e-01
4.735999999999999943e+01,1.530191673109726203e-01
4.739999999999999858e+01,1.446795355110300496e-01
4.743999999999999773e+01,1.502749659043644548e-01
4.747999999999999687e+01,1.622023723167450304e-01
4.752000000000000313e+01,1.209042318531898252e-01
4.756000000000000227e+01,1.277550573147016033e-01
4.760000000000000142e+01,1.548768603921224229e-01
4.764000000000000057e+01,1.566511134082325674e-01
4.767999999999999972e+01,6.971874931775094708e-02
4.771999999999999886e+01,1.373785958661715711e-01
4.775999999999999801e+01,1.252020992447645809e-01
4.779999999999999716e+01,1.637089440734915691e-01
4.784000000000000341e+01,8.182964571526996078e-02
4.788000000000000256e+01,1.520082037345512338e-01
4.792000000000000171e+01,1.258770691048438362e-01
4.796000000000000085e+01,1.504292844307369426e-01
4.800000000000000000e+01,1.470996060657542293e-01
4.803999999999999915e+01,1.272926685871592634e-01
4.807999999999999829e+01,1.657721757438623822e-01
4.811999999999999744e+01,1.586292562207287093e-01
4.815999999999999659e+01,1.109326376778566464e-01
4.820000000000000284e+01,2.127595297565558485e-01
4.824000000000000199e+01,1.257725052065944704e-01
4.828000000000000114e+01,1.249499263592904613e-01
4.832000000000000028e+01,1.215890985007036795e-01
4.835999999999999943e+01,1.461023769595914679e-01
4.839999999999999858e+01,1.389322388409721942e-01
4.843999999999999773e+01,1.418956719244999498e-01
4.847999999999999687e+01,1.917409384560969654e-01
4.852000000000000313e+01,9.332210751345529354e-02
4.856000000000000227e+01,1.989156058173027763e-01
4.860000000000000142e+01,1.207639321635222418e-01
4.864000000000000057e+01,8.569255631297925668e-02
4.867999999999999972e+01,1.900072655329444749e-01
4.871999999999999886e+01,1.384547996099076139e-01
4.875999999999999801e+01,1.806698932065264052e-01
4.879999999999999716e+01,1.303768850845238858e-01
4.884000000000000341e+01,1.548437199834162004e-01
4.888000000000000256e+01,1.704364287229953312e-01
4.892000000000000171e+01,1.150631256414135911e-01
4.896000000000000085e+01,8.502959800594189765e-02
4.900000000000000000e+01,9.807638731100838669e-02
4.903999999999999915e+01,1.453332259989492392e-01
4.907999999999999829e+01,9.628043370253672184e-02
4.911999999999999744e+01,1.333921317624834346e-01
4.915999999999999659e+01,1.312173653452932132e-01
4.920000000000000284e+01,1.467792988318158409e-01
4.924000000000000199e+01,1.331922231613988927e-01
4.928000000000000114e+01,1.183341308959338367e-01
4.932000000000000028e+01,1.186783821464162392e-01
4.935999999999999943e+01,1.088813513705535058e-01
4.939999999999999858e+01,9.527894761187701012e-02
4.943999999999999773e+01,1.209553400334742040e-01
4.947999999999999687e+01,1.174827360563322071e-01
4.952000000000000313e+01,1.913043740151859906e-01
4.956000000000000227e+01,1.371368719202639974e-01
4.960000000000000142e+01,1.045076351430209022e-01
4.964000000000000057e+01,1.377680142299774202e-01
4.967999999999999972e+01,1.368106820162963977e-01
4.971999999999999886e+01,1.675290725668587277e-01
4.975999999999999801e+01,1.424876725511570741e-01
4.979999999999999716e+01,8.956447453108290491e-02
4.984000000000000341e+01,1.126683540745057055e-01
4.988000000000000256e+01,1.421043372189793874e-01
4.992000000000000171e+01,7.649791541623465752e-02
4.996000000000000085e+01,1.439417398105699297e-01
5.000000000000000000e+01,1.391524284122130639e-01
5.003999999999999915e+01,1.406952291203744654e-01
5.007999999999999829e+01,1.143562467087305967e-01
5.011999999999999744e+01,1.120899200243997140e-01
5.015999999999999659e+01,1.427665208777792460e-01
5.020000000000000284e+01,1.392254380732891317e-01
5.024000000000000199e+01,1.318790269396872827e-01
5.028000000000000114e+01,1.549411869560298749e-01
5.032000000000000028e+01,1.247779489421090848e-01
5.035999999999999943e+01,1.845808113522150740e-01
5.039999999999999858e+01,1.506084757149363240e-01
5.043999999999999773e+01,1.698539846348626481e-01
5.047999999999999687e+01,9.025557422640606564e-02
5.052000000000000313e+01,1.208981748823705349e-01
5.056000000000000227e+01,1.439339200698582788e-01
5.060000000000000142e+01,1.314848214797107451e-01
5.064000000000000057e+01,1.595817642442726447e-01
5.067999999999999972e+01,1.027737935300474664e-01
5.071999999999999886e+01,1.283288540765525065e-01
5.075999999999999801e+01,8.165081923133395148e-02
5.079999999999999716e+01,1.033968246818160602e-01
5.084000000000000341e+01,1.428796172170480328e-01
5.088000000000000256e+01,1.266026787242846285e-01
5.092000000000000171e+01,2.066277773418476738e-01
5.096000000000000085e+01,1.688012613959345432e-01
5.100000000000000000e+01,1.322381830556092763e-01
5.103999999999999915e+01,9.820572583067206651e-02
5.107999999999999829e+01,8.697879398241672999e-02
5.111999999999999744e+01,1.568477332751256337e-01
5.115999999999999659e+01,1.456133287557478395e-01
5.120000000000000284e+01,1.090315634216998397e-01
5.124000000000000199e+01,9.525533196980072448e-02
5.128000000000000114e+01,1.359641711122411001e-01
5.132000000000000028e+01,9.176813079776265092e-02
5.135999999999999943e+01,9.318689564632665068e-02
5.139999999999999858e+01,1.402204677842994185e-01
5.143999999999999773e+01,1.074178923781853173e-01
5.147999999999999687e+01,1.176957657473484131e-01
5.152000000000000313e+01,1.152981091471043801e-01
5.156000000000000227e+01,1.331716406730771851e-01
5.160000000000000142e+01,1.104916560468523906e-01
5.164000000000000057e+01,1.118844079498765021e-01
5.167999999999999972e+01,1.272124474410529504e-01
5.171999999999999886e+01,1.235290606774922251e-01
5.175999999999999801e+01,1.426512354388475567e-01
5.179999999999999716e+01,1.490978951153637544e-01
5.184000000000000341e+01,1.859532088701277841e-01
5.188000000000000256e+01,1.531098495383028113e-01
5.192000000000000171e+01,1.012550745835738703e-01
5.196000000000000085e+01,1.013510436045532426e-01
5.200000000000000000e+01,1.698711167122360921e-01
5.203999999999999915e+01,1.192724512849118595e-01
5.207999999999999829e+01,1.104870851449324398e-01
5.211999999999999744e+01,1.650571039370249127e-01
5.215999999999999659e+01,1.499284645270957672e-01
5.220000000000000284e+01,8.664325255987198604e-02
5.224000000000000199e+01,1.399350500080043802e-01
5.228000000000000114e+01,9.311584243082481060e-02
5.232000000000000028e+01,1.020489421169526040e-01
5.235999999999999943e+01,1.464594490578275399e-01
5.239999999999999858e+01,1.199041291714489643e-01
5.243999999999999773e+01,9.587950482329422874e-02
5.247999999999999687e+01,8.072148505689484554e-02
5.252000000000000313e+01,1.061096065844419900e-01
5.256000000000000227e+01,1.226237975784163631e-01
5.260000000000000142e+01,1.289968787817521723e-01
5.264000000000000057e+01,1.543740241397745516e-01
5.267999999999999972e+01,1.138540830888417621e-01
5.271999999999999886e+01,1.404911030157805774e-01
5.275999999999999801e+01,1.101013104705289569e-01
5.279999999999999716e+01,1.126545858031931108e-01
5.284000000000000341e+01,7.718877366789379801e-02
5.288000000000000256e+01,1.038112054822016850e-01
5.292000000000000171e+01,1.304299955842689318e-01
5.296000000000000085e+01,1.608466902507602880e-01
5.300000000000000000e+01,1.367709479701275099e-01
5.303999999999999915e+01,1.076228448226225071e-01
5.307999999999999829e+01,1.139521872044660100e-01
5.311999999999999744e+01,1.240794426562010500e-01
5.315999999999999659e+01,1.392717946876276258e-01
5.320000000000000284e+01,8.856708795286706570e-02
5.324000000000000199e+01,1.062865512221789349e-01
5.328000000000000114e+01,1.138649408490868542e-01
5.332000000000000028e+01,1.315771610948854031e-01
5.335999999999999943e+01,1.492857630184767082e-01
5.339999999999999858e+01,9.476140989054987473e-02
5.343999999999999773e+01,8.965351664703546941e-02
5.347999999999999687e+01,7.947328592668226332e-02
5.352000000000000313e+01,1.351828773281029683e-01
5.356000000000000227e+01,1.009189828154114510e-01
5.360000000000000142e+01,1.566213609624529102e-01
5.364000000000000057e+01,1.236174388315483125e-01
5.367999999999999972e+01,1.387628079598232644e-01
5.371999999999999886e+01,1.386984013019970097e-01
5.375999999999999801e+01,7.907287256428273403e-02
5.379999999999999716e+01,1.512306127714228010e-01
5.384000000000000341e+01,1.536897840839451523e-01
5.388000000000000256e+01,1.295345556649361018e-01
5.392000000000000171e+01,9.270392485852521625e-02
5.396000000000000085e+01,1.306334092479535802e-01
5.400000000000000000e+01,1.191392353831576545e-01
5.403999999999999915e+01,6.835885645796822840e-02
5.407999999999999829e+01,1.594992124296642777e-01
5.411999999999999744e+01,1.365896659711564876e-01
5.415999999999999659e+01,1.149437251012095651e-01
5.420000000000000284e+01,1.477830100503744193e-01
5.424000000000000199e+01,1.286642867366507015e-01
5.428000000000000114e+01,1.260153519917832365e-01
5.432000000000000028e+01,1.449049334758713004e-01
5.435999999999999943e+01,1.270426896773659275e-01
5.439999999999999858e+01,1.243830594433843889e-01
5.443999999999999773e+01,1.255214124493974071e-01
5.447999999999999687e+01,1.279233880549055513e-01
5.452000000000000313e+01,9.357354688328725634e-02
5.456000000000000227e+01,1.719992943059972246e-01
5.460000000000000142e+01,1.503141600326665384e-01
5.464000000000000057e+01,1.425644706986278210e-01
5.467999999999999972e+01,1.335440518290517964e-01
5.471999999999999886e+01,1.118482730994090485e-01
5.475999999999999801e+01,1.116910339887561970e-01
5.479999999999999716e+01,1.394082435406242271e-01
5.484000000000000341e+01,1.100987511913724126e-01
5.488000000000000256e+01,1.593509670946936796e-01
5.492000000000000171e+01,1.401718528987314361e-01
5.496000000000000085e+01,1.742108235394165539e-01
5.500000000000000000e+01,1.322153800329545215e-01
5.503999999999999915e+01,1.459723883827395430e-01
5.507999999999999829e+01,1.115729772736353265e-01
5.511999999999999744e+01,7.970440416932719763e-02
5.515999999999999659e+01,1.428709121867879073e-01
5.520000000000000284e+01,1.376061049895328237e-01
5.524000000000000199e+01,1.526126815442351015e-01
5.528000000000000114e+01,1.802875556766643794e-01
5.532000000000000028e+01,1.433326651237766813e-01
5.535999999999999943e+01,1.710005131221002672e-01
5.539999999999999858e+01,1.581150469730668862e-01
5.543999999999999773e+01,1.034090874196105098e-01
5.547999999999999687e+01,1.031884217290017641e-01
5.552000000000000313e+01,1.257735174417838608e-01
5.556000000000000227e+01,1.318817537979023735e-01
5.560000000000000142e+01,1.240474956905891629e-01
5.564000000000000057e+01,1.162097404639738790e-01
5.567999999999999972e+01,1.134372157781556173e-01
5.571999999999999886e+01,1.803561743145806751e-01
5.575999999999999801e+01,1.066145085497460371e-01
5.579999999999999716e+01,1.279079579285479773e-01
5.584000000000000341e+01,1.048465723997283466e-01
5.588000000000000256e+01,6.023961899144679444e-02
5.592000000000000171e+01,5.871335038515067967e-02
5.596000000000000085e+01,7.745850380541415003e-02
5.600000000000000000e+01,1.000017233939746036e-01
5.603999999999999915e+01,1.086024719091382429e-01
5.607999999999999829e+01,1.476120998974250753e-01
5.611999999999999744e+01,1.625418099975843023e-01
5.615999999999999659e+01,1.419869718850866047e-01
5.620000000000000284e+01,1.176271222721229082e-01
5.624000000000000199e+01,1.730962345916338685e-01
5.628000000000000114e+01,1.360576428231052848e-01
5.632000000000000028e+01,1.116874039178387679e-01
5.635999999999999943e+01,1.367337801217571314e-01
5.639999999999999858e+01,1.617766996073412011e-01
5.643999999999999773e+01,1.247242767127434981e-01
5.647999999999999687e+01,1.142792104046378848e-01
5.652000000000000313e+01,1.431133166437196791e-01
5.656000000000000227e+01,9.591309166395757535e-02
5.660000000000000142e+01,9.939667593501365361e-02
5.664000000000000057e+01,1.675030668010167589e-01
5.667999999999999972e+01,1.709797652781727684e-01
5.671999999999999886e+01,1.503765777627025513e-01
5.675999999999999801e+01,1.094950505312723976e-01
5.679999999999999716e+01,1.167629804156277151e-01
5.684000000000000341e+01,1.696460067752695033e-01
5.688000000000000256e+01,1.680368024453618714e-01
5.692000000000000171e+01,1.600882621227230906e-01
5.696000000000000085e+01,1.179223974981950668e-01
5.700000000000000000e+01,1.378449958390493280e-01
5.703999999999999915e+01,1.869093433023955586e-01
5.707999999999999829e+01,2.055579169932515160e-01
5.711999999999999744e+01,1.659127286024593972e-01
5.715999999999999659e+01,1.173938542102711674e-01
5.720000000000000284e+01,1.588414438508233828e-01
5.724000000000000199e+01,1.381937336385287707e-01
5.728000000000000114e+01,1.340159714725973339e-01
5.732000000000000028e+01,1.412394339456636283e-01
5.735999999999999943e+01,1.598641231840945143e-01
5.739999999999999858e+01,1.759510460964946732e-01
5.743999999999999773e+01,1.362785867050461397e-01
5.747999999999999687e+01,1.371525322770203448e-01
5.752000000000000313e+01,1.443589875860947780e-01
5.756000000000000227e+01,1.540964106083365925e-01
5.760000000000000142e+01,1.460899013351855680e-01
5.764000000000000057e+01,1.241410060433076196e-01
5.767999999999999972e+01,1.135933545277283963e-01
5.771999999999999886e+01,1.397905765834731584e-01
5.775999999999999801e+01,1.190987030303344574e-01
5.779999999999999716e+01,1.465563397521505162e-01
5.784000000000000341e+01,1.081171643663217247e-01
5.788000000000000256e+01,1.228962290419127468e-01
5.792000000000000171e+01,1.706186337703635147e-01
5.796000000000000085e+01,1.080928843501161307e-01
5.800000000000000000e+01,1.494726367077072460e-01
5.803999999999999915e+01,1.224212248226213551e-01
5.807999999999999829e+01,1.245116173455634578e-01
5.811999999999999744e+01,1.177283748999110174e-01
5.815999999999999659e+01,1.185448575966590312e-01
5.820000000000000284e+01,1.523046952308340085e-01
5.824000000000000199e+01,9.609129573580579842e-02
5.828000000000000114e+01,1.222413293848222671e-01
5.832000000000000028e+01,1.192428365621515246e-01
5.835999999999999943e+01,1.605923396332703534e-01
5.839999999999999858e+01,2.006713109209599943e-01
5.843999999999999773e+01,1.925940413645673976e-01
5.847999999999999687e+01,1.781775187437475982e-01
5.852000000000000313e+01,6.491750419426091379e-02
5.856000000000000227e+01,1.062502765290649215e-01
5.860000000000000142e+01,1.298391697276452539e-01
5.864000000000000057e+01,1.635621763518928240e-01
5.867999999999999972e+01,1.415258665896611812e-01
5.871999999999999886e+01,1.663719346253866027e-01
5.875999999999999801e+01,1.063135187084082445e-01
5.879999999999999716e+01,1.425575587960050961e-01
5.884000000000000341e+01,1.319125606866205502e-01
5.888000000000000256e+01,1.364704142948362509e-01
5.892000000000000171e+01,1.068110477931331764e-01
5.896000000000000085e+01,9.108735587833059755e-02
5.900000000000000000e+01,1.336506890969486328e-01
5.903999999999999915e+01,1.305921761338517118e-01
5.907999999999999829e+01,1.224616233852613700e-01
5.911999999999999744e+01,1.865570973669545274e-01
5.915999999999999659e+01,1.201295788560250849e-01
5.920000000000000284e+01,1.614091700642347749e-01
5.924000000000000199e+01,1.545325629556979219e-01
5.928000000000000114e+01,1.463854708437996588e-01
5.932000000000000028e+01,1.204945378702789727e-01
5.935999999999999943e+01,1.351501097994181610e-01
5.939999999999999858e+01,1.130541243681743580e-01
5.943999999999999773e+01,1.010922948899326268e-01
5.947999999999999687e+01,1.550206043621100982e-01
5.952000000000000313e+01,1.519224607180777176e-01
5.956000000000000227e+01,1.919051953754044582e-01
5.960000000000000142e+01,1.102352306141739374e-01
5.964000000000000057e+01,1.362723989621172083e-01
5.967999999999999972e+01,1.293595689845427887e-01
5.971999999999999886e+01,1.604589002800629327e-01
5.975999999999999801e+01,1.548066933525006905e-01
5.979999999999999716e+01,9.846395511046050764e-02
5.984000000000000341e+01,1.625001744437565565e-01
5.988000000000000256e+01,1.365632438288868489e-01
5.992000000000000171e+01,1.372338526680489112e-01
5.996000000000000085e+01,1.480386451029806205e-01
