2.003999999999999915e+01,1.091657343319809605e-02
2.007999999999999829e+01,2.686793907564807848e-02
2.012000000000000099e+01,2.116397854607863366e-02
2.016000000000000014e+01,3.135329208308187260e-02
2.019999999999999929e+01,2.685793376735128718e-02
2.023999999999999844e+01,2.635926117710656047e-02
2.028000000000000114e+01,2.139954392589232812e-02
2.032000000000000028e+01,1.197878109569656437e-02
2.035999999999999943e+01,2.216897102484582244e-02
2.039999999999999858e+01,1.470033788493492824e-02
2.044000000000000128e+01,1.764138954333522094e-02
2.048000000000000043e+01,1.881671233075894040e-02
2.051999999999999957e+01,1.618157952363639615e-02
2.055999999999999872e+01,2.088904005245217216e-02
2.060000000000000142e+01,1.332831368225420761e-02
2.064000000000000057e+01,1.580549919202374129e-02
2.067999999999999972e+01,2.711234859682836590e-02
2.071999999999999886e+01,1.611326348493585803e-02
2.076000000000000156e+01,1.914859702801938179e-02
2.080000000000000071e+01,2.236997807951674258e-02
2.083999999999999986e+01,2.029382287923835529e-02
2.087999999999999901e+01,1.589427713543794390e-02
2.092000000000000171e+01,2.171852100966209856e-02
2.096000000000000085e+01,1.490280139448067927e-02
2.100000000000000000e+01,2.184266867999033399e-02
2.103999999999999915e+01,2.497206843679675159e-02
2.107999999999999829e+01,1.564738611430298298e-02
2.112000000000000099e+01,2.156536125159697406e-02
2.116000000000000014e+01,2.348698194200989076e-02
2.119999999999999929e+01,2.717465635591964634e-02
2.123999999999999844e+01,2.417065410687075505e-02
2.128000000000000114e+01,3.250573819858756930e-02
2.132000000000000028e+01,2.457610933802871836e-02
2.135999999999999943e+01,3.876684650242474134e-02
2.139999999999999858e+01,6.067192605278887152e-02
2.144000000000000128e+01,8.806073710140953359e-02
2.148000000000000043e+01,9.881306319742304278e-02
2.151999999999999957e+01,8.205467982053296638e-02
2.155999999999999872e+01,7.031531477750924131e-02
2.160000000000000142e+01,4.658656613138242170e-02
2.164000000000000057e+01,3.094392269143431476e-02
2.167999999999999972e+01,3.147334467981304645e-02
2.171999999999999886e+01,2.912170435399142471e-02
2.176000000000000156e+01,2.333134830353247868e-02
2.180000000000000071e+01,1.633288558012347541e-02
2.183999999999999986e+01,1.974407552460302057e-02
2.187999999999999901e+01,1.544121121515199500e-02
2.192000000000000171e+01,1.708677779816674541e-02
2.196000000000000085e+01,1.854659693896195879e-02
2.200000000000000000e+01,2.865016551625220939e-02
2.203999999999999915e+01,2.778670329508535833e-02
2.207999999999999829e+01,2.525041756452992003e-02
2.212000000000000099e+01,1.565066664646710265e-02
2.216000000000000014e+01,1.116286237416037191e-02
2.219999999999999929e+01,1.773529708212918249e-02
2.223999999999999844e+01,1.650072719198788715e-02
2.228000000000000114e+01,2.028515911149571596e-02
2.232000000000000028e+01,2.044497829005558973e-02
2.235999999999999943e+01,1.196131137783195374e-02
2.239999999999999858e+01,1.639672049723963146e-02
2.244000000000000128e+01,1.302512042847686277e-02
2.248000000000000043e+01,1.625253297450652071e-02
2.251999999999999957e+01,1.511179153296140013e-02
2.255999999999999872e+01,1.741003007977715358e-02
2.260000000000000142e+01,1.431774990021511193e-02
2.264000000000000057e+01,9.366749194953892174e-03
2.267999999999999972e+01,1.069953732848450334e-03
2.271999999999999886e+01,1.414995642672111503e-02
2.276000000000000156e+01,2.174649464009687644e-02
2.280000000000000071e+01,1.196298094990061109e-02
2.283999999999999986e+01,8.499645366175648947e-03
2.287999999999999901e+01,1.451651776131734212e-02
2.292000000000000171e+01,2.555237727791494218e-02
2.296000000000000085e+01,8.148073452466259373e-03
2.300000000000000000e+01,1.026171971549505110e-02
2.303999999999999915e+01,1.265430416033247983e-02
2.307999999999999829e+01,1.309521589926701882e-02
2.312000000000000099e+01,1.325741149156120513e-02
2.316000000000000014e+01,1.788093620481403384e-02
2.319999999999999929e+01,1.488331845180862478e-02
2.323999999999999844e+01,1.495289675267566509e-02
2.328000000000000114e+01,1.381433441414591998e-02
2.332000000000000028e+01,9.237020548508062187e-03
2.335999999999999943e+01,1.581286112286644022e-02
2.339999999999999858e+01,1.588285962575594970e-02
2.344000000000000128e+01,6.472868512898776079e-03
2.348000000000000043e+01,1.964790518071067235e-02
2.351999999999999957e+01,1.925349878563629644e-02
2.355999999999999872e+01,1.560621951952294653e-02
2.360000000000000142e+01,1.511907012724414759e-02
2.364000000000000057e+01,1.017079896098173515e-02
2.367999999999999972e+01,8.382655832529775294e-03
2.371999999999999886e+01,1.347232310670830845e-02
2.376000000000000156e+01,6.293730958919420415e-03
2.380000000000000071e+01,1.407890851789700068e-02
2.383999999999999986e+01,1.275585560929035772e-02
2.387999999999999901e+01,1.515057864085860018e-02
2.392000000000000171e+01,1.243357889786305716e-02
2.396000000000000085e+01,1.278375868452265307e-02
2.400000000000000000e+01,1.963997411944508331e-02
2.403999999999999915e+01,7.071383386863495761e-03
2.407999999999999829e+01,6.771235554910459177e-03
2.412000000000000099e+01,1.325594686339656020e-02
2.416000000000000014e+01,1.909014982864510462e-02
2.419999999999999929e+01,7.637210841969859464e-03
2.423999999999999844e+01,1.458688850054813690e-02
2.428000000000000114e+01,1.391539890654228985e-02
2.432000000000000028e+01,9.712192753055664401e-03
2.435999999999999943e+01,1.387385562713928933e-02
2.439999999999999858e+01,1.013552224839020001e-02
2.444000000000000128e+01,1.076554653214256523e-02
2.448000000000000043e+01,9.908576389923626909e-03
2.451999999999999957e+01,7.564610903721275155e-03
2.455999999999999872e+01,1.535140941437419457e-02
2.460000000000000142e+01,1.282171294829300215e-02
2.464000000000000057e+01,1.317329624152007404e-02
2.467999999999999972e+01,1.473320089876877480e-02
2.471999999999999886e+01,1.164607483156630471e-02
2.476000000000000156e+01,4.934280024679506792e-03
2.480000000000000071e+01,1.708979942123120890e-02
2.483999999999999986e+01,1.223698842387841920e-02
2.487999999999999901e+01,1.760787616135506620e-02
2.492000000000000171e+01,1.043165160830175978e-02
2.496000000000000085e+01,6.601409880814106471e-03
2.500000000000000000e+01,1.206544331341160604e-02
2.503999999999999915e+01,1.511304864716076814e-02
2.507999999999999829e+01,1.091123669636749789e-02
2.512000000000000099e+01,1.405191342813630860e-02
2.516000000000000014e+01,1.764267817107682866e-03
2.519999999999999929e+01,1.001502745803291555e-03
2.523999999999999844e+01,9.904775654794785444e-03
2.528000000000000114e+01,1.499748372580339204e-02
2.532000000000000028e+01,1.813846768223311562e-02
2.535999999999999943e+01,7.059371772725531180e-03
2.539999999999999858e+01,9.735761782581052806e-03
2.544000000000000128e+01,1.129690366245881226e-02
2.548000000000000043e+01,1.406634854611671023e-02
2.551999999999999957e+01,9.865192293311895663e-03
2.555999999999999872e+01,1.226297796836988037e-02
2.560000000000000142e+01,1.559023764695945460e-02
2.564000000000000057e+01,9.809225547421526054e-03
2.567999999999999972e+01,1.081303678585178105e-02
2.571999999999999886e+01,8.192157252307949097e-03
2.576000000000000156e+01,1.217021505656653430e-02
2.580000000000000071e+01,1.047885444726918795e-02
2.583999999999999986e+01,7.486352363731600332e-03
2.587999999999999901e+01,9.233943222544149440e-03
2.592000000000000171e+01,9.773332853163198969e-03
2.596000000000000085e+01,7.803331188585335872e-03
2.600000000000000000e+01,2.952168982515312404e-03
2.603999999999999915e+01,5.443474344729673856e-03
2.607999999999999829e+01,9.979547679180432451e-03
2.612000000000000099e+01,1.070503689739474643e-02
2.616000000000000014e+01,1.170939269247596101e-02
2.619999999999999929e+01,7.694915468376128768e-03
2.623999999999999844e+01,1.594883157225299511e-02
2.628000000000000114e+01,1.258502499389749923e-02
2.632000000000000028e+01,1.200951753627235372e-02
2.635999999999999943e+01,6.043405059134667606e-03
2.639999999999999858e+01,9.278593529588784194e-03
2.644000000000000128e+01,1.139851091976326614e-02
2.648000000000000043e+01,1.491259252755777233e-02
2.651999999999999957e+01,9.318382160959188740e-03
2.655999999999999872e+01,9.393669951213497182e-03
2.660000000000000142e+01,1.225725043611371884e-02
2.664000000000000057e+01,9.358451147133657957e-03
2.667999999999999972e+01,8.225579813996459003e-03
2.671999999999999886e+01,6.906851795203101593e-03
2.676000000000000156e+01,1.684582889909371026e-03
2.680000000000000071e+01,8.080099885927772424e-03
2.683999999999999986e+01,2.207286773048999524e-03
2.687999999999999901e+01,3.119269457776321659e-03
2.692000000000000171e+01,9.514857873106245117e-03
2.696000000000000085e+01,9.962175006317748605e-03
2.700000000000000000e+01,0.000000000000000000e+00
2.703999999999999915e+01,5.559172833895673245e-03
2.707999999999999829e+01,7.400681601335975038e-03
2.712000000000000099e+01,6.361004122946079496e-03
2.716000000000000014e+01,2.440139480713876714e-03
2.719999999999999929e+01,1.069470405209793813e-02
2.723999999999999844e+01,1.346570132563291132e-02
2.728000000000000114e+01,1.567906073305962850e-02
2.732000000000000028e+01,5.345252769231968043e-03
2.735999999999999943e+01,1.359987400985776182e-02
2.739999999999999858e+01,6.890831909364107492e-03
2.744000000000000128e+01,1.403017099168870838e-02
2.748000000000000043e+01,7.785860292073412681e-03
2.751999999999999957e+01,9.255751522579033427e-03
2.755999999999999872e+01,1.137624552781226449e-02
2.760000000000000142e+01,8.013163973087916031e-03
2.764000000000000057e+01,1.013367162474885716e-02
2.767999999999999972e+01,1.113887973775592316e-02
2.771999999999999886e+01,1.028525073753056018e-02
2.776000000000000156e+01,9.710451593689198649e-03
2.780000000000000071e+01,4.023840628113099609e-03
2.783999999999999986e+01,9.769107531393560195e-03
2.787999999999999901e+01,2.223657554684196121e-03
2.792000000000000171e+01,8.340693580506635535e-03
2.796000000000000085e+01,1.278477114916578249e-02
2.800000000000000000e+01,3.380476591374046835e-03
2.803999999999999915e+01,9.590449005564820328e-03
2.807999999999999829e+01,1.031683484365306970e-02
2.812000000000000099e+01,6.953764418688868597e-03
2.816000000000000014e+01,8.516618773528213809e-03
2.819999999999999929e+01,6.082957111361725344e-03
2.823999999999999844e+01,1.405880123515223894e-02
2.828000000000000114e+01,1.078864510438991113e-02
2.832000000000000028e+01,6.403174746780533437e-03
2.835999999999999943e+01,1.484370155493288171e-02
2.839999999999999858e+01,1.715003986839047298e-02
2.844000000000000128e+01,2.540907248927823468e-03
2.848000000000000043e+01,1.163199264347492337e-02
2.851999999999999957e+01,4.737026089785726680e-03
2.855999999999999872e+01,1.652340328225860785e-02
2.860000000000000142e+01,1.622729413744481916e-02
2.864000000000000057e+01,6.729902281527319965e-03
2.867999999999999972e+01,1.414795185839033166e-02
2.871999999999999886e+01,1.385179020125843277e-02
2.876000000000000156e+01,1.820271330753663042e-02
2.880000000000000071e+01,1.205116088167141643e-02
2.883999999999999986e+01,1.305612759910397026e-02
2.887999999999999901e+01,1.080809934989189307e-02
2.892000000000000171e+01,4.749422723598301609e-03
2.896000000000000085e+01,1.532735485778831570e-02
2.900000000000000000e+01,1.465927021320825863e-02
2.903999999999999915e+01,1.956768472666181244e-02
2.907999999999999829e+01,2.029367886270239812e-02
2.912000000000000099e+01,1.767373044195506490e-02
2.916000000000000014e+01,1.180078062847858197e-02
2.919999999999999929e+01,1.243374712169551498e-02
2.923999999999999844e+01,1.399610407934549425e-02
2.928000000000000114e+01,1.444312477785861769e-02
2.932000000000000028e+01,1.117243000124030008e-02
2.935999999999999943e+01,2.165713026078995573e-02
2.939999999999999858e+01,1.736400544275813404e-02
2.944000000000000128e+01,1.781089186400200419e-02
2.948000000000000043e+01,8.684707967605318629e-03
2.951999999999999957e+01,1.842572994922266408e-02
2.955999999999999872e+01,1.664189605368840766e-02
2.960000000000000142e+01,1.402154480113326426e-02
2.964000000000000057e+01,1.958005723441314655e-02
2.967999999999999972e+01,1.361371103650528373e-02
2.971999999999999886e+01,1.833566290432012136e-02
2.976000000000000156e+01,2.147755708649926390e-02
2.980000000000000071e+01,2.592059720922563690e-02
2.983999999999999986e+01,1.939642752114072513e-02
2.987999999999999901e+01,3.239005002345679562e-02
2.992000000000000171e+01,2.818934138019351526e-02
2.996000000000000085e+01,2.621919582613720101e-02
3.000000000000000000e+01,2.768785951019625893e-02
3.003999999999999915e+01,3.324592608885422462e-02
3.007999999999999829e+01,2.542028321478760969e-02
3.012000000000000099e+01,3.488181705335014621e-02
3.016000000000000014e+01,3.951031115367809737e-02
3.019999999999999929e+01,4.952939362554794472e-02
3.023999999999999844e+01,5.062598291204353090e-02
3.028000000000000114e+01,6.324733615073011017e-02
3.032000000000000028e+01,7.726276547787776228e-02
3.035999999999999943e+01,9.657583742244821301e-02
3.039999999999999858e+01,1.283430913858814859e-01
3.044000000000000128e+01,1.824163871496707889e-01
3.048000000000000043e+01,2.982031665938258413e-01
3.051999999999999957e+01,4.876000153053975938e-01
3.055999999999999872e+01,6.027360797917221680e-01
3.060000000000000142e+01,5.742765659099663411e-01
3.064000000000000057e+01,4.488783979416626213e-01
3.067999999999999972e+01,3.136283058691437531e-01
3.071999999999999886e+01,2.015207279095338477e-01
3.076000000000000156e+01,1.429477239819741674e-01
3.080000000000000071e+01,1.099337264651401441e-01
3.083999999999999986e+01,8.770094339176159881e-02
3.087999999999999901e+01,7.262463264306504018e-02
3.092000000000000171e+01,6.005768919749815415e-02
3.096000000000000085e+01,5.808607327720889668e-02
3.100000000000000000e+01,5.081668793007747958e-02
3.103999999999999915e+01,5.786031155503179590e-02
3.107999999999999829e+01,5.086960820246402837e-02
3.112000000000000099e+01,4.768945671195683883e-02
3.116000000000000014e+01,4.869162449378135887e-02
3.119999999999999929e+01,5.675731517412048455e-02
3.123999999999999844e+01,4.418978737786206229e-02
3.128000000000000114e+01,5.606594999133475421e-02
3.132000000000000028e+01,5.232776472400924722e-02
3.135999999999999943e+01,5.862724530941584855e-02
3.139999999999999858e+01,6.409016722725821569e-02
3.144000000000000128e+01,5.830701636759404866e-02
3.148000000000000043e+01,6.376977567354623344e-02
3.151999999999999957e+01,6.904656813239358482e-02
3.155999999999999872e+01,6.419259004454787310e-02
3.160000000000000142e+01,6.695977816752084200e-02
3.164000000000000057e+01,8.413290357446931433e-02
3.167999999999999972e+01,9.033877694205116882e-02
3.171999999999999886e+01,9.589396846211388492e-02
3.176000000000000156e+01,9.698785185174225998e-02
3.180000000000000071e+01,9.966166152752660434e-02
3.183999999999999986e+01,9.917535038584375517e-02
3.187999999999999901e+01,8.177348936220246722e-02
3.192000000000000171e+01,8.295995288963839420e-02
3.196000000000000085e+01,8.591222319532358653e-02
3.200000000000000000e+01,6.878891007460669060e-02
3.203999999999999915e+01,7.053274499714319579e-02
3.207999999999999829e+01,6.642113321408676940e-02
3.211999999999999744e+01,6.426120870137291829e-02
3.215999999999999659e+01,6.117176599679464283e-02
3.220000000000000284e+01,5.547984670506539429e-02
3.224000000000000199e+01,4.802192864681037454e-02
3.228000000000000114e+01,4.874281368559362643e-02
3.232000000000000028e+01,4.528120398798596985e-02
3.235999999999999943e+01,5.473844173700358889e-02
3.239999999999999858e+01,4.793071224440140915e-02
3.243999999999999773e+01,4.762882469951474490e-02
3.247999999999999687e+01,5.048686322978256091e-02
3.252000000000000313e+01,4.739650287425375974e-02
3.256000000000000227e+01,5.071903963033353585e-02
3.260000000000000142e+01,4.939436481358377984e-02
3.264000000000000057e+01,4.593191372190429111e-02
3.267999999999999972e+01,6.914373087923277039e-02
3.271999999999999886e+01,8.064473547231433559e-02
3.275999999999999801e+01,8.684793024602249778e-02
3.279999999999999716e+01,1.247442629465258801e-01
3.284000000000000341e+01,3.461081526774381079e-01
3.288000000000000256e+01,8.988104510953991433e-01
3.292000000000000171e+01,1.000000000000000000e+00
3.296000000000000085e+01,7.209633754215372115e-01
3.300000000000000000e+01,7.001197381863627500e-01
3.303999999999999915e+01,4.198746323241475120e-01
3.307999999999999829e+01,1.552436777643937393e-01
3.311999999999999744e+01,8.281682952361997530e-02
3.315999999999999659e+01,6.253036900311000068e-02
3.320000000000000284e+01,5.646392579996309391e-02
3.324000000000000199e+01,4.807380838756373370e-02
3.328000000000000114e+01,4.776952903983006093e-02
3.332000000000000028e+01,4.476980531853654022e-02
3.335999999999999943e+01,4.511587164027348190e-02
3.339999999999999858e+01,4.323120216278047295e-02
3.343999999999999773e+01,4.032404303496595066e-02
3.347999999999999687e+01,3.565085668225136811e-02
3.352000000000000313e+01,4.278118616896224580e-02
3.356000000000000227e+01,5.009727031823584670e-02
3.360000000000000142e+01,4.514486921457212115e-02
3.364000000000000057e+01,4.242294674300468860e-02
3.367999999999999972e+01,4.053737075445938698e-02
3.371999999999999886e+01,4.301993944961475524e-02
3.375999999999999801e+01,4.280705367307751502e-02
3.379999999999999716e+01,3.952694417855235481e-02
3.384000000000000341e+01,4.349618115788662920e-02
3.388000000000000256e+01,3.817107308446485159e-02
3.392000000000000171e+01,4.650831331176390887e-02
3.396000000000000085e+01,4.936183201518582614e-02
3.400000000000000000e+01,5.165755862647125607e-02
3.403999999999999915e+01,5.200136099654596722e-02
3.407999999999999829e+01,5.569093688543383380e-02
3.411999999999999744e+01,5.835800751779494921e-02
3.415999999999999659e+01,5.888726699076748256e-02
3.420000000000000284e+01,6.731645924998648500e-02
3.424000000000000199e+01,5.948064203903036945e-02
3.428000000000000114e+01,6.465657029219083751e-02
3.432000000000000028e+01,6.695114705734800387e-02
3.435999999999999943e+01,7.221972258695065483e-02
3.439999999999999858e+01,7.776697558293328705e-02
3.443999999999999773e+01,7.968933768030996012e-02
3.447999999999999687e+01,6.516080063529751387e-02
3.452000000000000313e+01,7.470411131275508931e-02
3.456000000000000227e+01,6.788946309387011713e-02
3.460000000000000142e+01,7.371478466672196084e-02
3.464000000000000057e+01,6.067270929129536805e-02
3.467999999999999972e+01,6.240826975920996111e-02
3.471999999999999886e+01,5.893891750723042472e-02
3.475999999999999801e+01,5.361056657189371133e-02
3.479999999999999716e+01,4.540085313240886655e-02
3.484000000000000341e+01,5.828883344503169028e-02
3.488000000000000256e+01,4.849878593640066099e-02
3.492000000000000171e+01,4.772395967464836825e-02
3.496000000000000085e+01,5.048077089958527552e-02
3.500000000000000000e+01,4.431497969571131929e-02
3.503999999999999915e+01,4.604910199983027613e-02
3.507999999999999829e+01,5.112897487246054889e-02
3.511999999999999744e+01,4.644976382360653522e-02
3.515999999999999659e+01,6.138116586963068833e-02
3.520000000000000284e+01,5.781692644349065158e-02
3.524000000000000199e+01,7.033149915751406300e-02
3.528000000000000114e+01,6.546573354819876234e-02
3.532000000000000028e+01,9.340835301576778937e-02
3.535999999999999943e+01,1.167966396497452097e-01
3.539999999999999858e+01,1.618402596760861178e-01
3.543999999999999773e+01,1.910835531022436751e-01
3.547999999999999687e+01,1.884475388119565276e-01
3.552000000000000313e+01,1.639699607508596224e-01
3.556000000000000227e+01,1.326144932143405730e-01
3.560000000000000142e+01,1.049765326404591415e-01
3.564000000000000057e+01,9.416091168318684035e-02
3.567999999999999972e+01,8.492512796489949667e-02
3.571999999999999886e+01,7.420209185924847572e-02
3.575999999999999801e+01,7.295896813257674030e-02
3.579999999999999716e+01,7.134389516736679149e-02
3.584000000000000341e+01,7.521222321606733929e-02
3.588000000000000256e+01,8.298393596546262130e-02
3.592000000000000171e+01,8.582953470081404468e-02
3.596000000000000085e+01,8.356313433996793993e-02
3.600000000000000000e+01,7.906593850910711985e-02
3.603999999999999915e+01,9.520169847963776133e-02
3.607999999999999829e+01,9.813949545977457278e-02
3.611999999999999744e+01,1.108360228029943856e-01
3.615999999999999659e+01,1.157252260799029320e-01
3.620000000000000284e+01,1.427344547992875634e-01
3.624000000000000199e+01,2.128686185911382311e-01
3.628000000000000114e+01,2.682247994073310160e-01
3.632000000000000028e+01,2.332410836062887016e-01
3.635999999999999943e+01,2.077372664140446357e-01
3.639999999999999858e+01,1.610424598292208020e-01
3.643999999999999773e+01,1.186227934212059076e-01
3.647999999999999687e+01,9.088777946391814189e-02
3.652000000000000313e+01,7.449150208479637936e-02
3.656000000000000227e+01,7.147868617138633529e-02
3.660000000000000142e+01,6.707153975641773347e-02
3.664000000000000057e+01,5.336998494586011471e-02
3.667999999999999972e+01,5.779193503258903131e-02
3.671999999999999886e+01,4.827237078416449223e-02
3.675999999999999801e+01,4.655973848714291957e-02
3.679999999999999716e+01,4.243040819572360678e-02
3.684000000000000341e+01,3.569849482775287741e-02
3.688000000000000256e+01,3.723822106750297040e-02
3.692000000000000171e+01,3.738360946159798026e-02
3.696000000000000085e+01,3.659936950237984571e-02
3.700000000000000000e+01,2.745013370617206336e-02
3.703999999999999915e+01,2.815254924084049926e-02
3.707999999999999829e+01,2.597354994467265810e-02
3.711999999999999744e+01,2.769790689082530372e-02
3.715999999999999659e+01,3.165266168401186658e-02
3.720000000000000284e+01,3.068127308676820222e-02
3.724000000000000199e+01,2.840848138184371915e-02
3.728000000000000114e+01,2.873785309820010847e-02
3.732000000000000028e+01,1.875043790998339246e-02
3.735999999999999943e+01,2.828064324391004261e-02
3.739999999999999858e+01,3.000349605315117546e-02
3.743999999999999773e+01,2.903080993358903017e-02
3.747999999999999687e+01,2.006488528917555608e-02
3.752000000000000313e+01,2.271650051883871910e-02
3.756000000000000227e+01,2.443847362500767631e-02
3.760000000000000142e+01,2.866966072629014220e-02
3.764000000000000057e+01,3.903480210543550794e-02
3.767999999999999972e+01,4.800558819669642485e-02
3.771999999999999886e+01,3.717948583204128132e-02
3.775999999999999801e+01,3.313792956570842108e-02
3.779999999999999716e+01,2.584317361603878649e-02
3.784000000000000341e+01,2.328823612310957497e-02
3.788000000000000256e+01,2.380015869163421005e-02
3.792000000000000171e+01,2.143064715106907450e-02
3.796000000000000085e+01,2.305741465664172540e-02
3.800000000000000000e+01,1.659798962113530341e-02
3.803999999999999915e+01,1.478543637023814299e-02
3.807999999999999829e+01,1.427383903138916728e-02
3.811999999999999744e+01,1.097374507546087369e-02
3.815999999999999659e+01,1.148404141146835283e-02
3.820000000000000284e+01,8.276418473664321970e-03
3.824000000000000199e+01,1.343334601324137900e-02
3.828000000000000114e+01,1.626648367404486331e-02
3.832000000000000028e+01,9.247521890327389804e-03
3.835999999999999943e+01,1.366019653829142130e-02
3.839999999999999858e+01,1.231022151682583179e-02
3.843999999999999773e+01,7.799974205901113317e-03
3.847999999999999687e+01,1.425665016226761520e-02
3.852000000000000313e+01,1.272006372546895248e-02
3.856000000000000227e+01,6.907897260325245384e-03
3.860000000000000142e+01,1.503679793470238078e-02
3.864000000000000057e+01,1.359241806667439538e-02
3.867999999999999972e+01,1.382074866879673229e-02
3.871999999999999886e+01,1.683709380790699220e-02
3.875999999999999801e+01,1.650727514931992282e-02
3.879999999999999716e+01,1.245952344674021786e-02
3.884000000000000341e+01,2.058693381626360008e-02
3.888000000000000256e+01,2.146461018707958995e-02
3.892000000000000171e+01,2.615265940760197125e-02
3.896000000000000085e+01,3.985583715578384228e-02
3.900000000000000000e+01,5.485994970173620200e-02
3.903999999999999915e+01,1.108512651716810488e-01
3.907999999999999829e+01,2.122910025870049788e-01
3.911999999999999744e+01,2.146542234095930590e-01
3.915999999999999659e+01,1.487047558868698771e-01
3.920000000000000284e+01,1.294119546224100636e-01
3.924000000000000199e+01,9.441168162869084668e-02
3.928000000000000114e+01,3.738387440688544644e-02
3.932000000000000028e+01,2.589742570445748709e-02
3.935999999999999943e+01,2.296138593921423846e-02
3.939999999999999858e+01,1.426267355423951368e-02
3.943999999999999773e+01,7.794306689610588229e-03
3.947999999999999687e+01,1.127047723919225898e-02
3.952000000000000313e+01,1.558286024203345103e-02
3.956000000000000227e+01,1.180901490132476445e-02
3.960000000000000142e+01,1.073022181926759806e-02
3.964000000000000057e+01,9.000565123300876755e-03
3.967999999999999972e+01,1.089537967066957908e-02
3.971999999999999886e+01,1.158167627567971252e-02
3.975999999999999801e+01,1.765834184734645096e-02
3.979999999999999716e+01,1.546288940324930944e-02
3.984000000000000341e+01,1.679896244836846103e-02
3.988000000000000256e+01,1.144293103690323908e-02
3.992000000000000171e+01,9.711365360701008573e-03
3.996000000000000085e+01,6.771276234067822967e-03
4.000000000000000000e+01,8.385071827381507942e-03
4.003999999999999915e+01,4.515006358983014549e-03
4.007999999999999829e+01,6.500012923498578281e-03
4.011999999999999744e+01,7.741202775888888707e-03
4.015999999999999659e+01,4.427949633238853315e-03
4.020000000000000284e+01,5.575634538404572113e-03
4.024000000000000199e+01,3.563005843567863297e-03
4.028000000000000114e+01,8.706633740576109198e-03
4.032000000000000028e+01,7.901683739433638942e-03
4.035999999999999943e+01,1.174355227820022066e-02
4.039999999999999858e+01,8.986246508296318047e-03
4.043999999999999773e+01,5.856885010453799327e-03
4.047999999999999687e+01,3.191945605297857261e-03
4.052000000000000313e+01,3.779689836940618077e-03
4.056000000000000227e+01,7.434232623228361099e-03
4.060000000000000142e+01,5.140191085280867121e-03
4.064000000000000057e+01,7.307077497016335570e-03
4.067999999999999972e+01,8.637192262386718389e-03
4.071999999999999886e+01,1.098937610479608189e-02
4.075999999999999801e+01,7.578856115063569050e-03
4.079999999999999716e+01,3.889214217354578559e-03
4.084000000000000341e+01,4.846379843409779134e-03
4.088000000000000256e+01,7.569147531022114329e-03
4.092000000000000171e+01,3.320960647523792369e-03
4.096000000000000085e+01,2.139563138549727822e-03
4.100000000000000000e+01,7.463811122707677236e-03
4.103999999999999915e+01,8.326537997630509627e-03
4.107999999999999829e+01,1.002544152334205671e-02
4.111999999999999744e+01,1.107344746869733630e-02
4.115999999999999659e+01,6.730508730073217656e-03
4.120000000000000284e+01,4.803759283405274402e-03
4.124000000000000199e+01,5.200256128610664975e-03
4.128000000000000114e+01,5.131735885553146553e-03
4.132000000000000028e+01,9.617070068044122552e-03
4.135999999999999943e+01,7.596149991645647498e-03
4.139999999999999858e+01,6.504341304010135931e-03
4.143999999999999773e+01,5.691048512629847192e-03
4.147999999999999687e+01,8.502185654041701651e-03
4.152000000000000313e+01,1.029064770669340170e-02
4.156000000000000227e+01,6.316387566961695170e-03
4.160000000000000142e+01,5.873612523915171940e-03
4.164000000000000057e+01,1.221529453201989322e-02
4.167999999999999972e+01,1.065658370607650007e-02
4.171999999999999886e+01,1.625409642354347720e-02
4.175999999999999801e+01,1.729712942548717117e-02
4.179999999999999716e+01,2.800582035072887027e-02
4.184000000000000341e+01,3.034940435952009768e-02
4.188000000000000256e+01,1.837958728131728128e-02
4.192000000000000171e+01,2.100135572212891502e-02
4.196000000000000085e+01,2.185690231948107798e-02
4.200000000000000000e+01,1.462616457454698517e-02
4.203999999999999915e+01,1.334339596200615277e-02
4.207999999999999829e+01,1.010851858782805049e-02
4.211999999999999744e+01,1.077688270446138484e-02
4.215999999999999659e+01,9.957846633787310192e-03
4.220000000000000284e+01,8.394946114360247319e-03
4.224000000000000199e+01,1.036351600342515049e-02
4.228000000000000114e+01,1.028703045872164830e-02
4.232000000000000028e+01,1.123257727057420940e-02
4.235999999999999943e+01,6.229499365660321787e-03
4.239999999999999858e+01,8.103803151739157398e-03
4.243999999999999773e+01,9.234236980992552649e-03
4.247999999999999687e+01,4.323101257372500249e-03
4.252000000000000313e+01,4.430502829292788311e-03
4.256000000000000227e+01,8.255251629750128689e-03
4.260000000000000142e+01,7.525501436430667192e-03
4.264000000000000057e+01,5.958934614154608178e-03
4.267999999999999972e+01,3.183781916626618469e-03
4.271999999999999886e+01,6.170698581145094355e-03
4.275999999999999801e+01,7.670201288175075571e-03
4.279999999999999716e+01,8.983478268695815200e-03
4.284000000000000341e+01,3.604582859738822507e-03
4.288000000000000256e+01,7.333668095328987543e-03
4.292000000000000171e+01,7.158841567541434844e-03
4.296000000000000085e+01,8.749569364683259728e-03
4.300000000000000000e+01,6.808151890706451437e-03
4.303999999999999915e+01,1.323117473266204221e-02
4.307999999999999829e+01,1.017375721494331517e-02
4.311999999999999744e+01,1.464429943849562994e-02
4.315999999999999659e+01,3.826056074415758873e-02
4.320000000000000284e+01,5.490581515202074686e-02
4.324000000000000199e+01,4.097277289808837208e-02
4.328000000000000114e+01,3.624064419065325254e-02
4.332000000000000028e+01,2.704694204729487725e-02
4.335999999999999943e+01,1.738817507904577217e-02
4.339999999999999858e+01,1.246909896385903563e-02
4.343999999999999773e+01,6.155535367049397126e-03
4.347999999999999687e+01,3.466355802428301280e-03
4.352000000000000313e+01,8.583953045169928631e-03
4.356000000000000227e+01,4.128156830021522013e-03
4.360000000000000142e+01,1.054622429454830229e-02
4.364000000000000057e+01,9.435622270718637891e-03
4.367999999999999972e+01,1.176351552487552195e-02
4.371999999999999886e+01,1.223220446097098707e-02
4.375999999999999801e+01,1.623232892109967990e-02
4.379999999999999716e+01,1.038022816905347957e-02
4.384000000000000341e+01,1.029017107471570831e-02
4.388000000000000256e+01,9.549153057188689009e-03
4.392000000000000171e+01,1.224662480957580853e-02
4.396000000000000085e+01,5.091867677739740985e-03
4.400000000000000000e+01,5.186223844696721645e-03
4.403999999999999915e+01,1.225086614622219322e-02
4.407999999999999829e+01,7.511493086001383261e-03
4.411999999999999744e+01,9.277693913970930240e-03
4.415999999999999659e+01,1.401766859342814392e-02
4.420000000000000284e+01,1.020659802958106405e-02
4.424000000000000199e+01,7.138689511498113975e-03
4.428000000000000114e+01,5.929247106016980254e-03
4.432000000000000028e+01,6.392385730983919656e-03
4.435999999999999943e+01,1.178107734086509747e-02
4.439999999999999858e+01,1.252228656435543791e-02
4.443999999999999773e+01,8.708954565513672003e-03
4.447999999999999687e+01,5.452894940222025900e-03
4.452000000000000313e+01,4.891774658096996811e-03
4.456000000000000227e+01,6.839708636984861458e-03
4.460000000000000142e+01,5.998997280837644643e-03
4.464000000000000057e+01,4.135539230988566524e-03
4.467999999999999972e+01,6.082321837107479597e-03
4.471999999999999886e+01,1.063109711426179008e-02
4.475999999999999801e+01,1.164768672776631854e-02
4.479999999999999716e+01,1.201329430380390639e-02
4.484000000000000341e+01,6.894930656680592351e-03
4.488000000000000256e+01,8.282123455518295568e-03
4.492000000000000171e+01,7.903026478003153180e-03
4.496000000000000085e+01,5.571754641981544257e-03
4.500000000000000000e+01,1.095428356480515099e-02
4.503999999999999915e+01,1.010930001784107052e-02
4.507999999999999829e+01,8.241559679042366471e-03
4.511999999999999744e+01,9.998165733937178223e-03
4.515999999999999659e+01,1.036024483269000658e-02
4.520000000000000284e+01,1.239488476562530285e-02
4.524000000000000199e+01,8.109065556641774711e-03
4.528000000000000114e+01,1.413941897840152555e-02
4.532000000000000028e+01,7.901018169686692752e-03
4.535999999999999943e+01,1.235055648397420484e-02
4.539999999999999858e+01,1.215258946156907993e-02
4.543999999999999773e+01,1.520719316047772392e-02
4.547999999999999687e+01,1.798256754399744570e-02
4.552000000000000313e+01,2.401051081280675473e-02
4.556000000000000227e+01,2.613448172944159154e-02
4.560000000000000142e+01,3.048865679256302849e-02
4.564000000000000057e+01,3.967541338214155416e-02
4.567999999999999972e+01,4.086874325439390776e-02
4.571999999999999886e+01,3.611337129686577330e-02
4.575999999999999801e+01,3.470350479862562704e-02
4.579999999999999716e+01,2.901789211185529585e-02
4.584000000000000341e+01,2.658484096627800747e-02
4.588000000000000256e+01,2.099134678099614376e-02
4.592000000000000171e+01,1.874335438295393966e-02
4.596000000000000085e+01,1.231255420640406210e-02
4.600000000000000000e+01,1.062138521213185430e-02
4.603999999999999915e+01,1.255454149727554085e-02
4.607999999999999829e+01,1.374374428649518913e-02
4.611999999999999744e+01,1.000659896859246341e-02
4.615999999999999659e+01,1.323969113061840286e-02
4.620000000000000284e+01,1.312644874470152850e-02
4.624000000000000199e+01,1.115394420596266603e-02
4.628000000000000114e+01,8.530423663310178137e-03
4.632000000000000028e+01,5.070002034590439556e-03
4.635999999999999943e+01,1.248338074271281538e-02
4.639999999999999858e+01,1.227508453757498140e-02
4.643999999999999773e+01,1.020752158955475289e-02
4.647999999999999687e+01,1.483136253115423762e-02
4.652000000000000313e+01,1.192646788752804027e-02
4.656000000000000227e+01,1.143763952224033202e-02
4.660000000000000142e+01,1.029778780894245391e-02
4.664000000000000057e+01,1.566345214907434100e-02
4.667999999999999972e+01,1.517333470920679758e-02
4.671999999999999886e+01,1.514749615214252762e-02
4.675999999999999801e+01,8.894105650771427438e-03
4.679999999999999716e+01,1.713924658887111541e-02
4.684000000000000341e+01,1.804152876179017720e-02
4.688000000000000256e+01,1.513275037020715176e-02
4.692000000000000171e+01,1.259530418929624349e-02
4.696000000000000085e+01,1.368216217352354394e-02
4.700000000000000000e+01,1.569800302482364865e-02
4.703999999999999915e+01,1.548279503477707070e-02
4.707999999999999829e+01,1.359418977779657846e-02
4.711999999999999744e+01,1.756049498360535976e-02
4.715999999999999659e+01,1.725102278847352039e-02
4.720000000000000284e+01,1.275871435645980177e-02
4.724000000000000199e+01,1.848959149052700410e-02
4.728000000000000114e+01,1.845761515648447829e-02
4.732000000000000028e+01,2.056286141233863024e-02
4.735999999999999943e+01,1.857820984133342831e-02
4.739999999999999858e+01,2.021785233733364509e-02
4.743999999999999773e+01,1.739582684216712388e-02
4.747999999999999687e+01,2.172989269667249465e-02
4.752000000000000313e+01,1.890696834393363820e-02
4.756000000000000227e+01,1.747772441645257385e-02
4.760000000000000142e+01,1.809275457071287882e-02
4.764000000000000057e+01,2.093794205284410168e-02
4.767999999999999972e+01,1.913557187159452971e-02
4.771999999999999886e+01,1.668215263799674788e-02
4.775999999999999801e+01,2.045539750727830286e-02
4.779999999999999716e+01,1.316807829625727712e-02
4.784000000000000341e+01,1.424508923971996854e-02
4.788000000000000256e+01,1.615812077191902327e-02
4.792000000000000171e+01,1.723421449756791859e-02
4.796000000000000085e+01,1.821690615522099030e-02
4.800000000000000000e+01,1.492380113367993213e-02
4.803999999999999915e+01,1.339613384953502150e-02
4.807999999999999829e+01,1.958219663730574600e-02
4.811999999999999744e+01,2.195717040220015667e-02
4.815999999999999659e+01,9.089178131497049201e-03
4.820000000000000284e+01,1.555267343752409805e-02
4.824000000000000199e+01,1.662506157143489594e-02
4.828000000000000114e+01,8.031005839960319095e-03
4.832000000000000028e+01,1.347073625314373392e-02
4.835999999999999943e+01,1.008049970355487726e-02
4.839999999999999858e+01,1.217337591208575258e-02
4.843999999999999773e+01,1.649639108824609013e-02
4.847999999999999687e+01,1.617183024078418241e-02
4.852000000000000313e+01,1.287264992896248669e-02
4.856000000000000227e+01,1.198948999487562707e-02
4.860000000000000142e+01,1.510236491571525543e-02
4.864000000000000057e+01,1.245235515603468693e-02
4.867999999999999972e+01,1.547133589253095118e-02
4.871999999999999886e+01,1.430744550768658051e-02
4.875999999999999801e+01,1.472309217187945177e-02
4.879999999999999716e+01,1.411589666911490688e-02
4.884000000000000341e+01,1.536706262557589568e-02
4.888000000000000256e+01,1.382948501971003295e-02
4.892000000000000171e+01,1.415026703704553440e-02
4.896000000000000085e+01,1.270466655880890181e-02
4.900000000000000000e+01,1.804335421750220478e-02
4.903999999999999915e+01,1.520265388171363440e-02
4.907999999999999829e+01,1.877447151854762242e-02
4.911999999999999744e+01,1.649045137664574556e-02
4.915999999999999659e+01,1.736597449886406394e-02
4.920000000000000284e+01,2.093632955683648322e-02
4.924000000000000199e+01,2.357677443178955029e-02
4.928000000000000114e+01,2.212727741530373660e-02
4.932000000000000028e+01,2.123494169290729774e-02
4.935999999999999943e+01,2.155036092108380055e-02
4.939999999999999858e+01,1.452286263130701804e-02
4.943999999999999773e+01,1.372198988790253663e-02
4.947999999999999687e+01,1.524417432588442110e-02
4.952000000000000313e+01,1.091051180500971635e-02
4.956000000000000227e+01,1.819411283657784359e-02
4.960000000000000142e+01,1.218649850760072928e-02
4.964000000000000057e+01,1.045372141144865208e-02
4.967999999999999972e+01,1.355343312253432658e-02
4.971999999999999886e+01,1.256319284404838234e-02
4.975999999999999801e+01,7.761825904191123858e-03
4.979999999999999716e+01,1.569302199355388297e-02
4.984000000000000341e+01,2.074251040622927117e-02
4.988000000000000256e+01,1.538198157646991117e-02
4.992000000000000171e+01,1.290215232238898189e-02
4.996000000000000085e+01,1.330302172597440380e-02
5.000000000000000000e+01,1.556222596643521555e-02
5.003999999999999915e+01,1.549737043257310744e-02
5.007999999999999829e+01,8.461350102835735881e-03
5.011999999999999744e+01,6.722518892557361597e-03
5.015999999999999659e+01,1.780918453146116201e-02
5.020000000000000284e+01,1.746346268105479840e-02
5.024000000000000199e+01,1.367837148141549247e-02
5.028000000000000114e+01,1.342456616984159107e-02
5.032000000000000028e+01,1.186905756063911556e-02
5.035999999999999943e+01,1.895664751737222500e-02
5.039999999999999858e+01,1.516949788715962061e-02
5.043999999999999773e+01,1.519245671917655340e-02
5.047999999999999687e+01,1.540078189464951994e-02
5.052000000000000313e+01,1.821096662940740324e-02
5.056000000000000227e+01,1.721000634255253833e-02
5.060000000000000142e+01,1.955444043552487590e-02
5.064000000000000057e+01,2.069010596884287081e-02
5.067999999999999972e+01,2.386997489697263025e-02
5.071999999999999886e+01,2.212339014659171765e-02
5.075999999999999801e+01,2.985637352066288983e-02
5.079999999999999716e+01,3.833236838651834372e-02
5.084000000000000341e+01,4.327603805088895556e-02
5.088000000000000256e+01,5.890752015259590607e-02
5.092000000000000171e+01,7.890675219281235997e-02
5.096000000000000085e+01,1.208397867649085439e-01
5.100000000000000000e+01,1.309860995139466022e-01
5.103999999999999915e+01,1.164092877592958208e-01
5.107999999999999829e+01,9.802131904887530223e-02
5.111999999999999744e+01,9.561885594575462999e-02
5.115999999999999659e+01,8.336399871623774438e-02
5.120000000000000284e+01,6.720503969484413476e-02
5.124000000000000199e+01,4.779257253805738875e-02
5.128000000000000114e+01,3.377020996045033280e-02
5.132000000000000028e+01,3.656982713872001384e-02
5.135999999999999943e+01,2.691466730255056422e-02
5.139999999999999858e+01,2.385785635844506550e-02
5.143999999999999773e+01,2.135815805378908291e-02
5.147999999999999687e+01,2.080970270163264371e-02
5.152000000000000313e+01,2.137601064532639733e-02
5.156000000000000227e+01,1.840997686331800887e-02
5.160000000000000142e+01,2.027638782396790421e-02
5.164000000000000057e+01,1.470688777591768089e-02
5.167999999999999972e+01,1.592161435798849708e-02
5.171999999999999886e+01,1.750756298928273988e-02
5.175999999999999801e+01,1.295878700683189381e-02
5.179999999999999716e+01,1.538011906460750623e-02
5.184000000000000341e+01,1.315379798574680889e-02
5.188000000000000256e+01,1.278576859719408182e-02
5.192000000000000171e+01,1.297484083194602213e-02
5.196000000000000085e+01,1.706692872653952503e-02
5.200000000000000000e+01,1.613959148416520967e-02
5.203999999999999915e+01,1.707054226005058281e-02
5.207999999999999829e+01,1.372560271951043728e-02
5.211999999999999744e+01,1.623545889025048566e-02
5.215999999999999659e+01,1.288940751333716647e-02
5.220000000000000284e+01,1.149458256470606114e-02
5.224000000000000199e+01,1.586160849124815600e-02
5.228000000000000114e+01,1.065504083326842058e-02
5.232000000000000028e+01,1.437035300484511453e-02
5.235999999999999943e+01,1.548272591118626286e-02
5.239999999999999858e+01,1.138978033629724912e-02
5.243999999999999773e+01,1.138572356924654784e-02
5.247999999999999687e+01,1.100933475262340713e-02
5.252000000000000313e+01,1.500065915402689146e-02
5.256000000000000227e+01,1.211370392487738125e-02
5.260000000000000142e+01,1.489564922672160195e-02
5.264000000000000057e+01,2.120882625391895884e-02
5.267999999999999972e+01,2.045783673238550995e-02
5.271999999999999886e+01,1.766155217593268212e-02
5.275999999999999801e+01,2.211417987362902099e-02
5.279999999999999716e+01,2.359208987967379573e-02
5.284000000000000341e+01,1.131399975584145533e-02
5.288000000000000256e+01,1.641550607783984900e-02
5.292000000000000171e+01,1.250105661954811591e-02
5.296000000000000085e+01,1.518492025084949154e-02
5.300000000000000000e+01,1.201285705624396613e-02
5.303999999999999915e+01,1.255790057101245638e-02
5.307999999999999829e+01,1.375296116880629291e-02
5.311999999999999744e+01,1.541215376747179407e-02
5.315999999999999659e+01,1.140130003232372319e-02
5.320000000000000284e+01,1.333815930420070156e-02
5.324000000000000199e+01,1.230029078629331710e-02
5.328000000000000114e+01,1.637365470074960208e-02
5.332000000000000028e+01,1.403343195277757804e-02
5.335999999999999943e+01,1.159968320517993159e-02
5.339999999999999858e+01,1.585717953111341963e-02
5.343999999999999773e+01,1.425873893300722527e-02
5.347999999999999687e+01,1.293853790952242781e-02
5.352000000000000313e+01,1.533543257926676603e-02
5.356000000000000227e+01,2.089176953180334542e-02
5.360000000000000142e+01,1.436504638950794784e-02
5.364000000000000057e+01,1.527309946923769042e-02
5.367999999999999972e+01,9.674615542359659912e-03
5.371999999999999886e+01,9.930890606278953633e-03
5.375999999999999801e+01,1.381131377328414372e-02
5.379999999999999716e+01,1.638995377561046005e-02
5.384000000000000341e+01,1.515737347933407246e-02
5.388000000000000256e+01,1.262300818235466068e-02
5.392000000000000171e+01,1.464220813712090175e-02
5.396000000000000085e+01,1.424431627031033307e-02
5.400000000000000000e+01,1.654114617780516605e-02
5.403999999999999915e+01,2.125387069538089979e-02
5.407999999999999829e+01,1.592824990753753667e-02
5.411999999999999744e+01,1.227498523718449121e-02
5.415999999999999659e+01,1.512706403399161070e-02
5.420000000000000284e+01,1.751382922463635972e-02
5.424000000000000199e+01,1.692584367519496882e-02
5.428000000000000114e+01,2.460909839822279094e-02
5.432000000000000028e+01,3.136232635069802210e-02
5.435999999999999943e+01,6.209400460958450912e-02
5.439999999999999858e+01,9.821571584270906430e-02
5.443999999999999773e+01,7.968687411431908674e-02
5.447999999999999687e+01,5.074790957210605080e-02
5.452000000000000313e+01,5.926399356452281830e-02
5.456000000000000227e+01,6.313236199548231953e-02
5.460000000000000142e+01,4.041868257826234517e-02
5.464000000000000057e+01,2.318797270927880697e-02
5.467999999999999972e+01,2.510271753492803945e-02
5.471999999999999886e+01,1.632850779246936002e-02
5.475999999999999801e+01,1.498904856769780330e-02
5.479999999999999716e+01,1.764548190598147839e-02
5.484000000000000341e+01,1.797774530849352223e-02
5.488000000000000256e+01,2.286355193046149883e-02
5.492000000000000171e+01,1.399331068592459502e-02
5.496000000000000085e+01,1.404488868214734919e-02
5.500000000000000000e+01,1.725587591272774099e-02
5.503999999999999915e+01,1.386735284221906304e-02
5.507999999999999829e+01,1.401000549832710079e-02
5.511999999999999744e+01,1.759089088096895889e-02
5.515999999999999659e+01,1.494403153676876657e-02
5.520000000000000284e+01,1.740836056035277232e-02
5.524000000000000199e+01,1.717674213976120093e-02
5.528000000000000114e+01,1.805980072188502136e-02
5.532000000000000028e+01,1.699044668037555383e-02
5.535999999999999943e+01,1.610634698484928254e-02
5.539999999999999858e+01,1.550044279936491770e-02
5.543999999999999773e+01,1.554450153419365162e-02
5.547999999999999687e+01,1.670323268167740391e-02
5.552000000000000313e+01,1.535189412304267462e-02
5.556000000000000227e+01,1.781054652109222494e-02
5.560000000000000142e+01,2.212740523432700501e-02
5.564000000000000057e+01,1.789295615280473220e-02
5.567999999999999972e+01,2.090735231055033602e-02
5.571999999999999886e+01,1.379042344231100163e-02
5.575999999999999801e+01,2.089299413262580077e-02
5.579999999999999716e+01,2.325487872103827736e-02
5.584000000000000341e+01,2.924086367590890759e-02
5.588000000000000256e+01,2.723318782037486424e-02
5.592000000000000171e+01,3.442613541952314199e-02
5.596000000000000085e+01,3.139481040254331334e-02
5.600000000000000000e+01,3.328877122896457125e-02
5.603999999999999915e+01,3.285853457925203697e-02
5.607999999999999829e+01,3.307824616165942755e-02
5.611999999999999744e+01,2.818549596978469490e-02
5.615999999999999659e+01,2.468622883057215722e-02
5.620000000000000284e+01,2.936521581717861651e-02
5.624000000000000199e+01,3.246353739415732548e-02
5.628000000000000114e+01,3.295882974071739913e-02
5.632000000000000028e+01,3.131580234920075534e-02
5.635999999999999943e+01,2.883564345058665934e-02
5.639999999999999858e+01,3.406902367737710963e-02
5.643999999999999773e+01,4.292649050044459319e-02
5.647999999999999687e+01,5.996220502324654811e-02
5.652000000000000313e+01,6.379948745148553146e-02
5.656000000000000227e+01,5.239361106159180076e-02
5.660000000000000142e+01,4.758596422219260602e-02
5.664000000000000057e+01,5.597543384230307950e-02
5.667999999999999972e+01,4.865703147989058203e-02
5.671999999999999886e+01,3.882853187099741255e-02
5.675999999999999801e+01,3.541237397640890211e-02
5.679999999999999716e+01,2.967200116345721644e-02
5.684000000000000341e+01,2.839218450529907775e-02
5.688000000000000256e+01,2.618228232381572193e-02
5.692000000000000171e+01,2.778233988660613885e-02
5.696000000000000085e+01,2.668641053070185468e-02
5.700000000000000000e+01,2.326626166637404958e-02
5.703999999999999915e+01,2.244782272536332765e-02
5.707999999999999829e+01,2.153577240960426187e-02
5.711999999999999744e+01,2.564192431497907404e-02
5.715999999999999659e+01,2.017437063835925831e-02
5.720000000000000284e+01,1.935324901856591562e-02
5.724000000000000199e+01,2.280679020930382467e-02
5.728000000000000114e+01,1.603602848951520693e-02
5.732000000000000028e+01,1.716466894499509011e-02
5.735999999999999943e+01,1.457495039888070075e-02
5.739999999999999858e+01,1.570223849882440570e-02
5.743999999999999773e+01,1.645708071569870756e-02
5.747999999999999687e+01,1.869831777290763275e-02
5.752000000000000313e+01,1.452587177642062667e-02
5.756000000000000227e+01,1.276923960495215428e-02
5.760000000000000142e+01,1.575197239226026891e-02
5.764000000000000057e+01,1.687518139330575900e-02
5.767999999999999972e+01,1.744005483906775622e-02
5.771999999999999886e+01,1.298537187213554163e-02
5.775999999999999801e+01,1.327005019193164270e-02
5.779999999999999716e+01,1.327521644862049779e-02
5.784000000000000341e+01,1.235027514969434977e-02
5.788000000000000256e+01,8.822267899866663779e-03
5.792000000000000171e+01,1.207834407027674577e-02
5.796000000000000085e+01,1.291723661790271718e-02
5.800000000000000000e+01,9.015392572962402026e-03
5.803999999999999915e+01,1.394235499978131732e-02
5.807999999999999829e+01,1.208385319245209449e-02
5.811999999999999744e+01,1.236232611175999002e-02
5.815999999999999659e+01,1.133891580307308002e-02
5.820000000000000284e+01,1.152305756429107195e-02
5.824000000000000199e+01,1.142767716426901746e-02
5.828000000000000114e+01,9.100989961507892703e-03
5.832000000000000028e+01,1.253601409608494019e-02
5.835999999999999943e+01,1.076558296563300855e-02
5.839999999999999858e+01,5.834421457697734972e-03
5.843999999999999773e+01,1.140501471867551124e-02
5.847999999999999687e+01,1.632431198205756828e-02
5.852000000000000313e+01,8.138073332343868579e-03
5.856000000000000227e+01,1.008181836922376028e-02
5.860000000000000142e+01,9.608365095126426489e-03
5.864000000000000057e+01,1.080716420315520031e-02
5.867999999999999972e+01,5.685195717208749513e-03
5.871999999999999886e+01,9.949670589241179156e-03
5.875999999999999801e+01,1.068163849339836928e-02
5.879999999999999716e+01,7.602272265455873625e-03
5.884000000000000341e+01,1.149285250761508496e-02
5.888000000000000256e+01,1.445330132584544264e-02
5.892000000000000171e+01,1.313770284758585156e-02
5.896000000000000085e+01,1.191433401215211303e-02
5.900000000000000000e+01,1.310674595330231333e-02
5.903999999999999915e+01,1.708670608130757884e-02
5.907999999999999829e+01,1.716238356905783191e-02
5.911999999999999744e+01,1.956089699728502662e-02
5.915999999999999659e+01,1.982102550857834170e-02
5.920000000000000284e+01,1.729217361043009285e-02
5.924000000000000199e+01,1.411200827245677122e-02
5.928000000000000114e+01,1.111700731528352144e-02
5.932000000000000028e+01,9.515416887818749572e-03
5.935999999999999943e+01,1.237432478038697804e-02
5.939999999999999858e+01,1.123600060653280434e-02
5.943999999999999773e+01,1.065460546971366135e-02
5.947999999999999687e+01,3.845366460748639997e-03
5.952000000000000313e+01,7.259031188158283215e-03
5.956000000000000227e+01,1.030020137785866464e-02
5.960000000000000142e+01,9.530019075217902036e-03
5.964000000000000057e+01,6.063788347073597804e-03
5.967999999999999972e+01,9.102774400423433235e-03
5.971999999999999886e+01,6.471563565979783494e-03
5.975999999999999801e+01,7.557305214881964057e-03
5.979999999999999716e+01,5.482284355878289106e-03
5.984000000000000341e+01,5.265372502780162056e-03
5.988000000000000256e+01,4.675958767876215762e-03
5.992000000000000171e+01,4.829347218004021412e-03
5.996000000000000085e+01,9.629104382125353370e-03
