2.003999999999999915e+01,3.186826272087833756e-02
2.007999999999999829e+01,3.042287089002606096e-02
2.012000000000000099e+01,2.383364125987687265e-02
2.016000000000000014e+01,3.906775569175271329e-02
2.019999999999999929e+01,3.310242351241887010e-02
2.023999999999999844e+01,3.555478099987446905e-02
2.028000000000000114e+01,2.647222887312168996e-02
2.032000000000000028e+01,4.248648863077266608e-02
2.035999999999999943e+01,3.262490634956418528e-02
2.039999999999999858e+01,2.385466389081943375e-02
2.044000000000000128e+01,3.909007165506353521e-02
2.048000000000000043e+01,3.000843013570879403e-02
2.051999999999999957e+01,2.762979265487736438e-02
2.055999999999999872e+01,3.850110409833086555e-02
2.060000000000000142e+01,2.941999310169172294e-02
2.064000000000000057e+01,3.078299430080504509e-02
2.067999999999999972e+01,2.653450020390248076e-02
2.071999999999999886e+01,3.600358876541785019e-02
2.076000000000000156e+01,2.972900073863382620e-02
2.080000000000000071e+01,2.859861079367593747e-02
2.083999999999999986e+01,2.029792355643585816e-02
2.087999999999999901e+01,2.025902519211822753e-02
2.092000000000000171e+01,1.585566098347633915e-02
2.096000000000000085e+01,2.984626165946588361e-02
2.100000000000000000e+01,2.871669651257103412e-02
2.103999999999999915e+01,3.990178641882258931e-02
2.107999999999999829e+01,2.661392756775202845e-02
2.112000000000000099e+01,3.468174208055275348e-02
2.116000000000000014e+01,3.573512841149167202e-02
2.119999999999999929e+01,3.289167867180838728e-02
2.123999999999999844e+01,4.158347902670769120e-02
2.128000000000000114e+01,5.167834950404965461e-02
2.132000000000000028e+01,3.075331709730247387e-02
2.135999999999999943e+01,5.503353988364838995e-02
2.139999999999999858e+01,6.185538857213601638e-02
2.144000000000000128e+01,7.834192469565802452e-02
2.148000000000000043e+01,1.118194914978220267e-01
2.151999999999999957e+01,1.496618342613811048e-01
2.155999999999999872e+01,1.394933820189495077e-01
2.160000000000000142e+01,1.248045618181830713e-01
2.164000000000000057e+01,8.595453372122202618e-02
2.167999999999999972e+01,7.485122704045783781e-02
2.171999999999999886e+01,5.096592584776167556e-02
2.176000000000000156e+01,3.970701528876516978e-02
2.180000000000000071e+01,4.902435729335274939e-02
2.183999999999999986e+01,4.010391232065637496e-02
2.187999999999999901e+01,4.755096613888894902e-02
2.192000000000000171e+01,3.411027592287440430e-02
2.196000000000000085e+01,2.550198616138288701e-02
2.200000000000000000e+01,4.043165612257146324e-02
2.203999999999999915e+01,4.211168199597160877e-02
2.207999999999999829e+01,2.383923658396525438e-02
2.212000000000000099e+01,2.988414529205417336e-02
2.216000000000000014e+01,3.125278788822822423e-02
2.219999999999999929e+01,3.464798892981844902e-02
2.223999999999999844e+01,3.632863497902096006e-02
2.228000000000000114e+01,2.538314770585004682e-02
2.232000000000000028e+01,3.423449747655020470e-02
2.235999999999999943e+01,2.157457000514668988e-02
2.239999999999999858e+01,2.684092087849707098e-02
2.244000000000000128e+01,1.979289249203773984e-02
2.248000000000000043e+01,1.695372871195771625e-02
2.251999999999999957e+01,1.614111281614481405e-02
2.255999999999999872e+01,1.984911822956222927e-02
2.260000000000000142e+01,1.529561056339423866e-02
2.264000000000000057e+01,1.354804517890840880e-02
2.267999999999999972e+01,1.491818009909933428e-02
2.271999999999999886e+01,2.595296020972904377e-02
2.276000000000000156e+01,7.370706955221893210e-03
2.280000000000000071e+01,1.824981454015117341e-02
2.283999999999999986e+01,1.447633459029711543e-02
2.287999999999999901e+01,2.177041159442972065e-02
2.292000000000000171e+01,2.501171609019557304e-02
2.296000000000000085e+01,2.061501431136000817e-02
2.300000000000000000e+01,2.245359570743603317e-02
2.303999999999999915e+01,2.444815176708199297e-02
2.307999999999999829e+01,3.018391361624539818e-02
2.312000000000000099e+01,2.469643146414204904e-02
2.316000000000000014e+01,2.435306950539138648e-02
2.319999999999999929e+01,2.930970609141912708e-02
2.323999999999999844e+01,7.922766573539262447e-03
2.328000000000000114e+01,1.225605993571228340e-02
2.332000000000000028e+01,2.142170886752528883e-02
2.335999999999999943e+01,3.230211861745108798e-02
2.339999999999999858e+01,1.793010468387904940e-02
2.344000000000000128e+01,1.618442593797498122e-02
2.348000000000000043e+01,2.566216401547240927e-02
2.351999999999999957e+01,1.986377342946824345e-02
2.355999999999999872e+01,1.390958100202888646e-02
2.360000000000000142e+01,2.884334107484902085e-02
2.364000000000000057e+01,1.447179808251122107e-02
2.367999999999999972e+01,2.161172363642224065e-02
2.371999999999999886e+01,1.534606998494385255e-02
2.376000000000000156e+01,2.201850030312262063e-02
2.380000000000000071e+01,3.134095494724945669e-02
2.383999999999999986e+01,2.211379726377322649e-02
2.387999999999999901e+01,3.845685898269924317e-03
2.392000000000000171e+01,1.425950005033585141e-02
2.396000000000000085e+01,1.516471886537980145e-02
2.400000000000000000e+01,3.274912584687952877e-02
2.403999999999999915e+01,1.806650280197071023e-02
2.407999999999999829e+01,2.115422298421460248e-02
2.412000000000000099e+01,1.364218484787782688e-02
2.416000000000000014e+01,1.548298503367111396e-02
2.419999999999999929e+01,2.309138977535986695e-02
2.423999999999999844e+01,1.994415256646798681e-02
2.428000000000000114e+01,1.882340515552417479e-02
2.432000000000000028e+01,1.068812527137252659e-02
2.435999999999999943e+01,2.047905904493754758e-02
2.439999999999999858e+01,1.717615051380984997e-02
2.444000000000000128e+01,0.000000000000000000e+00
2.448000000000000043e+01,1.883210108549988882e-02
2.451999999999999957e+01,2.472623557744547257e-02
2.455999999999999872e+01,2.002059722923073271e-02
2.460000000000000142e+01,1.422384468643152385e-02
2.464000000000000057e+01,1.559759922207053576e-02
2.467999999999999972e+01,1.276264349145444545e-02
2.471999999999999886e+01,8.680689934253924336e-03
2.476000000000000156e+01,1.862794504410445612e-02
2.480000000000000071e+01,2.561352329982233278e-02
2.483999999999999986e+01,3.213149812637081798e-02
2.487999999999999901e+01,1.916454827216717074e-02
2.492000000000000171e+01,6.977029721060293982e-03
2.496000000000000085e+01,1.271570502551561989e-02
2.500000000000000000e+01,1.954556833591879900e-02
2.503999999999999915e+01,1.936087541052922134e-02
2.507999999999999829e+01,1.855269146353933502e-02
2.512000000000000099e+01,2.678555481209444686e-02
2.516000000000000014e+01,2.145691175852044649e-02
2.519999999999999929e+01,1.145190226211698602e-02
2.523999999999999844e+01,9.240898728274044363e-03
2.528000000000000114e+01,1.762973392509320156e-02
2.532000000000000028e+01,2.368039379218964471e-02
2.535999999999999943e+01,1.398722525447054083e-02
2.539999999999999858e+01,1.614092885953611473e-02
2.544000000000000128e+01,1.673585153229381270e-02
2.548000000000000043e+01,2.076014144281360801e-02
2.551999999999999957e+01,2.073157303563151824e-02
2.555999999999999872e+01,2.620974549378281889e-03
2.560000000000000142e+01,1.568632087976930267e-02
2.564000000000000057e+01,5.374558388054675182e-04
2.567999999999999972e+01,1.921448739087459542e-02
2.571999999999999886e+01,7.650869200902532703e-03
2.576000000000000156e+01,7.778231600853425208e-03
2.580000000000000071e+01,1.523194246664682713e-02
2.583999999999999986e+01,6.162410728055521363e-03
2.587999999999999901e+01,8.004457261110370717e-03
2.592000000000000171e+01,6.105391618165634075e-03
2.596000000000000085e+01,1.059739113107373287e-02
2.600000000000000000e+01,1.867462039144613187e-02
2.603999999999999915e+01,1.537262960849842749e-02
2.607999999999999829e+01,1.534410658958948286e-02
2.612000000000000099e+01,2.809770998029495134e-02
2.616000000000000014e+01,2.074282775937591819e-02
2.619999999999999929e+01,1.728492802834132036e-02
2.623999999999999844e+01,2.208864027098450880e-02
2.628000000000000114e+01,2.767173893184136230e-02
2.632000000000000028e+01,1.548454177403673498e-02
2.635999999999999943e+01,1.582653649051968259e-03
2.639999999999999858e+01,2.228603671236067257e-02
2.644000000000000128e+01,1.742513641811843997e-02
2.648000000000000043e+01,2.456695229435233718e-02
2.651999999999999957e+01,9.417955275700625947e-03
2.655999999999999872e+01,2.638014941966128693e-02
2.660000000000000142e+01,1.746629558235809898e-02
2.664000000000000057e+01,2.772561752713854216e-02
2.667999999999999972e+01,2.333222520334848546e-02
2.671999999999999886e+01,1.270361955557955738e-02
2.676000000000000156e+01,2.109230605789436802e-02
2.680000000000000071e+01,4.873445468436711633e-04
2.683999999999999986e+01,6.226017109340665351e-03
2.687999999999999901e+01,2.505855034186194735e-02
2.692000000000000171e+01,2.738817218191327580e-03
2.696000000000000085e+01,1.829780990375627289e-02
2.700000000000000000e+01,2.013935578901687729e-02
2.703999999999999915e+01,1.309572337247368740e-02
2.707999999999999829e+01,1.883418568209829433e-02
2.712000000000000099e+01,2.905333980959733976e-03
2.716000000000000014e+01,7.396678272591167801e-03
2.719999999999999929e+01,4.249876354397877018e-03
2.723999999999999844e+01,7.026458332754278308e-03
2.728000000000000114e+01,1.042651405416484753e-02
2.732000000000000028e+01,1.756763562986941168e-02
2.735999999999999943e+01,2.003231947498911383e-02
2.739999999999999858e+01,2.171755605860948429e-02
2.744000000000000128e+01,9.841210991914808512e-03
2.748000000000000043e+01,1.059106777838255374e-02
2.751999999999999957e+01,1.617314151941048883e-02
2.755999999999999872e+01,2.565215286543988740e-02
2.760000000000000142e+01,2.297249432470225075e-02
2.764000000000000057e+01,1.951338060160373589e-02
2.767999999999999972e+01,1.153369825834046035e-02
2.771999999999999886e+01,1.524493181796290897e-02
2.776000000000000156e+01,1.739730787694775127e-02
2.780000000000000071e+01,1.362619431121440093e-02
2.783999999999999986e+01,7.516822246710225426e-03
2.787999999999999901e+01,1.824238996630010365e-02
2.792000000000000171e+01,2.008275034092666181e-02
2.796000000000000085e+01,1.584373613869141315e-02
2.800000000000000000e+01,2.532206432873586321e-02
2.803999999999999915e+01,1.827707730649661549e-02
2.807999999999999829e+01,1.263493598228502580e-02
2.812000000000000099e+01,1.650138195755468384e-02
2.816000000000000014e+01,6.650342848354792724e-03
2.819999999999999929e+01,2.111645719742044625e-02
2.823999999999999844e+01,1.625341564523912971e-02
2.828000000000000114e+01,2.526358691590133501e-02
2.832000000000000028e+01,2.990904811567015806e-02
2.835999999999999943e+01,1.538122912533036561e-02
2.839999999999999858e+01,1.784421242878668490e-02
2.844000000000000128e+01,2.046299217642490870e-02
2.848000000000000043e+01,1.513182412650407489e-02
2.851999999999999957e+01,1.899747083148989324e-02
2.855999999999999872e+01,9.457378593708530914e-03
2.860000000000000142e+01,2.127271285294203909e-02
2.864000000000000057e+01,1.282359998007749462e-02
2.867999999999999972e+01,1.824768672862025001e-02
2.871999999999999886e+01,2.070996724895595581e-02
2.876000000000000156e+01,2.395155233860127644e-02
2.880000000000000071e+01,2.563424560387479734e-02
2.883999999999999986e+01,2.061401656285028958e-02
2.887999999999999901e+01,1.387901338559759806e-02
2.892000000000000171e+01,1.509377438926208688e-02
2.896000000000000085e+01,1.911426909191711251e-02
2.900000000000000000e+01,2.469345880086591324e-02
2.903999999999999915e+01,2.169916354396842634e-02
2.907999999999999829e+01,2.743402554525943907e-02
2.912000000000000099e+01,1.181326687174465151e-02
2.916000000000000014e+01,2.471838110541622544e-02
2.919999999999999929e+01,2.203541987205417593e-02
2.923999999999999844e+01,2.200230342510837642e-02
2.928000000000000114e+01,3.241301402289382960e-02
2.932000000000000028e+01,1.382999343826601772e-02
2.935999999999999943e+01,2.205816277284545698e-02
2.939999999999999858e+01,2.218047427499364455e-02
2.944000000000000128e+01,2.931725476677670209e-02
2.948000000000000043e+01,3.879211278097600968e-02
2.951999999999999957e+01,1.334980549241526412e-02
2.955999999999999872e+01,2.718905524787763525e-02
2.960000000000000142e+01,4.024878513394179735e-02
2.964000000000000057e+01,2.727648703625808538e-02
2.967999999999999972e+01,4.625939745841536194e-02
2.971999999999999886e+01,2.596050517315770870e-02
2.976000000000000156e+01,3.387570664979371038e-02
2.980000000000000071e+01,3.914082559748334467e-02
2.983999999999999986e+01,3.131192270094844410e-02
2.987999999999999901e+01,3.813557817935817745e-02
2.992000000000000171e+01,6.459994020278246596e-02
2.996000000000000085e+01,3.463572772532115540e-02
3.000000000000000000e+01,5.112352266248498811e-02
3.003999999999999915e+01,5.217909408116862269e-02
3.007999999999999829e+01,5.666388092109834324e-02
3.012000000000000099e+01,7.065718905332825373e-02
3.016000000000000014e+01,6.158016579975759963e-02
3.019999999999999929e+01,6.949388543352025271e-02
3.023999999999999844e+01,8.364264929619968925e-02
3.028000000000000114e+01,9.794714887645443457e-02
3.032000000000000028e+01,1.149014575992477333e-01
3.035999999999999943e+01,1.360643708601276536e-01
3.039999999999999858e+01,1.612800076673815419e-01
3.044000000000000128e+01,1.994335079803084554e-01
3.048000000000000043e+01,2.600335304444845730e-01
3.051999999999999957e+01,3.756589250977233618e-01
3.055999999999999872e+01,5.567536286150159830e-01
3.060000000000000142e+01,8.979366003187072565e-01
3.064000000000000057e+01,1.000000000000000000e+00
3.067999999999999972e+01,9.189046284320832036e-01
3.071999999999999886e+01,7.598692626040064457e-01
3.076000000000000156e+01,5.481464079898314967e-01
3.080000000000000071e+01,3.721198370491367591e-01
3.083999999999999986e+01,2.796446076335144526e-01
3.087999999999999901e+01,2.287890867707134956e-01
3.092000000000000171e+01,2.059917417140721130e-01
3.096000000000000085e+01,1.743090889815525069e-01
3.100000000000000000e+01,1.420027498461773341e-01
3.103999999999999915e+01,1.393133792722226483e-01
3.107999999999999829e+01,1.213476305276227629e-01
3.112000000000000099e+01,1.183461585766537316e-01
3.116000000000000014e+01,1.089534470941953131e-01
3.119999999999999929e+01,9.722236622090216218e-02
3.123999999999999844e+01,9.952028015139406658e-02
3.128000000000000114e+01,8.638592963895364019e-02
3.132000000000000028e+01,1.014656214028056697e-01
3.135999999999999943e+01,1.110893450638652385e-01
3.139999999999999858e+01,1.038778832774388677e-01
3.144000000000000128e+01,1.309597669980720469e-01
3.148000000000000043e+01,1.159539558367260470e-01
3.151999999999999957e+01,1.223034748019109080e-01
3.155999999999999872e+01,1.350438741028422707e-01
3.160000000000000142e+01,1.348460731447990446e-01
3.164000000000000057e+01,1.377656767792625470e-01
3.167999999999999972e+01,1.582994931420222684e-01
3.171999999999999886e+01,1.612187151383013550e-01
3.176000000000000156e+01,1.781669147764984307e-01
3.180000000000000071e+01,1.820210278834336615e-01
3.183999999999999986e+01,1.652988289036430580e-01
3.187999999999999901e+01,1.766347740465652183e-01
3.192000000000000171e+01,1.731619523105338287e-01
3.196000000000000085e+01,1.643890223411247353e-01
3.200000000000000000e+01,1.687097840633569046e-01
3.203999999999999915e+01,1.543247831569753425e-01
3.207999999999999829e+01,1.199869809292829631e-01
3.211999999999999744e+01,1.297629210750664563e-01
3.215999999999999659e+01,1.108567956513782649e-01
3.220000000000000284e+01,1.168912103578704093e-01
3.224000000000000199e+01,1.173137482468412512e-01
3.228000000000000114e+01,9.186005069415452418e-02
3.232000000000000028e+01,1.078701344975497994e-01
3.235999999999999943e+01,8.646888452288153948e-02
3.239999999999999858e+01,8.283770318549346645e-02
3.243999999999999773e+01,7.577695383183448430e-02
3.247999999999999687e+01,9.022738259282875317e-02
3.252000000000000313e+01,8.207504109425640959e-02
3.256000000000000227e+01,8.389877937393121210e-02
3.260000000000000142e+01,8.151354599891479091e-02
3.264000000000000057e+01,7.024294950198814447e-02
3.267999999999999972e+01,8.796574875431707741e-02
3.271999999999999886e+01,8.355341016106883345e-02
3.275999999999999801e+01,7.571149299040068337e-02
3.279999999999999716e+01,1.041893121723082988e-01
3.284000000000000341e+01,1.262758363766945946e-01
3.288000000000000256e+01,1.863967706806302638e-01
3.292000000000000171e+01,4.282731709507497930e-01
3.296000000000000085e+01,7.859679347931491922e-01
3.300000000000000000e+01,6.203744074540731290e-01
3.303999999999999915e+01,5.564141909341946413e-01
3.307999999999999829e+01,6.302513677174187423e-01
3.311999999999999744e+01,5.405705313403892376e-01
3.315999999999999659e+01,1.933762385267503714e-01
3.320000000000000284e+01,1.107095080415214511e-01
3.324000000000000199e+01,1.052029733384120258e-01
3.328000000000000114e+01,7.397604986162373275e-02
3.332000000000000028e+01,8.171879999222025903e-02
3.335999999999999943e+01,7.621153243438466562e-02
3.339999999999999858e+01,6.883346189252302627e-02
3.343999999999999773e+01,7.252259978673318563e-02
3.347999999999999687e+01,7.231449632623081214e-02
3.352000000000000313e+01,6.415627873007381798e-02
3.356000000000000227e+01,7.875624097724573391e-02
3.360000000000000142e+01,7.153279567881930257e-02
3.364000000000000057e+01,6.758256863728787089e-02
3.367999999999999972e+01,7.968769160118012451e-02
3.371999999999999886e+01,7.043704207375063586e-02
3.375999999999999801e+01,6.570664421533872757e-02
3.379999999999999716e+01,7.936978747545715696e-02
3.384000000000000341e+01,7.541826640148328875e-02
3.388000000000000256e+01,7.224588091843593685e-02
3.392000000000000171e+01,8.699939357878053170e-02
3.396000000000000085e+01,8.055300549851097947e-02
3.400000000000000000e+01,7.628866609285964162e-02
3.403999999999999915e+01,8.355915433583334384e-02
3.407999999999999829e+01,8.849117813763196505e-02
3.411999999999999744e+01,1.057374253056143215e-01
3.415999999999999659e+01,9.695149531361993422e-02
3.420000000000000284e+01,1.079620102828423855e-01
3.424000000000000199e+01,1.049430801626273224e-01
3.428000000000000114e+01,1.131472104270371676e-01
3.432000000000000028e+01,1.286774079666990478e-01
3.435999999999999943e+01,1.233194509074489603e-01
3.439999999999999858e+01,1.390049695812509145e-01
3.443999999999999773e+01,1.384787211629288362e-01
3.447999999999999687e+01,1.391992275480865016e-01
3.452000000000000313e+01,1.424135247891337996e-01
3.456000000000000227e+01,1.383011922570690222e-01
3.460000000000000142e+01,1.337209341807923113e-01
3.464000000000000057e+01,1.216581640195471548e-01
3.467999999999999972e+01,1.222213580856133935e-01
3.471999999999999886e+01,1.160814357842698680e-01
3.475999999999999801e+01,1.082265452855865340e-01
3.479999999999999716e+01,1.033330754164948490e-01
3.484000000000000341e+01,1.096626474500176501e-01
3.488000000000000256e+01,9.370113067863874989e-02
3.492000000000000171e+01,9.332728397352380023e-02
3.496000000000000085e+01,8.593855363699909322e-02
3.500000000000000000e+01,9.600804678528118696e-02
3.503999999999999915e+01,9.719209760303616774e-02
3.507999999999999829e+01,1.022728378387925546e-01
3.511999999999999744e+01,9.753285507431960766e-02
3.515999999999999659e+01,1.076011360974029746e-01
3.520000000000000284e+01,1.019252639603411142e-01
3.524000000000000199e+01,1.077841798675958224e-01
3.528000000000000114e+01,1.166045005627188713e-01
3.532000000000000028e+01,1.427271545099305372e-01
3.535999999999999943e+01,1.409470356340270514e-01
3.539999999999999858e+01,1.742395299288107824e-01
3.543999999999999773e+01,2.405782003437389460e-01
3.547999999999999687e+01,3.201663272693827667e-01
3.552000000000000313e+01,3.389610653902412896e-01
3.556000000000000227e+01,3.200326047784085026e-01
3.560000000000000142e+01,2.908157663099154577e-01
3.564000000000000057e+01,2.606633289587687585e-01
3.567999999999999972e+01,1.888906971252705680e-01
3.571999999999999886e+01,1.780666933817935393e-01
3.575999999999999801e+01,1.667747258099397389e-01
3.579999999999999716e+01,1.565735898052570962e-01
3.584000000000000341e+01,1.706893551114089524e-01
3.588000000000000256e+01,1.611110815649462458e-01
3.592000000000000171e+01,1.700821588409713037e-01
3.596000000000000085e+01,1.644002155751067562e-01
3.600000000000000000e+01,1.733706287022133141e-01
3.603999999999999915e+01,1.790672346716926655e-01
3.607999999999999829e+01,1.980132773497333964e-01
3.611999999999999744e+01,1.982534227445114094e-01
3.615999999999999659e+01,2.089371681193185615e-01
3.620000000000000284e+01,2.018502915999908220e-01
3.624000000000000199e+01,2.401240588518997743e-01
3.628000000000000114e+01,2.815150775596558241e-01
3.632000000000000028e+01,3.294526991776372538e-01
3.635999999999999943e+01,3.306260747090428720e-01
3.639999999999999858e+01,3.107553486426429257e-01
3.643999999999999773e+01,2.770109845504755697e-01
3.647999999999999687e+01,2.161432090290176244e-01
3.652000000000000313e+01,1.844245821945970365e-01
3.656000000000000227e+01,1.739052394770423393e-01
3.660000000000000142e+01,1.601120711198497637e-01
3.664000000000000057e+01,1.399274823714921068e-01
3.667999999999999972e+01,1.237954099069604047e-01
3.671999999999999886e+01,1.199774749992772588e-01
3.675999999999999801e+01,1.086769580390140461e-01
3.679999999999999716e+01,9.410260883839473289e-02
3.684000000000000341e+01,1.063392026901262555e-01
3.688000000000000256e+01,8.474954603365648931e-02
3.692000000000000171e+01,7.547402033331719606e-02
3.696000000000000085e+01,7.601854952385796171e-02
3.700000000000000000e+01,7.141868381449453795e-02
3.703999999999999915e+01,6.027150484096067962e-02
3.707999999999999829e+01,5.910025646944527811e-02
3.711999999999999744e+01,5.683748069839328343e-02
3.715999999999999659e+01,5.332729653609196568e-02
3.720000000000000284e+01,4.358155317218408153e-02
3.724000000000000199e+01,3.991474334049085332e-02
3.728000000000000114e+01,4.139158769145352690e-02
3.732000000000000028e+01,4.146513869902319210e-02
3.735999999999999943e+01,4.621470223425406393e-02
3.739999999999999858e+01,3.584355868771742920e-02
3.743999999999999773e+01,3.560421353347580781e-02
3.747999999999999687e+01,3.770268187292687839e-02
3.752000000000000313e+01,4.229484205749626385e-02
3.756000000000000227e+01,3.940439378661311776e-02
3.760000000000000142e+01,4.415166388234380984e-02
3.764000000000000057e+01,4.936618613236262026e-02
3.767999999999999972e+01,4.896865202532824785e-02
3.771999999999999886e+01,6.353517688822790666e-02
3.775999999999999801e+01,5.300468380764041670e-02
3.779999999999999716e+01,6.024408114494492900e-02
3.784000000000000341e+01,6.000086078579163623e-02
3.788000000000000256e+01,4.588395487570082892e-02
3.792000000000000171e+01,3.987239578578237464e-02
3.796000000000000085e+01,3.152224420075802613e-02
3.800000000000000000e+01,3.034215876620375771e-02
3.803999999999999915e+01,2.791463589724056324e-02
3.807999999999999829e+01,2.766902704824662426e-02
3.811999999999999744e+01,2.773477484024830866e-02
3.815999999999999659e+01,2.655308123741019141e-02
3.820000000000000284e+01,1.290060856660821612e-02
3.824000000000000199e+01,3.135894157648239783e-02
3.828000000000000114e+01,2.378496145158732339e-02
3.832000000000000028e+01,1.854876709736904064e-02
3.835999999999999943e+01,2.360022044371170441e-02
3.839999999999999858e+01,1.664852713607994222e-02
3.843999999999999773e+01,9.228781550448964324e-03
3.847999999999999687e+01,1.022612364611803944e-02
3.852000000000000313e+01,1.262596688233075422e-02
3.856000000000000227e+01,2.656048859093973480e-02
3.860000000000000142e+01,1.165685251538544666e-02
3.864000000000000057e+01,1.732891322295227604e-02
3.867999999999999972e+01,2.035059832968976259e-02
3.871999999999999886e+01,2.134542520173099422e-02
3.875999999999999801e+01,1.672816007284130130e-02
3.879999999999999716e+01,1.896917534841100622e-02
3.884000000000000341e+01,2.245680153180624333e-02
3.888000000000000256e+01,1.768237733716377519e-02
3.892000000000000171e+01,2.163678564537991136e-02
3.896000000000000085e+01,2.122613272450044053e-02
3.900000000000000000e+01,3.796181193092779821e-02
3.903999999999999915e+01,5.454117840033999992e-02
3.907999999999999829e+01,6.644372033708739744e-02
3.911999999999999744e+01,1.313449149016206463e-01
3.915999999999999659e+01,1.917251619647711014e-01
3.920000000000000284e+01,1.465744330295704889e-01
3.924000000000000199e+01,1.148289161831548139e-01
3.928000000000000114e+01,1.119206975907286045e-01
3.932000000000000028e+01,4.899836313771924884e-02
3.935999999999999943e+01,3.720411733280399452e-02
3.939999999999999858e+01,2.540942658115020319e-02
3.943999999999999773e+01,2.624054295971731815e-02
3.947999999999999687e+01,2.114778423163013107e-02
3.952000000000000313e+01,8.260593017914871078e-03
3.956000000000000227e+01,1.470203085146416441e-02
3.960000000000000142e+01,1.724602534832755246e-02
3.964000000000000057e+01,1.417789880110042165e-02
3.967999999999999972e+01,6.277048247485150778e-03
3.971999999999999886e+01,2.238121160763511391e-02
3.975999999999999801e+01,1.697352346320805949e-02
3.979999999999999716e+01,1.857996239121915971e-02
3.984000000000000341e+01,1.878302480678933906e-02
3.988000000000000256e+01,1.368571760054576592e-02
3.992000000000000171e+01,1.373197744747937932e-02
3.996000000000000085e+01,1.377777386566381157e-02
4.000000000000000000e+01,1.974653305458408739e-02
4.003999999999999915e+01,7.632784272443832348e-03
4.007999999999999829e+01,8.768340184503340892e-03
4.011999999999999744e+01,1.005930705880836613e-02
4.015999999999999659e+01,1.867614846739735698e-02
4.020000000000000284e+01,5.001725491983645931e-03
4.024000000000000199e+01,1.003239043511630450e-02
4.028000000000000114e+01,1.428318303050501482e-02
4.032000000000000028e+01,6.842524948164029064e-03
4.035999999999999943e+01,1.093648593175650628e-02
4.039999999999999858e+01,5.833068342438840585e-03
4.043999999999999773e+01,1.865533371310354807e-02
4.047999999999999687e+01,8.095167757776054046e-03
4.052000000000000313e+01,1.452540409272869495e-02
4.056000000000000227e+01,5.523069711429783382e-03
4.060000000000000142e+01,1.117293990658612020e-02
4.064000000000000057e+01,1.167829506876907376e-02
4.067999999999999972e+01,4.545059132728283824e-03
4.071999999999999886e+01,7.387633665636719575e-03
4.075999999999999801e+01,1.443846949929138840e-02
4.079999999999999716e+01,1.322719158801470389e-02
4.084000000000000341e+01,6.871392043046528619e-03
4.088000000000000256e+01,1.672658454922010610e-02
4.092000000000000171e+01,5.537526281359304858e-03
4.096000000000000085e+01,1.050797458633340089e-03
4.100000000000000000e+01,1.106038033935738928e-02
4.103999999999999915e+01,1.124904483859665884e-02
4.107999999999999829e+01,7.540217155836137497e-03
4.111999999999999744e+01,1.271602903960446056e-02
4.115999999999999659e+01,9.473835625579775377e-03
4.120000000000000284e+01,1.636331651035009480e-02
4.124000000000000199e+01,1.467890978547091788e-02
4.128000000000000114e+01,1.642334884162509681e-02
4.132000000000000028e+01,8.814499289996658576e-03
4.135999999999999943e+01,7.440326967359476087e-03
4.139999999999999858e+01,1.276846956827736544e-02
4.143999999999999773e+01,1.513438613531797525e-02
4.147999999999999687e+01,1.048520388753916913e-02
4.152000000000000313e+01,9.888378186208655884e-03
4.156000000000000227e+01,2.899969716048229028e-03
4.160000000000000142e+01,1.648716033838121264e-02
4.164000000000000057e+01,2.196808916433612771e-02
4.167999999999999972e+01,2.666909943752046944e-02
4.171999999999999886e+01,1.391106497988908210e-02
4.175999999999999801e+01,2.328742104986842101e-02
4.179999999999999716e+01,2.673982544486359220e-02
4.184000000000000341e+01,4.702670889383038511e-02
4.188000000000000256e+01,4.642518955688513388e-02
4.192000000000000171e+01,3.958795524138655764e-02
4.196000000000000085e+01,3.290607116152711314e-02
4.200000000000000000e+01,3.339412121777605991e-02
4.203999999999999915e+01,3.123168478113177993e-02
4.207999999999999829e+01,2.033945334025300672e-02
4.211999999999999744e+01,1.957886583486592377e-02
4.215999999999999659e+01,1.866186262126165452e-02
4.220000000000000284e+01,1.322381157535961610e-02
4.224000000000000199e+01,1.152633397018242196e-02
4.228000000000000114e+01,1.746642027481578111e-02
4.232000000000000028e+01,1.810605642887467767e-02
4.235999999999999943e+01,1.578343618575311566e-02
4.239999999999999858e+01,1.299263297041423210e-02
4.243999999999999773e+01,3.654338271516611308e-03
4.247999999999999687e+01,1.286517789155363668e-02
4.252000000000000313e+01,1.661968108872893118e-02
4.256000000000000227e+01,2.603352488934238766e-03
4.260000000000000142e+01,1.508601749767108854e-02
4.264000000000000057e+01,1.463011788779509242e-02
4.267999999999999972e+01,1.152371066272796576e-02
4.271999999999999886e+01,2.275767870336611876e-02
4.275999999999999801e+01,1.372673360120936492e-02
4.279999999999999716e+01,1.139805721758109514e-02
4.284000000000000341e+01,1.390109217350757667e-02
4.288000000000000256e+01,8.765463423311430427e-03
4.292000000000000171e+01,1.469673023514972247e-02
4.296000000000000085e+01,1.454812741626986157e-02
4.300000000000000000e+01,1.221664543575748905e-02
4.303999999999999915e+01,1.128751541956000450e-02
4.307999999999999829e+01,1.674888553774735514e-02
4.311999999999999744e+01,2.158616924956315714e-02
4.315999999999999659e+01,2.439644819074111154e-02
4.320000000000000284e+01,3.312958429116555359e-02
4.324000000000000199e+01,8.270262266218772473e-02
4.328000000000000114e+01,1.021903114196899831e-01
4.332000000000000028e+01,6.400194737578505932e-02
4.335999999999999943e+01,5.823597937731164048e-02
4.339999999999999858e+01,5.745758390795154685e-02
4.343999999999999773e+01,3.049082533372642762e-02
4.347999999999999687e+01,1.537034219737105564e-02
4.352000000000000313e+01,1.287553153658767095e-02
4.356000000000000227e+01,1.396537108022058264e-02
4.360000000000000142e+01,1.443110837575849702e-02
4.364000000000000057e+01,1.177866735795098790e-02
4.367999999999999972e+01,1.333439127040565893e-02
4.371999999999999886e+01,7.407303425290809144e-03
4.375999999999999801e+01,6.467776227996726267e-03
4.379999999999999716e+01,2.563613650058966728e-02
4.384000000000000341e+01,1.986315783943481961e-02
4.388000000000000256e+01,1.736305947840900005e-02
4.392000000000000171e+01,1.361532962186253436e-02
4.396000000000000085e+01,1.033464333691267237e-02
4.400000000000000000e+01,1.063859273479937639e-02
4.403999999999999915e+01,1.140958306399552161e-02
4.407999999999999829e+01,7.815343185713018517e-03
4.411999999999999744e+01,1.092332846121971471e-02
4.415999999999999659e+01,6.548487457577092941e-03
4.420000000000000284e+01,1.479929648706500636e-02
4.424000000000000199e+01,1.821723101379231144e-02
4.428000000000000114e+01,1.914048479115308329e-02
4.432000000000000028e+01,1.476322241075851173e-02
4.435999999999999943e+01,2.659683722901092645e-02
4.439999999999999858e+01,1.005974185698312040e-02
4.443999999999999773e+01,9.421761700176759305e-03
4.447999999999999687e+01,7.068492551131573542e-03
4.452000000000000313e+01,1.578206615837623311e-02
4.456000000000000227e+01,1.638928159875873217e-02
4.460000000000000142e+01,1.231949032665731643e-02
4.464000000000000057e+01,1.510778671804715451e-02
4.467999999999999972e+01,1.243967539881996216e-02
4.471999999999999886e+01,6.029831436092996169e-03
4.475999999999999801e+01,8.192747563687390391e-03
4.479999999999999716e+01,1.596670870164517558e-02
4.484000000000000341e+01,9.866754583676098922e-03
4.488000000000000256e+01,1.483363134070430321e-02
4.492000000000000171e+01,9.355942976040171333e-03
4.496000000000000085e+01,1.089221138528756981e-02
4.500000000000000000e+01,1.601308247378107827e-02
4.503999999999999915e+01,1.489813561251906310e-02
4.507999999999999829e+01,1.082084258431064740e-02
4.511999999999999744e+01,1.188694499060918321e-02
4.515999999999999659e+01,6.405466143583057187e-03
4.520000000000000284e+01,1.573191972806539315e-02
4.524000000000000199e+01,1.632847401696743694e-02
4.528000000000000114e+01,1.754790798429594831e-02
4.532000000000000028e+01,1.814318293735389317e-02
4.535999999999999943e+01,1.421730576676839657e-02
4.539999999999999858e+01,9.199627926917525525e-03
4.543999999999999773e+01,1.914575426928265267e-02
4.547999999999999687e+01,2.410308551286591619e-02
4.552000000000000313e+01,2.765685278361468963e-02
4.556000000000000227e+01,3.027469377609288623e-02
4.560000000000000142e+01,4.084174844959975043e-02
4.564000000000000057e+01,3.971717686627580790e-02
4.567999999999999972e+01,4.778885369624672613e-02
4.571999999999999886e+01,6.458913860466132528e-02
4.575999999999999801e+01,6.439788446246234865e-02
4.579999999999999716e+01,6.654416922408375179e-02
4.584000000000000341e+01,5.933701620169386237e-02
4.588000000000000256e+01,6.740541218307855020e-02
4.592000000000000171e+01,3.775026751457503243e-02
4.596000000000000085e+01,3.490576490567774692e-02
4.600000000000000000e+01,2.114902251650290638e-02
4.603999999999999915e+01,2.360310187994316480e-02
4.607999999999999829e+01,2.792707189149098296e-02
4.611999999999999744e+01,1.557125031427100334e-02
4.615999999999999659e+01,2.472615536258718563e-02
4.620000000000000284e+01,3.060691793679731418e-02
4.624000000000000199e+01,1.232566072648842714e-02
4.628000000000000114e+01,1.914035862737586968e-02
4.632000000000000028e+01,1.940743699077378606e-02
4.635999999999999943e+01,1.546508957007609701e-02
4.639999999999999858e+01,1.962780909910391905e-02
4.643999999999999773e+01,2.332221232140907832e-02
4.647999999999999687e+01,2.343070448546453674e-02
4.652000000000000313e+01,1.044462430540704645e-02
4.656000000000000227e+01,2.380152736809386729e-02
4.660000000000000142e+01,3.622246982877613125e-02
4.664000000000000057e+01,2.151966554368892753e-02
4.667999999999999972e+01,2.770405203599416236e-02
4.671999999999999886e+01,1.362339469128639666e-02
4.675999999999999801e+01,2.027404581211464732e-02
4.679999999999999716e+01,2.583285005865102596e-02
4.684000000000000341e+01,2.764985169407592480e-02
4.688000000000000256e+01,2.447801202569234447e-02
4.692000000000000171e+01,2.037020119415520331e-02
4.696000000000000085e+01,2.405567948719457977e-02
4.700000000000000000e+01,2.742870266306986216e-02
4.703999999999999915e+01,2.581287925456220156e-02
4.707999999999999829e+01,2.684631184841746593e-02
4.711999999999999744e+01,2.460557160486347150e-02
4.715999999999999659e+01,2.626112209593862989e-02
4.720000000000000284e+01,3.072180430051500710e-02
4.724000000000000199e+01,3.487002346706562228e-02
4.728000000000000114e+01,2.935299798129631724e-02
4.732000000000000028e+01,3.911147397413142907e-02
4.735999999999999943e+01,3.078720040962398471e-02
4.739999999999999858e+01,3.415319323734267165e-02
4.743999999999999773e+01,3.658319774004075570e-02
4.747999999999999687e+01,2.061868938182715577e-02
4.752000000000000313e+01,3.162065126918784524e-02
4.756000000000000227e+01,3.654259170931432876e-02
4.760000000000000142e+01,4.130793690169162063e-02
4.764000000000000057e+01,4.279909209479264287e-02
4.767999999999999972e+01,4.070429662533539550e-02
4.771999999999999886e+01,3.892054096240561006e-02
4.775999999999999801e+01,3.230379462407696051e-02
4.779999999999999716e+01,2.646572446669610140e-02
4.784000000000000341e+01,3.683841665546754712e-02
4.788000000000000256e+01,3.162241687013629676e-02
4.792000000000000171e+01,3.669374927104153417e-02
4.796000000000000085e+01,4.597310534684188876e-02
4.800000000000000000e+01,3.904024680183199036e-02
4.803999999999999915e+01,3.662716863456834393e-02
4.807999999999999829e+01,2.751053317192676817e-02
4.811999999999999744e+01,2.244603643203666593e-02
4.815999999999999659e+01,3.016293870262814689e-02
4.820000000000000284e+01,2.213525876639881734e-02
4.824000000000000199e+01,2.533017848467208552e-02
4.828000000000000114e+01,3.023903657158475908e-02
4.832000000000000028e+01,2.407969863832095173e-02
4.835999999999999943e+01,2.056957446282436236e-02
4.839999999999999858e+01,2.126745944064311125e-02
4.843999999999999773e+01,2.321163849181923089e-02
4.847999999999999687e+01,2.234923883541065776e-02
4.852000000000000313e+01,2.772128010228580228e-02
4.856000000000000227e+01,2.561034987421375794e-02
4.860000000000000142e+01,3.316321070366006624e-02
4.864000000000000057e+01,2.699791053510501582e-02
4.867999999999999972e+01,2.472885093572160450e-02
4.871999999999999886e+01,1.637973160493912811e-02
4.875999999999999801e+01,2.190314918346821307e-02
4.879999999999999716e+01,2.477585716483275691e-02
4.884000000000000341e+01,2.281553882692081286e-02
4.888000000000000256e+01,2.911608526139924588e-02
4.892000000000000171e+01,1.795734933921088947e-02
4.896000000000000085e+01,1.895646733835507428e-02
4.900000000000000000e+01,1.855190651217005285e-02
4.903999999999999915e+01,1.752306389835810857e-02
4.907999999999999829e+01,2.350804208366511286e-02
4.911999999999999744e+01,1.811303850278497482e-02
4.915999999999999659e+01,2.191416848270498832e-02
4.920000000000000284e+01,2.711744712482282854e-02
4.924000000000000199e+01,2.296717577072198216e-02
4.928000000000000114e+01,2.520719992874527471e-02
4.932000000000000028e+01,3.461691663659501733e-02
4.935999999999999943e+01,2.874965186816655013e-02
4.939999999999999858e+01,3.410494847007578684e-02
4.943999999999999773e+01,2.698909504366476392e-02
4.947999999999999687e+01,2.922524428847406153e-02
4.952000000000000313e+01,2.475778871273530066e-02
4.956000000000000227e+01,2.325126663359357651e-02
4.960000000000000142e+01,2.688799213287368026e-02
4.964000000000000057e+01,2.257407147862146302e-02
4.967999999999999972e+01,1.670056988502935727e-02
4.971999999999999886e+01,2.423193450259450432e-02
4.975999999999999801e+01,2.318913031991973184e-02
4.979999999999999716e+01,2.043086156590503966e-02
4.984000000000000341e+01,2.032175772434377872e-02
4.988000000000000256e+01,2.270593780352304566e-02
4.992000000000000171e+01,2.134821362053235597e-02
4.996000000000000085e+01,1.188395305129122913e-02
5.000000000000000000e+01,1.769510551103201448e-02
5.003999999999999915e+01,8.229254052053177823e-03
5.007999999999999829e+01,1.793580477099834813e-02
5.011999999999999744e+01,1.953581382311862444e-02
5.015999999999999659e+01,1.739391069220722064e-02
5.020000000000000284e+01,1.649824354833403367e-02
5.024000000000000199e+01,2.105756220372322421e-02
5.028000000000000114e+01,1.782209325485133861e-02
5.032000000000000028e+01,2.284744155319966274e-02
5.035999999999999943e+01,2.148091665112226295e-02
5.039999999999999858e+01,1.839890737555073541e-02
5.043999999999999773e+01,2.653942514658287274e-02
5.047999999999999687e+01,3.015862181558853078e-02
5.052000000000000313e+01,3.003589442026994086e-02
5.056000000000000227e+01,2.570360262577594743e-02
5.060000000000000142e+01,2.308517263159156480e-02
5.064000000000000057e+01,3.044222571073939773e-02
5.067999999999999972e+01,3.811022090578700811e-02
5.071999999999999886e+01,4.686855525443668624e-02
5.075999999999999801e+01,4.424685371101093334e-02
5.079999999999999716e+01,4.552132276914510473e-02
5.084000000000000341e+01,6.269469581952197279e-02
5.088000000000000256e+01,6.552631525757825204e-02
5.092000000000000171e+01,8.223040031719072718e-02
5.096000000000000085e+01,1.037659287272037489e-01
5.100000000000000000e+01,1.505531361430353932e-01
5.103999999999999915e+01,2.038864606562412474e-01
5.107999999999999829e+01,2.106109329415894738e-01
5.111999999999999744e+01,1.947320211005891810e-01
5.115999999999999659e+01,1.730847283425675787e-01
5.120000000000000284e+01,1.676480870386344024e-01
5.124000000000000199e+01,1.456873648391196208e-01
5.128000000000000114e+01,1.126583489288007917e-01
5.132000000000000028e+01,9.490470248272450671e-02
5.135999999999999943e+01,6.982387180321703024e-02
5.139999999999999858e+01,5.690081451628147685e-02
5.143999999999999773e+01,5.442085291451324164e-02
5.147999999999999687e+01,4.695189819242063384e-02
5.152000000000000313e+01,4.774372111323967743e-02
5.156000000000000227e+01,4.167599221461697201e-02
5.160000000000000142e+01,2.874871017640890855e-02
5.164000000000000057e+01,3.374674145797045000e-02
5.167999999999999972e+01,2.549415042532324899e-02
5.171999999999999886e+01,3.142575795449828457e-02
5.175999999999999801e+01,2.878313067625254754e-02
5.179999999999999716e+01,2.629552887831617877e-02
5.184000000000000341e+01,2.536586828466811522e-02
5.188000000000000256e+01,2.521474921731883811e-02
5.192000000000000171e+01,2.381573462572550426e-02
5.196000000000000085e+01,2.350701826328209509e-02
5.200000000000000000e+01,1.711813391766303302e-02
5.203999999999999915e+01,1.665181497955103146e-02
5.207999999999999829e+01,1.602875293760469902e-02
5.211999999999999744e+01,2.584876413838425174e-02
5.215999999999999659e+01,1.649470966360308197e-02
5.220000000000000284e+01,2.615710772756507652e-02
5.224000000000000199e+01,2.132182762275436350e-02
5.228000000000000114e+01,2.427966106341906960e-02
5.232000000000000028e+01,2.349551103329676136e-02
5.235999999999999943e+01,2.894567519267094574e-02
5.239999999999999858e+01,1.989815590269794487e-02
5.243999999999999773e+01,2.425541305411611087e-02
5.247999999999999687e+01,2.300012539534273051e-02
5.252000000000000313e+01,2.221159879743199103e-02
5.256000000000000227e+01,2.095455391082515564e-02
5.260000000000000142e+01,2.515241693500720396e-02
5.264000000000000057e+01,2.124365512331648914e-02
5.267999999999999972e+01,3.370137559196958316e-02
5.271999999999999886e+01,2.714089157462047305e-02
5.275999999999999801e+01,2.245007774139483325e-02
5.279999999999999716e+01,2.586411963491599270e-02
5.284000000000000341e+01,2.725083728304398406e-02
5.288000000000000256e+01,2.598671067935853438e-02
5.292000000000000171e+01,2.363053521940783330e-02
5.296000000000000085e+01,2.174110629873988662e-02
5.300000000000000000e+01,1.330383737659828966e-02
5.303999999999999915e+01,1.110086020151173324e-02
5.307999999999999829e+01,2.043208228668845494e-02
5.311999999999999744e+01,1.417443945894857234e-02
5.315999999999999659e+01,1.664515916293968223e-02
5.320000000000000284e+01,1.740030208338342113e-02
5.324000000000000199e+01,2.548088785114827060e-02
5.328000000000000114e+01,1.953140014111386449e-02
5.332000000000000028e+01,1.794563887829905835e-02
5.335999999999999943e+01,1.978832471314517089e-02
5.339999999999999858e+01,2.381241895295518538e-02
5.343999999999999773e+01,2.300333505697273531e-02
5.347999999999999687e+01,2.936380641588050289e-02
5.352000000000000313e+01,1.608252819963701397e-02
5.356000000000000227e+01,1.916770322057784540e-02
5.360000000000000142e+01,2.209608497222686693e-02
5.364000000000000057e+01,2.128243968834951302e-02
5.367999999999999972e+01,1.454445064683373805e-02
5.371999999999999886e+01,2.308175186094355708e-02
5.375999999999999801e+01,1.369197196630134693e-02
5.379999999999999716e+01,2.207155443210421369e-02
5.384000000000000341e+01,2.374738950184836564e-02
5.388000000000000256e+01,2.323998633089614102e-02
5.392000000000000171e+01,1.836702819713554452e-02
5.396000000000000085e+01,2.113124849124932078e-02
5.400000000000000000e+01,1.937403151069828910e-02
5.403999999999999915e+01,1.122481987650870983e-02
5.407999999999999829e+01,1.772736793037551703e-02
5.411999999999999744e+01,1.534384394520978655e-02
5.415999999999999659e+01,1.903869507150860244e-02
5.420000000000000284e+01,2.320025181263809383e-02
5.424000000000000199e+01,1.878749189744260278e-02
5.428000000000000114e+01,3.011764277056951447e-02
5.432000000000000028e+01,3.365287270493003829e-02
5.435999999999999943e+01,4.404586950788293154e-02
5.439999999999999858e+01,4.929389714845813786e-02
5.443999999999999773e+01,9.086094694391225191e-02
5.447999999999999687e+01,1.060833896032938178e-01
5.452000000000000313e+01,7.454098683089754873e-02
5.456000000000000227e+01,5.577977184600410587e-02
5.460000000000000142e+01,6.398479344126467572e-02
5.464000000000000057e+01,6.813599565427012894e-02
5.467999999999999972e+01,3.331633073338187423e-02
5.471999999999999886e+01,3.216572430969126539e-02
5.475999999999999801e+01,2.337606209722369738e-02
5.479999999999999716e+01,2.050887420235356778e-02
5.484000000000000341e+01,1.826425047158542966e-02
5.488000000000000256e+01,2.599496987892608441e-02
5.492000000000000171e+01,3.388061179537391054e-02
5.496000000000000085e+01,2.243621595463866913e-02
5.500000000000000000e+01,2.096715929158131722e-02
5.503999999999999915e+01,1.949714150563119225e-02
5.507999999999999829e+01,2.176727339430479732e-02
5.511999999999999744e+01,2.434820086293667737e-02
5.515999999999999659e+01,2.443408850313817660e-02
5.520000000000000284e+01,2.810424218596337120e-02
5.524000000000000199e+01,2.491472259613403475e-02
5.528000000000000114e+01,2.390654936451861931e-02
5.532000000000000028e+01,2.398856346998927414e-02
5.535999999999999943e+01,2.500488392083321035e-02
5.539999999999999858e+01,2.524083300964591672e-02
5.543999999999999773e+01,2.781400284766729486e-02
5.547999999999999687e+01,3.303615145789196711e-02
5.552000000000000313e+01,3.451621098584028297e-02
5.556000000000000227e+01,3.693057025844383862e-02
5.560000000000000142e+01,3.061468831827022022e-02
5.564000000000000057e+01,3.349472607563073329e-02
5.567999999999999972e+01,3.107387275444874544e-02
5.571999999999999886e+01,4.096652992189710185e-02
5.575999999999999801e+01,3.308791964498176280e-02
5.579999999999999716e+01,3.736693754484041174e-02
5.584000000000000341e+01,3.743621678656627177e-02
5.588000000000000256e+01,4.763668583437961207e-02
5.592000000000000171e+01,4.427463328962247258e-02
5.596000000000000085e+01,5.229080528321899957e-02
5.600000000000000000e+01,5.048556516161797902e-02
5.603999999999999915e+01,6.442317774202024894e-02
5.607999999999999829e+01,6.090127166004824510e-02
5.611999999999999744e+01,6.252239797308845048e-02
5.615999999999999659e+01,5.619266294918674048e-02
5.620000000000000284e+01,6.092938519963871091e-02
5.624000000000000199e+01,6.130047591895243508e-02
5.628000000000000114e+01,5.683829477227681642e-02
5.632000000000000028e+01,5.502506467478861935e-02
5.635999999999999943e+01,7.472222456621424591e-02
5.639999999999999858e+01,6.355420347916763968e-02
5.643999999999999773e+01,6.236147404462874522e-02
5.647999999999999687e+01,7.348223001599162030e-02
5.652000000000000313e+01,7.805502981324247136e-02
5.656000000000000227e+01,1.064764080722266498e-01
5.660000000000000142e+01,9.686213385983864776e-02
5.664000000000000057e+01,7.882934345407768828e-02
5.667999999999999972e+01,7.918933904469817320e-02
5.671999999999999886e+01,9.451276653703456765e-02
5.675999999999999801e+01,8.489442868923484375e-02
5.679999999999999716e+01,6.062238250472083700e-02
5.684000000000000341e+01,6.331649897231829416e-02
5.688000000000000256e+01,6.226848147275636930e-02
5.692000000000000171e+01,6.293411719081254407e-02
5.696000000000000085e+01,5.440182779650105244e-02
5.700000000000000000e+01,5.350661649914902063e-02
5.703999999999999915e+01,5.042806266975491392e-02
5.707999999999999829e+01,4.968667546368110005e-02
5.711999999999999744e+01,3.959147819309594141e-02
5.715999999999999659e+01,3.884803012615677120e-02
5.720000000000000284e+01,3.732415129072354232e-02
5.724000000000000199e+01,3.704627609705195279e-02
5.728000000000000114e+01,2.741458555829462060e-02
5.732000000000000028e+01,3.960501266814254323e-02
5.735999999999999943e+01,3.589467558671219360e-02
5.739999999999999858e+01,3.155978080763893745e-02
5.743999999999999773e+01,3.143259682942353000e-02
5.747999999999999687e+01,2.475742499364935040e-02
5.752000000000000313e+01,2.774574982336688173e-02
5.756000000000000227e+01,2.964187266015949965e-02
5.760000000000000142e+01,2.795171743877682830e-02
5.764000000000000057e+01,3.545741590774748042e-02
5.767999999999999972e+01,2.784173798213677650e-02
5.771999999999999886e+01,2.178380719970261781e-02
5.775999999999999801e+01,2.554524483346763339e-02
5.779999999999999716e+01,2.603215715147763620e-02
5.784000000000000341e+01,2.402394119143483678e-02
5.788000000000000256e+01,2.497638413811669247e-02
5.792000000000000171e+01,1.969258404879838456e-02
5.796000000000000085e+01,2.017527431416264380e-02
5.800000000000000000e+01,1.613639529050037158e-02
5.803999999999999915e+01,2.269627379987780580e-02
5.807999999999999829e+01,2.036994957600467976e-02
5.811999999999999744e+01,1.757492356347269483e-02
5.815999999999999659e+01,8.387766922509615197e-03
5.820000000000000284e+01,1.151403892127273072e-02
5.824000000000000199e+01,1.682155958762204459e-02
5.828000000000000114e+01,1.589282533667864261e-02
5.832000000000000028e+01,1.137778926497488678e-02
5.835999999999999943e+01,1.138219297396407190e-02
5.839999999999999858e+01,6.397375177783055054e-03
5.843999999999999773e+01,2.448167543873948013e-02
5.847999999999999687e+01,9.830170014925598138e-03
5.852000000000000313e+01,1.232435248833327335e-02
5.856000000000000227e+01,1.902620879857750205e-02
5.860000000000000142e+01,1.388013145388991565e-02
5.864000000000000057e+01,2.104746822734858760e-02
5.867999999999999972e+01,1.558747034774223689e-02
5.871999999999999886e+01,1.386750200969051605e-02
5.875999999999999801e+01,1.292584813323541769e-02
5.879999999999999716e+01,2.071237064826122673e-02
5.884000000000000341e+01,1.275395979826409766e-02
5.888000000000000256e+01,9.782610581800457381e-03
5.892000000000000171e+01,1.569531346795602009e-02
5.896000000000000085e+01,2.035988848459092254e-02
5.900000000000000000e+01,1.676174909094873752e-02
5.903999999999999915e+01,1.659186933457382565e-02
5.907999999999999829e+01,3.045006556202642725e-02
5.911999999999999744e+01,2.653688345305151020e-02
5.915999999999999659e+01,2.542843833463629202e-02
5.920000000000000284e+01,2.930704428860560901e-02
5.924000000000000199e+01,3.427570820558661219e-02
5.928000000000000114e+01,2.661701766734828056e-02
5.932000000000000028e+01,2.488065227047872238e-02
5.935999999999999943e+01,2.049322875852974124e-02
5.939999999999999858e+01,1.641645957117205887e-02
5.943999999999999773e+01,1.810613189318306324e-02
5.947999999999999687e+01,1.761238115439135374e-02
5.952000000000000313e+01,1.540284504936082800e-02
5.956000000000000227e+01,1.147752225794783192e-02
5.960000000000000142e+01,1.534507142572833459e-02
5.964000000000000057e+01,1.578215487957829524e-02
5.967999999999999972e+01,5.462426735602848860e-03
5.971999999999999886e+01,9.170753453156989601e-03
5.975999999999999801e+01,6.019257721827869258e-03
5.979999999999999716e+01,5.828357530329856574e-03
5.984000000000000341e+01,8.442171886950041240e-03
5.988000000000000256e+01,9.963707682315584707e-03
5.992000000000000171e+01,8.054768522745179085e-03
5.996000000000000085e+01,1.845919991658174705e-02
