2.003999999999999915e+01,1.500624808093485585e-02
2.007999999999999829e+01,2.059564172165159399e-02
2.012000000000000099e+01,2.021555714518800950e-02
2.016000000000000014e+01,1.639855094700442412e-02
2.019999999999999929e+01,1.818947021833360045e-02
2.023999999999999844e+01,1.591032687506670207e-02
2.028000000000000114e+01,2.005314367416266563e-02
2.032000000000000028e+01,2.347248994653475598e-02
2.035999999999999943e+01,1.721396544093765912e-02
2.039999999999999858e+01,1.611111991151091896e-02
2.044000000000000128e+01,2.133978276709699515e-02
2.048000000000000043e+01,2.439779615199023921e-02
2.051999999999999957e+01,2.383798358090325267e-02
2.055999999999999872e+01,2.038393206713907252e-02
2.060000000000000142e+01,1.412608927024492679e-02
2.064000000000000057e+01,1.854127775774140618e-02
2.067999999999999972e+01,2.277567921711686622e-02
2.071999999999999886e+01,2.836691697364532305e-02
2.076000000000000156e+01,2.373758488195184049e-02
2.080000000000000071e+01,2.553020227833433312e-02
2.083999999999999986e+01,2.252915693384933277e-02
2.087999999999999901e+01,2.133718700381493499e-02
2.092000000000000171e+01,1.390437702806523665e-02
2.096000000000000085e+01,2.311419140134502587e-02
2.100000000000000000e+01,1.884728576115424215e-02
2.103999999999999915e+01,1.711304009003541959e-02
2.107999999999999829e+01,2.469508950152244850e-02
2.112000000000000099e+01,2.069983450212379075e-02
2.116000000000000014e+01,2.484504271780692275e-02
2.119999999999999929e+01,2.582465344052041825e-02
2.123999999999999844e+01,2.363866585070382650e-02
2.128000000000000114e+01,1.910111544076790666e-02
2.132000000000000028e+01,3.428143029348627857e-02
2.135999999999999943e+01,5.127081072592885175e-02
2.139999999999999858e+01,8.083262493237836077e-02
2.144000000000000128e+01,1.035204490850701875e-01
2.148000000000000043e+01,1.281077848379125195e-01
2.151999999999999957e+01,8.920038097631412255e-02
2.155999999999999872e+01,6.277495913137262629e-02
2.160000000000000142e+01,3.725411315771291060e-02
2.164000000000000057e+01,2.846632607966156220e-02
2.167999999999999972e+01,2.980885810277947648e-02
2.171999999999999886e+01,2.084035212911469759e-02
2.176000000000000156e+01,2.453472103252001338e-02
2.180000000000000071e+01,2.045060771504355127e-02
2.183999999999999986e+01,1.862779253810459973e-02
2.187999999999999901e+01,2.503587430326574895e-02
2.192000000000000171e+01,1.263075693769642564e-02
2.196000000000000085e+01,2.193335826218722681e-02
2.200000000000000000e+01,2.996976376376425319e-02
2.203999999999999915e+01,2.154462813273535712e-02
2.207999999999999829e+01,2.125993686689598566e-02
2.212000000000000099e+01,2.359833192110212877e-02
2.216000000000000014e+01,1.544478300514380391e-02
2.219999999999999929e+01,2.311979671986726451e-02
2.223999999999999844e+01,1.134846539362049066e-02
2.228000000000000114e+01,1.287313764391241448e-02
2.232000000000000028e+01,1.322205599391425637e-02
2.235999999999999943e+01,1.013400764636724835e-02
2.239999999999999858e+01,2.106554824954083235e-02
2.244000000000000128e+01,1.752540606487748565e-02
2.248000000000000043e+01,2.366332419463306608e-02
2.251999999999999957e+01,1.695763052137346655e-02
2.255999999999999872e+01,1.622160787998675260e-02
2.260000000000000142e+01,7.707086626507555181e-03
2.264000000000000057e+01,1.701098552891864429e-02
2.267999999999999972e+01,1.998355984584304981e-02
2.271999999999999886e+01,1.915736617274214210e-02
2.276000000000000156e+01,1.941662156188343757e-02
2.280000000000000071e+01,1.985684040262719954e-02
2.283999999999999986e+01,1.830725837682257995e-02
2.287999999999999901e+01,2.553124367875239317e-02
2.292000000000000171e+01,2.117788768957256165e-02
2.296000000000000085e+01,1.175948008549330612e-02
2.300000000000000000e+01,2.133531548966253327e-02
2.303999999999999915e+01,1.625855885437103160e-02
2.307999999999999829e+01,1.443800822342774723e-02
2.312000000000000099e+01,1.451693559065323803e-02
2.316000000000000014e+01,1.369143728414123906e-02
2.319999999999999929e+01,2.534788739230438293e-02
2.323999999999999844e+01,1.357823888973530915e-02
2.328000000000000114e+01,2.062193070027507416e-02
2.332000000000000028e+01,6.681631196875618614e-03
2.335999999999999943e+01,1.607709432286028028e-02
2.339999999999999858e+01,1.063906107512358444e-02
2.344000000000000128e+01,1.379368672305802089e-02
2.348000000000000043e+01,6.546789834438422780e-03
2.351999999999999957e+01,1.286721655330478123e-02
2.355999999999999872e+01,2.063486985963442627e-02
2.360000000000000142e+01,1.257408942425292282e-02
2.364000000000000057e+01,1.030206093439411594e-02
2.367999999999999972e+01,1.481371684068462889e-02
2.371999999999999886e+01,2.502003276395194098e-03
2.376000000000000156e+01,1.542546220715102986e-02
2.380000000000000071e+01,1.387721048501196035e-02
2.383999999999999986e+01,1.169586459393008246e-02
2.387999999999999901e+01,1.249936287866204761e-02
2.392000000000000171e+01,1.104169273138748061e-02
2.396000000000000085e+01,1.130258641329473512e-02
2.400000000000000000e+01,1.509101268698173105e-02
2.403999999999999915e+01,1.290988042655561753e-02
2.407999999999999829e+01,1.895960003240043656e-02
2.412000000000000099e+01,9.271323721355055267e-03
2.416000000000000014e+01,1.161273375999235385e-02
2.419999999999999929e+01,1.124072723415984673e-02
2.423999999999999844e+01,1.810463602616889725e-02
2.428000000000000114e+01,8.687854748398032845e-03
2.432000000000000028e+01,1.102941110474400799e-02
2.435999999999999943e+01,1.445638374091097814e-02
2.439999999999999858e+01,8.928990656358472278e-03
2.444000000000000128e+01,9.552127042549740307e-03
2.448000000000000043e+01,1.379323466490230653e-02
2.451999999999999957e+01,2.138096726653188756e-02
2.455999999999999872e+01,1.558235539291150801e-02
2.460000000000000142e+01,1.928086343878604100e-02
2.464000000000000057e+01,1.266827365995911239e-02
2.467999999999999972e+01,1.220620843451271711e-02
2.471999999999999886e+01,5.503225305100477478e-03
2.476000000000000156e+01,9.925431440883675238e-03
2.480000000000000071e+01,1.923188096385493318e-02
2.483999999999999986e+01,6.830720196723260272e-03
2.487999999999999901e+01,1.224793369009200862e-02
2.492000000000000171e+01,1.757472176103124992e-02
2.496000000000000085e+01,7.977533016280458078e-03
2.500000000000000000e+01,1.574647367780890317e-02
2.503999999999999915e+01,1.890256250282989700e-02
2.507999999999999829e+01,1.464189581943713125e-02
2.512000000000000099e+01,1.535591444585607604e-02
2.516000000000000014e+01,5.758824593286586586e-03
2.519999999999999929e+01,1.325651461186991981e-02
2.523999999999999844e+01,1.261385801093394855e-02
2.528000000000000114e+01,9.076865759177935727e-03
2.532000000000000028e+01,1.060500319853892835e-02
2.535999999999999943e+01,1.557019688551365168e-02
2.539999999999999858e+01,5.611404741632516208e-03
2.544000000000000128e+01,8.948551429007987890e-03
2.548000000000000043e+01,1.382333384404922649e-02
2.551999999999999957e+01,1.372346067142490508e-02
2.555999999999999872e+01,7.834894779603160039e-03
2.560000000000000142e+01,9.815355694320340371e-03
2.564000000000000057e+01,1.668004278545438118e-02
2.567999999999999972e+01,1.214822899401801770e-02
2.571999999999999886e+01,9.334942971099971856e-03
2.576000000000000156e+01,9.868256521082408722e-03
2.580000000000000071e+01,0.000000000000000000e+00
2.583999999999999986e+01,8.221443507289084157e-03
2.587999999999999901e+01,1.553840561072449347e-02
2.592000000000000171e+01,8.745407540988478154e-03
2.596000000000000085e+01,1.615282243930146397e-02
2.600000000000000000e+01,1.759063864503537106e-02
2.603999999999999915e+01,1.179257663111863211e-02
2.607999999999999829e+01,9.612453070941938058e-03
2.612000000000000099e+01,1.720076372428372066e-02
2.616000000000000014e+01,5.975788373478702065e-03
2.619999999999999929e+01,1.211691784213692231e-02
2.623999999999999844e+01,1.427831024122726625e-02
2.628000000000000114e+01,1.164592843921779218e-02
2.632000000000000028e+01,8.832644051052229023e-03
2.635999999999999943e+01,9.546843900595061369e-03
2.639999999999999858e+01,1.188910910701927032e-02
2.644000000000000128e+01,7.719075731050951267e-03
2.648000000000000043e+01,1.530733573293075606e-02
2.651999999999999957e+01,1.584060463864938803e-02
2.655999999999999872e+01,1.356996014671887039e-02
2.660000000000000142e+01,1.175154668546402742e-02
2.664000000000000057e+01,1.843527807592985901e-02
2.667999999999999972e+01,8.114682390120484326e-03
2.671999999999999886e+01,1.118044778873861049e-02
2.676000000000000156e+01,8.547944360451392720e-03
2.680000000000000071e+01,1.423668554742676083e-02
2.683999999999999986e+01,4.639617482935405601e-03
2.687999999999999901e+01,1.729285817720631682e-02
2.692000000000000171e+01,6.881718777607776991e-03
2.696000000000000085e+01,1.618832908262849563e-02
2.700000000000000000e+01,1.328437514760983686e-02
2.703999999999999915e+01,1.426968543420221655e-02
2.707999999999999829e+01,5.486538777548261026e-03
2.712000000000000099e+01,8.461672385773855512e-03
2.716000000000000014e+01,7.999740949186845418e-03
2.719999999999999929e+01,1.079393110221328438e-02
2.723999999999999844e+01,2.915176242671888886e-03
2.728000000000000114e+01,4.352589433854003528e-03
2.732000000000000028e+01,1.221181852474536450e-02
2.735999999999999943e+01,1.708622086856107988e-02
2.739999999999999858e+01,1.074498404691936852e-02
2.744000000000000128e+01,9.378385000578437838e-03
2.748000000000000043e+01,9.911174620308394953e-03
2.751999999999999957e+01,9.991691629742515540e-03
2.755999999999999872e+01,1.350921981096111710e-02
2.760000000000000142e+01,1.051442564253176649e-02
2.764000000000000057e+01,1.584085887859384284e-02
2.767999999999999972e+01,9.228059379411391455e-03
2.771999999999999886e+01,1.654429135029072268e-02
2.776000000000000156e+01,1.110725263483309036e-02
2.780000000000000071e+01,2.285538899820161243e-02
2.783999999999999986e+01,1.370988991639861439e-02
2.787999999999999901e+01,8.001395449895950043e-03
2.792000000000000171e+01,6.182147174672549678e-03
2.796000000000000085e+01,1.539757412069420704e-02
2.800000000000000000e+01,1.710573725127537831e-02
2.803999999999999915e+01,6.693763312351305554e-03
2.807999999999999829e+01,1.880341898269733206e-02
2.812000000000000099e+01,8.481809326113401784e-03
2.816000000000000014e+01,1.851106414108830492e-02
2.819999999999999929e+01,1.036013050808466673e-02
2.823999999999999844e+01,8.450096966682254032e-03
2.828000000000000114e+01,1.323320509286016015e-02
2.832000000000000028e+01,1.611684855180473691e-02
2.835999999999999943e+01,9.865148195321450653e-03
2.839999999999999858e+01,1.609528971064413949e-02
2.844000000000000128e+01,4.868825693488538532e-03
2.848000000000000043e+01,5.310165597046576612e-03
2.851999999999999957e+01,1.389181791654847675e-02
2.855999999999999872e+01,9.267940762963182769e-03
2.860000000000000142e+01,1.604051963408604023e-02
2.864000000000000057e+01,2.064228184416759190e-02
2.867999999999999972e+01,1.384748170463878311e-02
2.871999999999999886e+01,9.766081136775715127e-03
2.876000000000000156e+01,8.669424758341507872e-03
2.880000000000000071e+01,1.435634787230858148e-02
2.883999999999999986e+01,1.705841391546035826e-02
2.887999999999999901e+01,1.107736788443697794e-02
2.892000000000000171e+01,1.441245630215520421e-02
2.896000000000000085e+01,1.747613956361428536e-02
2.900000000000000000e+01,1.963527749549833987e-02
2.903999999999999915e+01,1.066919113905099616e-02
2.907999999999999829e+01,1.572255686671534397e-02
2.912000000000000099e+01,1.625343564180590020e-02
2.916000000000000014e+01,8.191645084905488025e-03
2.919999999999999929e+01,1.668186156845710699e-02
2.923999999999999844e+01,1.440864358230641538e-02
2.928000000000000114e+01,1.539150456862151822e-02
2.932000000000000028e+01,1.809281956300710231e-02
2.935999999999999943e+01,1.229190960670698690e-02
2.939999999999999858e+01,2.123403301089770920e-02
2.944000000000000128e+01,9.372936666603593620e-03
2.948000000000000043e+01,1.107904181527623495e-02
2.951999999999999957e+01,1.314686968759782269e-02
2.955999999999999872e+01,1.838032231635353814e-02
2.960000000000000142e+01,1.710141161743473914e-02
2.964000000000000057e+01,1.473704551775644085e-02
2.967999999999999972e+01,2.440225266840747101e-02
2.971999999999999886e+01,2.258042768176639348e-02
2.976000000000000156e+01,2.600453837323912082e-02
2.980000000000000071e+01,1.414277916576577726e-02
2.983999999999999986e+01,2.127512282168996308e-02
2.987999999999999901e+01,2.117150958015246928e-02
2.992000000000000171e+01,2.450485915632813136e-02
2.996000000000000085e+01,2.349660152737467408e-02
3.000000000000000000e+01,2.574440811879743357e-02
3.003999999999999915e+01,3.757967164859069703e-02
3.007999999999999829e+01,3.222964148124775330e-02
3.012000000000000099e+01,3.366316376080853018e-02
3.016000000000000014e+01,2.985058994635831492e-02
3.019999999999999929e+01,3.833892416527430458e-02
3.023999999999999844e+01,4.981197224987946731e-02
3.028000000000000114e+01,6.327480011042621588e-02
3.032000000000000028e+01,8.008413411397277692e-02
3.035999999999999943e+01,1.003304219200666508e-01
3.039999999999999858e+01,1.281742927481118455e-01
3.044000000000000128e+01,2.073023611876763650e-01
3.048000000000000043e+01,3.485684439121508049e-01
3.051999999999999957e+01,6.170049965805738390e-01
3.055999999999999872e+01,7.589040344756512457e-01
3.060000000000000142e+01,6.640088607452599989e-01
3.064000000000000057e+01,5.194573778441392564e-01
3.067999999999999972e+01,3.255209303900525875e-01
3.071999999999999886e+01,1.927275590333255573e-01
3.076000000000000156e+01,1.266850686590889619e-01
3.080000000000000071e+01,1.025201266931025784e-01
3.083999999999999986e+01,7.283772926325232655e-02
3.087999999999999901e+01,6.024999532695932830e-02
3.092000000000000171e+01,5.525983375833075362e-02
3.096000000000000085e+01,5.008867453452443830e-02
3.100000000000000000e+01,5.142970428996639781e-02
3.103999999999999915e+01,4.598699577623089479e-02
3.107999999999999829e+01,3.864476604558542833e-02
3.112000000000000099e+01,3.691023804442736950e-02
3.116000000000000014e+01,3.942668376657725016e-02
3.119999999999999929e+01,3.262683052628559399e-02
3.123999999999999844e+01,4.554463929763630931e-02
3.128000000000000114e+01,3.557887560123547399e-02
3.132000000000000028e+01,3.266798520224617475e-02
3.135999999999999943e+01,3.780690055129511812e-02
3.139999999999999858e+01,3.779014287906450054e-02
3.144000000000000128e+01,3.931089881998031665e-02
3.148000000000000043e+01,4.689159150987839975e-02
3.151999999999999957e+01,4.696494826300920411e-02
3.155999999999999872e+01,5.192240989759816516e-02
3.160000000000000142e+01,4.973432787273050770e-02
3.164000000000000057e+01,4.745568273926396852e-02
3.167999999999999972e+01,4.400109192834292249e-02
3.171999999999999886e+01,4.515925728331410954e-02
3.176000000000000156e+01,4.794537817405543356e-02
3.180000000000000071e+01,5.272124769743802286e-02
3.183999999999999986e+01,4.799990818719472585e-02
3.187999999999999901e+01,4.789132156460154666e-02
3.192000000000000171e+01,4.995337807418392950e-02
3.196000000000000085e+01,4.921141054544541510e-02
3.200000000000000000e+01,3.743460656000411474e-02
3.203999999999999915e+01,3.795867290814450984e-02
3.207999999999999829e+01,3.368884621890803899e-02
3.211999999999999744e+01,4.452379107647794904e-02
3.215999999999999659e+01,3.726891482868467664e-02
3.220000000000000284e+01,3.706889384797130288e-02
3.224000000000000199e+01,2.899972826196938608e-02
3.228000000000000114e+01,3.431680984148110375e-02
3.232000000000000028e+01,3.429730259160519018e-02
3.235999999999999943e+01,3.472990835568838530e-02
3.239999999999999858e+01,3.733314741722074115e-02
3.243999999999999773e+01,2.401732313505647309e-02
3.247999999999999687e+01,3.313258983139584501e-02
3.252000000000000313e+01,3.202704572871689637e-02
3.256000000000000227e+01,2.829836225252485571e-02
3.260000000000000142e+01,3.460932565836895292e-02
3.264000000000000057e+01,4.046791155016916247e-02
3.267999999999999972e+01,5.347179135343080314e-02
3.271999999999999886e+01,6.358118306761346983e-02
3.275999999999999801e+01,6.907756477010602858e-02
3.279999999999999716e+01,1.075875029502453978e-01
3.284000000000000341e+01,4.209702299230663192e-01
3.288000000000000256e+01,1.000000000000000000e+00
3.292000000000000171e+01,8.449497727815743486e-01
3.296000000000000085e+01,6.409667766907719555e-01
3.300000000000000000e+01,5.909269495471115574e-01
3.303999999999999915e+01,3.231774898765625292e-01
3.307999999999999829e+01,1.044509617488395270e-01
3.311999999999999744e+01,5.549608395346387890e-02
3.315999999999999659e+01,4.326314290311519817e-02
3.320000000000000284e+01,4.296925450266109864e-02
3.324000000000000199e+01,3.932862496330153529e-02
3.328000000000000114e+01,3.333618673566311058e-02
3.332000000000000028e+01,3.222781732881940114e-02
3.335999999999999943e+01,3.428499482015933547e-02
3.339999999999999858e+01,2.621179196125714844e-02
3.343999999999999773e+01,3.043943075131806675e-02
3.347999999999999687e+01,3.077763261046274207e-02
3.352000000000000313e+01,2.596011801161966781e-02
3.356000000000000227e+01,2.937326104320141587e-02
3.360000000000000142e+01,3.504746126452430721e-02
3.364000000000000057e+01,3.221934884218456696e-02
3.367999999999999972e+01,2.532089843291009112e-02
3.371999999999999886e+01,3.316539287158901117e-02
3.375999999999999801e+01,3.323116004078710550e-02
3.379999999999999716e+01,2.850299893150544037e-02
3.384000000000000341e+01,3.426670169342303784e-02
3.388000000000000256e+01,3.559826845417150137e-02
3.392000000000000171e+01,3.973357672282441799e-02
3.396000000000000085e+01,3.997943822583470419e-02
3.400000000000000000e+01,4.049648218260645804e-02
3.403999999999999915e+01,3.386793248672913953e-02
3.407999999999999829e+01,4.008290220149399868e-02
3.411999999999999744e+01,3.924272510359667898e-02
3.415999999999999659e+01,3.261367908098758428e-02
3.420000000000000284e+01,4.054667111338967900e-02
3.424000000000000199e+01,4.576604087162848555e-02
3.428000000000000114e+01,3.687527916854467513e-02
3.432000000000000028e+01,4.137072283338742024e-02
3.435999999999999943e+01,4.396657807735658563e-02
3.439999999999999858e+01,4.167804427033008213e-02
3.443999999999999773e+01,4.463535025283512508e-02
3.447999999999999687e+01,4.343185337808685986e-02
3.452000000000000313e+01,4.114280111619421365e-02
3.456000000000000227e+01,4.002940462529482740e-02
3.460000000000000142e+01,3.963942069028859178e-02
3.464000000000000057e+01,3.644535780640575928e-02
3.467999999999999972e+01,3.750219652450411528e-02
3.471999999999999886e+01,3.837796054873473389e-02
3.475999999999999801e+01,4.151475799545108203e-02
3.479999999999999716e+01,3.379755857444326911e-02
3.484000000000000341e+01,3.123574226825378067e-02
3.488000000000000256e+01,3.346751434089036831e-02
3.492000000000000171e+01,3.597045001739616887e-02
3.496000000000000085e+01,4.181979676788017547e-02
3.500000000000000000e+01,3.979994236339891994e-02
3.503999999999999915e+01,3.687541887570227467e-02
3.507999999999999829e+01,4.055344925118756216e-02
3.511999999999999744e+01,4.106559692663822037e-02
3.515999999999999659e+01,4.103486697662356297e-02
3.520000000000000284e+01,4.172753728909402854e-02
3.524000000000000199e+01,5.535415172405918488e-02
3.528000000000000114e+01,6.699071040915058339e-02
3.532000000000000028e+01,8.577250891470832028e-02
3.535999999999999943e+01,1.162219703765681594e-01
3.539999999999999858e+01,1.829410802925255375e-01
3.543999999999999773e+01,2.158322665343769819e-01
3.547999999999999687e+01,1.866756028008888513e-01
3.552000000000000313e+01,1.587850236480491672e-01
3.556000000000000227e+01,1.175983231199212026e-01
3.560000000000000142e+01,9.015959565021447464e-02
3.564000000000000057e+01,7.764467064777148819e-02
3.567999999999999972e+01,5.472797314281229591e-02
3.571999999999999886e+01,5.379005783641403748e-02
3.575999999999999801e+01,4.091274424354376937e-02
3.579999999999999716e+01,3.970308459180974664e-02
3.584000000000000341e+01,4.817121152127705475e-02
3.588000000000000256e+01,4.569487097577792922e-02
3.592000000000000171e+01,4.412281289889022351e-02
3.596000000000000085e+01,4.770611498912594867e-02
3.600000000000000000e+01,5.210324942974410567e-02
3.603999999999999915e+01,4.908340380236281969e-02
3.607999999999999829e+01,5.718851550454651100e-02
3.611999999999999744e+01,5.425870633529267240e-02
3.615999999999999659e+01,6.462461635507296687e-02
3.620000000000000284e+01,8.819579626521895088e-02
3.624000000000000199e+01,1.540062070398144911e-01
3.628000000000000114e+01,1.880689919490152184e-01
3.632000000000000028e+01,1.415419714549802643e-01
3.635999999999999943e+01,1.256767740408986922e-01
3.639999999999999858e+01,8.955090514944734348e-02
3.643999999999999773e+01,5.894218050682477339e-02
3.647999999999999687e+01,4.343813807891057366e-02
3.652000000000000313e+01,3.616469263394189726e-02
3.656000000000000227e+01,3.712184335235814425e-02
3.660000000000000142e+01,3.681249910826653315e-02
3.664000000000000057e+01,3.505576212389065194e-02
3.667999999999999972e+01,3.257521941253341963e-02
3.671999999999999886e+01,2.602427642764101184e-02
3.675999999999999801e+01,2.779437398743880155e-02
3.679999999999999716e+01,2.820752400781814662e-02
3.684000000000000341e+01,2.482161673330450513e-02
3.688000000000000256e+01,2.035010571757512460e-02
3.692000000000000171e+01,2.700353482063953814e-02
3.696000000000000085e+01,2.370740759079038168e-02
3.700000000000000000e+01,2.158688613874203480e-02
3.703999999999999915e+01,2.525484207943825068e-02
3.707999999999999829e+01,2.123445120623743132e-02
3.711999999999999744e+01,2.454016023149484596e-02
3.715999999999999659e+01,2.287097517697197699e-02
3.720000000000000284e+01,2.156335549047591962e-02
3.724000000000000199e+01,1.573308248061817613e-02
3.728000000000000114e+01,2.247491787923625028e-02
3.732000000000000028e+01,1.800091086138496527e-02
3.735999999999999943e+01,1.397891441242633988e-02
3.739999999999999858e+01,1.619763037570709843e-02
3.743999999999999773e+01,1.778297351946430890e-02
3.747999999999999687e+01,1.972987629432462406e-02
3.752000000000000313e+01,1.561649586406475658e-02
3.756000000000000227e+01,2.452746050089661678e-02
3.760000000000000142e+01,3.081518249958843658e-02
3.764000000000000057e+01,4.488123613799119976e-02
3.767999999999999972e+01,4.691740367190849748e-02
3.771999999999999886e+01,3.764727211464322099e-02
3.775999999999999801e+01,3.090945795014755221e-02
3.779999999999999716e+01,2.742754819172438935e-02
3.784000000000000341e+01,2.376449981371199158e-02
3.788000000000000256e+01,2.371914811908273565e-02
3.792000000000000171e+01,1.734215958640419539e-02
3.796000000000000085e+01,1.313569043226088702e-02
3.800000000000000000e+01,1.951144839412950055e-02
3.803999999999999915e+01,1.367641591725198870e-02
3.807999999999999829e+01,7.841136861637914082e-03
3.811999999999999744e+01,1.394480964997302751e-02
3.815999999999999659e+01,7.566344103556649388e-03
3.820000000000000284e+01,1.366951963661595069e-02
3.824000000000000199e+01,1.099894283922769195e-02
3.828000000000000114e+01,1.456906042374712593e-02
3.832000000000000028e+01,1.415919343141804933e-02
3.835999999999999943e+01,1.881418895347254303e-02
3.839999999999999858e+01,1.894650738490990041e-02
3.843999999999999773e+01,1.184269353293179207e-02
3.847999999999999687e+01,1.523064848313122714e-02
3.852000000000000313e+01,6.950494034505758263e-03
3.856000000000000227e+01,1.811650618062150483e-02
3.860000000000000142e+01,1.372512268715042963e-02
3.864000000000000057e+01,1.295142030541240885e-02
3.867999999999999972e+01,3.494405057168896260e-03
3.871999999999999886e+01,1.447848639561166717e-02
3.875999999999999801e+01,1.270907166857121809e-02
3.879999999999999716e+01,1.075849865248875228e-02
3.884000000000000341e+01,2.083731120737383063e-02
3.888000000000000256e+01,1.906711002917333558e-02
3.892000000000000171e+01,1.449274220911940525e-02
3.896000000000000085e+01,2.267134533421479373e-02
3.900000000000000000e+01,4.477874881330209944e-02
3.903999999999999915e+01,1.457569598263119270e-01
3.907999999999999829e+01,2.832760893311742079e-01
3.911999999999999744e+01,2.304009024265408490e-01
3.915999999999999659e+01,1.509335939573061558e-01
3.920000000000000284e+01,1.487090171198092725e-01
3.924000000000000199e+01,7.475852600373465717e-02
3.928000000000000114e+01,3.137934966058665565e-02
3.932000000000000028e+01,1.983776597831573771e-02
3.935999999999999943e+01,1.191384865568829825e-02
3.939999999999999858e+01,1.321540257783522521e-02
3.943999999999999773e+01,9.994258100791167734e-03
3.947999999999999687e+01,1.229019558597545247e-02
3.952000000000000313e+01,9.249396720876360348e-03
3.956000000000000227e+01,1.317285384461134787e-02
3.960000000000000142e+01,1.058374275053887599e-02
3.964000000000000057e+01,9.893771176135530629e-03
3.967999999999999972e+01,1.372594419597067752e-02
3.971999999999999886e+01,1.529662505738926294e-02
3.975999999999999801e+01,1.243504944224055851e-02
3.979999999999999716e+01,2.585391824667919447e-02
3.984000000000000341e+01,1.883114813332646686e-02
3.988000000000000256e+01,1.379796110138760239e-02
3.992000000000000171e+01,1.735709530618075383e-02
3.996000000000000085e+01,1.756935068589904683e-02
4.000000000000000000e+01,1.316844771347097480e-02
4.003999999999999915e+01,1.356102739656038676e-02
4.007999999999999829e+01,1.359152560645494369e-02
4.011999999999999744e+01,1.154142042054350122e-02
4.015999999999999659e+01,1.564152261808680888e-02
4.020000000000000284e+01,1.250545647155126491e-02
4.024000000000000199e+01,1.099717211395309993e-02
4.028000000000000114e+01,1.310653526610618125e-02
4.032000000000000028e+01,1.214035765446341494e-02
4.035999999999999943e+01,1.207837154021301242e-02
4.039999999999999858e+01,7.855461273750575374e-03
4.043999999999999773e+01,1.303889790170455372e-02
4.047999999999999687e+01,5.016560827532794663e-03
4.052000000000000313e+01,8.933126423678305547e-03
4.056000000000000227e+01,1.348253398208976682e-02
4.060000000000000142e+01,8.896346939550596467e-03
4.064000000000000057e+01,8.199145468041645068e-03
4.067999999999999972e+01,1.066734091513898454e-02
4.071999999999999886e+01,1.602958702395829507e-02
4.075999999999999801e+01,1.533148354325432339e-02
4.079999999999999716e+01,7.035405508631814402e-03
4.084000000000000341e+01,1.330122948197219081e-02
4.088000000000000256e+01,1.459208315640282347e-02
4.092000000000000171e+01,9.641687004852208392e-03
4.096000000000000085e+01,1.210776055305666857e-02
4.100000000000000000e+01,1.059379461385701049e-02
4.103999999999999915e+01,1.441598171580908173e-02
4.107999999999999829e+01,9.283461340299954678e-03
4.111999999999999744e+01,1.220054674005930685e-02
4.115999999999999659e+01,7.790995647179093514e-03
4.120000000000000284e+01,4.376067320028023157e-03
4.124000000000000199e+01,2.408003334585204300e-03
4.128000000000000114e+01,7.494608575981529658e-03
4.132000000000000028e+01,1.276179781245406937e-02
4.135999999999999943e+01,1.052144950026850413e-02
4.139999999999999858e+01,1.081334400084421436e-02
4.143999999999999773e+01,1.228075330800170242e-02
4.147999999999999687e+01,7.145107398898768551e-03
4.152000000000000313e+01,1.340565279645229528e-02
4.156000000000000227e+01,1.170641415200542566e-02
4.160000000000000142e+01,1.434838380467567780e-02
4.164000000000000057e+01,1.481927043913178893e-02
4.167999999999999972e+01,2.225436962571381364e-02
4.171999999999999886e+01,1.883533016059968021e-02
4.175999999999999801e+01,2.138556833830321594e-02
4.179999999999999716e+01,2.664893809137850594e-02
4.184000000000000341e+01,2.241489392069494907e-02
4.188000000000000256e+01,3.066241542991816893e-02
4.192000000000000171e+01,2.706086091945540326e-02
4.196000000000000085e+01,2.174045922983385004e-02
4.200000000000000000e+01,1.850004566402595543e-02
4.203999999999999915e+01,1.345033480083028879e-02
4.207999999999999829e+01,8.942986277492450883e-03
4.211999999999999744e+01,7.510556689473789523e-03
4.215999999999999659e+01,1.259008742331506163e-02
4.220000000000000284e+01,1.115699666791426965e-02
4.224000000000000199e+01,1.225613151450353697e-02
4.228000000000000114e+01,1.697287289281746922e-02
4.232000000000000028e+01,1.427250553212847106e-02
4.235999999999999943e+01,8.225210172732715444e-03
4.239999999999999858e+01,5.885967365487961706e-03
4.243999999999999773e+01,1.186764872533789886e-02
4.247999999999999687e+01,1.196984221277753481e-02
4.252000000000000313e+01,1.243349206669329930e-02
4.256000000000000227e+01,1.163052484358194187e-02
4.260000000000000142e+01,8.113764058156123019e-03
4.264000000000000057e+01,1.020446896878457119e-02
4.267999999999999972e+01,1.627456613196401683e-02
4.271999999999999886e+01,1.140005567532615532e-02
4.275999999999999801e+01,6.344305793153624980e-03
4.279999999999999716e+01,7.257812245224913930e-03
4.284000000000000341e+01,1.585909531503008549e-02
4.288000000000000256e+01,1.315397357034407168e-02
4.292000000000000171e+01,1.352375436976664853e-02
4.296000000000000085e+01,1.154152814726169124e-02
4.300000000000000000e+01,1.145837260134120392e-02
4.303999999999999915e+01,1.155576580939404047e-02
4.307999999999999829e+01,1.554209459528468201e-02
4.311999999999999744e+01,1.337757695847274254e-02
4.315999999999999659e+01,1.021777538854953121e-02
4.320000000000000284e+01,1.320811891548064054e-02
4.324000000000000199e+01,1.520317687017938915e-02
4.328000000000000114e+01,1.140917904036515065e-02
4.332000000000000028e+01,5.263166812578577020e-03
4.335999999999999943e+01,8.613890130397544240e-03
4.339999999999999858e+01,1.060753068131029160e-02
4.343999999999999773e+01,7.807045439655099089e-03
4.347999999999999687e+01,1.160894195347017717e-02
4.352000000000000313e+01,1.034536559827249971e-02
4.356000000000000227e+01,9.805018217408789302e-03
4.360000000000000142e+01,1.478166838403865285e-02
4.364000000000000057e+01,1.234118276616802921e-02
4.367999999999999972e+01,1.071437214305773038e-02
4.371999999999999886e+01,1.116751440265819663e-02
4.375999999999999801e+01,1.270567545522168981e-02
4.379999999999999716e+01,1.813275733353339123e-02
4.384000000000000341e+01,1.532866301757065258e-02
4.388000000000000256e+01,1.713707572109846727e-02
4.392000000000000171e+01,1.324686800625269646e-02
4.396000000000000085e+01,1.007988107013564096e-02
4.400000000000000000e+01,7.636114093186658312e-03
4.403999999999999915e+01,7.995881275327614696e-03
4.407999999999999829e+01,9.712006131271135045e-03
4.411999999999999744e+01,1.016148194732680206e-02
4.415999999999999659e+01,5.545471781401181341e-03
4.420000000000000284e+01,1.386322215641112854e-02
4.424000000000000199e+01,8.432430915957753528e-03
4.428000000000000114e+01,9.513556560656106012e-03
4.432000000000000028e+01,1.068475625428283796e-02
4.435999999999999943e+01,8.328090012960387770e-03
4.439999999999999858e+01,9.679435345762332082e-03
4.443999999999999773e+01,1.274892489275376330e-02
4.447999999999999687e+01,1.455175802381255580e-02
4.452000000000000313e+01,8.846988860931241302e-03
4.456000000000000227e+01,1.480969415542972636e-02
4.460000000000000142e+01,1.145582593470854775e-02
4.464000000000000057e+01,1.615149136792903839e-02
4.467999999999999972e+01,1.541986624844962281e-02
4.471999999999999886e+01,1.079857390154449585e-02
4.475999999999999801e+01,9.613940315395216527e-03
4.479999999999999716e+01,1.023789204649854997e-02
4.484000000000000341e+01,1.447939785745249765e-02
4.488000000000000256e+01,1.284136662236425898e-02
4.492000000000000171e+01,1.436864543246592352e-02
4.496000000000000085e+01,1.064952491115981822e-02
4.500000000000000000e+01,9.553021921274992140e-03
4.503999999999999915e+01,1.198362043433022668e-02
4.507999999999999829e+01,1.007230194837533711e-02
4.511999999999999744e+01,1.114539245159186162e-02
4.515999999999999659e+01,1.257988523028937856e-02
4.520000000000000284e+01,1.374264011115189539e-02
4.524000000000000199e+01,1.327692908799999426e-02
4.528000000000000114e+01,1.091140590394931199e-02
4.532000000000000028e+01,1.026400890375642368e-02
4.535999999999999943e+01,1.450043403663820764e-02
4.539999999999999858e+01,1.412359017670184250e-02
4.543999999999999773e+01,2.052998487198553004e-02
4.547999999999999687e+01,1.626306083509896500e-02
4.552000000000000313e+01,2.013610090093029270e-02
4.556000000000000227e+01,2.391829265109765915e-02
4.560000000000000142e+01,4.208139192330881406e-02
4.564000000000000057e+01,4.866668439402827007e-02
4.567999999999999972e+01,5.118139300965346417e-02
4.571999999999999886e+01,4.446995364147197927e-02
4.575999999999999801e+01,3.278344398799586112e-02
4.579999999999999716e+01,3.629187407073220656e-02
4.584000000000000341e+01,2.424276017342544623e-02
4.588000000000000256e+01,1.879597885795705053e-02
4.592000000000000171e+01,1.741897188974452990e-02
4.596000000000000085e+01,1.965949605368775416e-02
4.600000000000000000e+01,2.262319919877251242e-02
4.603999999999999915e+01,1.672254171999808595e-02
4.607999999999999829e+01,1.235909789521547585e-02
4.611999999999999744e+01,9.532866904864165450e-03
4.615999999999999659e+01,1.430389602961465619e-02
4.620000000000000284e+01,1.518522760319979473e-02
4.624000000000000199e+01,1.181506688962734308e-02
4.628000000000000114e+01,1.188153379351050178e-02
4.632000000000000028e+01,1.466103966242532711e-02
4.635999999999999943e+01,1.725923234535765502e-02
4.639999999999999858e+01,1.216888725678906026e-02
4.643999999999999773e+01,1.702745700320463379e-02
4.647999999999999687e+01,1.428793581810615387e-02
4.652000000000000313e+01,1.869342497652508664e-02
4.656000000000000227e+01,2.011369399881312095e-02
4.660000000000000142e+01,1.321228179804209875e-02
4.664000000000000057e+01,1.390811987764650065e-02
4.667999999999999972e+01,8.453038593661017439e-03
4.671999999999999886e+01,1.358000576149148535e-02
4.675999999999999801e+01,1.318919128036644822e-02
4.679999999999999716e+01,1.098898197415040107e-02
4.684000000000000341e+01,1.104955858313948214e-02
4.688000000000000256e+01,1.888827751335666119e-02
4.692000000000000171e+01,2.175190239102380019e-02
4.696000000000000085e+01,1.159051775597488322e-02
4.700000000000000000e+01,1.219207279403406938e-02
4.703999999999999915e+01,1.351678550466096744e-02
4.707999999999999829e+01,1.538375811007919140e-02
4.711999999999999744e+01,1.815478370715994591e-02
4.715999999999999659e+01,1.893551014488899578e-02
4.720000000000000284e+01,1.555517310511564041e-02
4.724000000000000199e+01,1.506875313869758017e-02
4.728000000000000114e+01,2.037060075752789717e-02
4.732000000000000028e+01,1.545133433994314541e-02
4.735999999999999943e+01,1.243104926684488257e-02
4.739999999999999858e+01,1.474678692477380745e-02
4.743999999999999773e+01,2.122271626576632819e-02
4.747999999999999687e+01,2.073367353998696247e-02
4.752000000000000313e+01,1.725939100862396852e-02
4.756000000000000227e+01,1.866888553450639018e-02
4.760000000000000142e+01,1.555551447084936416e-02
4.764000000000000057e+01,1.569784620137400569e-02
4.767999999999999972e+01,2.063350405135454257e-02
4.771999999999999886e+01,1.580028206485429784e-02
4.775999999999999801e+01,1.295648170634316684e-02
4.779999999999999716e+01,1.544869588325390938e-02
4.784000000000000341e+01,1.314669411593820912e-02
4.788000000000000256e+01,1.672339611957086511e-02
4.792000000000000171e+01,1.686260772647493397e-02
4.796000000000000085e+01,1.862944294713373208e-02
4.800000000000000000e+01,1.288860457208620795e-02
4.803999999999999915e+01,1.800113304068086742e-02
4.807999999999999829e+01,1.813854368947003318e-02
4.811999999999999744e+01,1.673787790499440750e-02
4.815999999999999659e+01,1.515586205431233846e-02
4.820000000000000284e+01,1.402563467161879740e-02
4.824000000000000199e+01,1.578930387326725471e-02
4.828000000000000114e+01,1.366323290660269134e-02
4.832000000000000028e+01,8.551905743143845343e-03
4.835999999999999943e+01,9.138375557691114440e-03
4.839999999999999858e+01,1.723161111284253477e-02
4.843999999999999773e+01,1.600819447496320408e-02
4.847999999999999687e+01,1.324669402777427750e-02
4.852000000000000313e+01,1.437401769819083783e-02
4.856000000000000227e+01,1.432504983660843993e-02
4.860000000000000142e+01,1.409472289365376087e-02
4.864000000000000057e+01,1.314034517511869851e-02
4.867999999999999972e+01,1.128101890322688421e-02
4.871999999999999886e+01,1.150154306897934429e-02
4.875999999999999801e+01,1.561088643497409410e-02
4.879999999999999716e+01,1.085581262743293834e-02
4.884000000000000341e+01,1.134628356763191410e-02
4.888000000000000256e+01,1.436884406277266074e-02
4.892000000000000171e+01,1.160223321536542514e-02
4.896000000000000085e+01,1.742775838401000241e-02
4.900000000000000000e+01,1.863994079938856643e-02
4.903999999999999915e+01,1.623371291212779427e-02
4.907999999999999829e+01,1.617867352379028650e-02
4.911999999999999744e+01,1.639450679533321562e-02
4.915999999999999659e+01,1.425820601306618078e-02
4.920000000000000284e+01,2.270390286986212480e-02
4.924000000000000199e+01,2.165203418420087039e-02
4.928000000000000114e+01,2.512211339825042716e-02
4.932000000000000028e+01,2.126538892931196731e-02
4.935999999999999943e+01,2.274464703293462703e-02
4.939999999999999858e+01,2.594194772524080136e-02
4.943999999999999773e+01,1.502880634278287199e-02
4.947999999999999687e+01,1.985322017161600047e-02
4.952000000000000313e+01,1.536095967928403916e-02
4.956000000000000227e+01,1.955127138870384196e-02
4.960000000000000142e+01,1.125921036906003814e-02
4.964000000000000057e+01,1.382048341063716809e-02
4.967999999999999972e+01,1.366781782768569306e-02
4.971999999999999886e+01,1.152480063350854594e-02
4.975999999999999801e+01,1.643627891933777466e-02
4.979999999999999716e+01,1.257376802172576261e-02
4.984000000000000341e+01,1.594664792321494329e-02
4.988000000000000256e+01,1.226405810519242030e-02
4.992000000000000171e+01,1.545506353071830763e-02
4.996000000000000085e+01,1.484674284549679021e-02
5.000000000000000000e+01,1.432837983160813698e-02
5.003999999999999915e+01,1.968867633239914164e-02
5.007999999999999829e+01,1.455645680977453969e-02
5.011999999999999744e+01,1.204674991482320226e-02
5.015999999999999659e+01,1.641063334605708662e-02
5.020000000000000284e+01,1.480442225059009839e-02
5.024000000000000199e+01,1.735834546894951883e-02
5.028000000000000114e+01,1.819325103955955758e-02
5.032000000000000028e+01,1.522882312337739408e-02
5.035999999999999943e+01,1.913798143557780482e-02
5.039999999999999858e+01,1.933825310097285130e-02
5.043999999999999773e+01,1.908578254788738382e-02
5.047999999999999687e+01,1.810922351943708430e-02
5.052000000000000313e+01,1.930292652751505397e-02
5.056000000000000227e+01,1.280800652979677615e-02
5.060000000000000142e+01,2.259330967032224802e-02
5.064000000000000057e+01,2.034846116874993935e-02
5.067999999999999972e+01,2.316822275691741984e-02
5.071999999999999886e+01,2.915317555399771915e-02
5.075999999999999801e+01,3.161013128644374337e-02
5.079999999999999716e+01,3.506151309009127026e-02
5.084000000000000341e+01,4.529602280828706057e-02
5.088000000000000256e+01,6.023334460198829371e-02
5.092000000000000171e+01,9.018460426993801793e-02
5.096000000000000085e+01,1.397626734270800142e-01
5.100000000000000000e+01,1.661854206358044928e-01
5.103999999999999915e+01,1.302886536228187175e-01
5.107999999999999829e+01,1.165512510553655817e-01
5.111999999999999744e+01,1.181895761807899570e-01
5.115999999999999659e+01,1.027326241797857920e-01
5.120000000000000284e+01,6.529617636096447797e-02
5.124000000000000199e+01,4.712473837797998000e-02
5.128000000000000114e+01,4.233915826925654935e-02
5.132000000000000028e+01,2.950314566665504165e-02
5.135999999999999943e+01,2.987209234097768992e-02
5.139999999999999858e+01,2.409002294356767104e-02
5.143999999999999773e+01,2.065909369100955156e-02
5.147999999999999687e+01,2.247365509519644658e-02
5.152000000000000313e+01,1.587598599127092516e-02
5.156000000000000227e+01,1.886533290214980479e-02
5.160000000000000142e+01,1.796487162119156031e-02
5.164000000000000057e+01,1.769702528423195212e-02
5.167999999999999972e+01,1.987076265386894872e-02
5.171999999999999886e+01,1.652661674904455300e-02
5.175999999999999801e+01,1.878974968047311331e-02
5.179999999999999716e+01,1.589679161475093111e-02
5.184000000000000341e+01,1.888245618348443830e-02
5.188000000000000256e+01,1.490305853378756304e-02
5.192000000000000171e+01,1.870169994069178013e-02
5.196000000000000085e+01,1.435944726164153570e-02
5.200000000000000000e+01,1.562446850148108829e-02
5.203999999999999915e+01,1.643671474041884586e-02
5.207999999999999829e+01,1.453497318119609423e-02
5.211999999999999744e+01,9.828794525144412403e-03
5.215999999999999659e+01,1.398603175762574979e-02
5.220000000000000284e+01,1.570062417058877557e-02
5.224000000000000199e+01,1.072149242640043146e-02
5.228000000000000114e+01,1.677653761065375435e-02
5.232000000000000028e+01,1.532382068666327153e-02
5.235999999999999943e+01,1.685536441138795610e-02
5.239999999999999858e+01,1.657739857254716953e-02
5.243999999999999773e+01,1.693203128649435271e-02
5.247999999999999687e+01,2.072316458601472858e-02
5.252000000000000313e+01,1.375038643160333800e-02
5.256000000000000227e+01,1.735953707317023503e-02
5.260000000000000142e+01,1.979231340712448231e-02
5.264000000000000057e+01,2.195319940498479880e-02
5.267999999999999972e+01,2.149053379038457293e-02
5.271999999999999886e+01,2.292673969915959634e-02
5.275999999999999801e+01,2.029221669062619693e-02
5.279999999999999716e+01,1.946611508723908313e-02
5.284000000000000341e+01,1.827767057084742769e-02
5.288000000000000256e+01,1.980213061156022719e-02
5.292000000000000171e+01,1.418061016705297710e-02
5.296000000000000085e+01,1.995504663489005431e-02
5.300000000000000000e+01,1.957843424857320588e-02
5.303999999999999915e+01,1.721140222750652468e-02
5.307999999999999829e+01,1.276350127302152207e-02
5.311999999999999744e+01,1.491778455991862699e-02
5.315999999999999659e+01,1.562433662803187559e-02
5.320000000000000284e+01,1.741571407282263562e-02
5.324000000000000199e+01,1.350828014163588456e-02
5.328000000000000114e+01,1.294688192570379349e-02
5.332000000000000028e+01,1.265627031579629434e-02
5.335999999999999943e+01,1.869649259258392496e-02
5.339999999999999858e+01,1.759072454942510466e-02
5.343999999999999773e+01,1.711753457004100420e-02
5.347999999999999687e+01,1.537750377360461163e-02
5.352000000000000313e+01,1.372735852717430274e-02
5.356000000000000227e+01,1.307158280226882081e-02
5.360000000000000142e+01,1.793259973472393839e-02
5.364000000000000057e+01,1.646165774184075656e-02
5.367999999999999972e+01,1.471880410428981836e-02
5.371999999999999886e+01,1.288493496072647473e-02
5.375999999999999801e+01,1.376395234393588442e-02
5.379999999999999716e+01,1.654181912238617685e-02
5.384000000000000341e+01,1.760059531219978352e-02
5.388000000000000256e+01,1.603579530273686882e-02
5.392000000000000171e+01,2.007822987325824649e-02
5.396000000000000085e+01,1.778869896195708553e-02
5.400000000000000000e+01,1.396097114199293214e-02
5.403999999999999915e+01,1.546913000600767807e-02
5.407999999999999829e+01,1.625312663420973303e-02
5.411999999999999744e+01,1.604161476971479455e-02
5.415999999999999659e+01,1.564862990493362874e-02
5.420000000000000284e+01,1.525506817852158130e-02
5.424000000000000199e+01,1.838841945612726750e-02
5.428000000000000114e+01,2.097850135833343246e-02
5.432000000000000028e+01,3.559765166158132543e-02
5.435999999999999943e+01,7.110982049888724121e-02
5.439999999999999858e+01,1.189224015354375941e-01
5.443999999999999773e+01,8.180327891065093671e-02
5.447999999999999687e+01,4.459312520820174486e-02
5.452000000000000313e+01,6.355089361365973133e-02
5.456000000000000227e+01,6.713183633309457998e-02
5.460000000000000142e+01,4.538661984507377789e-02
5.464000000000000057e+01,2.617337489527821887e-02
5.467999999999999972e+01,1.944143336601923677e-02
5.471999999999999886e+01,1.623639500605158353e-02
5.475999999999999801e+01,1.212628351952635408e-02
5.479999999999999716e+01,1.868850341269755883e-02
5.484000000000000341e+01,1.484855823385781634e-02
5.488000000000000256e+01,1.715851884019719761e-02
5.492000000000000171e+01,2.190999676873009450e-02
5.496000000000000085e+01,1.435988910530400231e-02
5.500000000000000000e+01,1.829614503574306800e-02
5.503999999999999915e+01,1.933745556232644575e-02
5.507999999999999829e+01,1.187601416080213447e-02
5.511999999999999744e+01,1.526779454070587710e-02
5.515999999999999659e+01,1.630731793271989957e-02
5.520000000000000284e+01,1.843162572338487293e-02
5.524000000000000199e+01,1.992219599008962505e-02
5.528000000000000114e+01,1.833691897735964527e-02
5.532000000000000028e+01,1.231906667901549665e-02
5.535999999999999943e+01,1.435052839239047556e-02
5.539999999999999858e+01,1.375838276318876695e-02
5.543999999999999773e+01,1.723581642583639148e-02
5.547999999999999687e+01,1.546663521265636415e-02
5.552000000000000313e+01,1.414909248788752058e-02
5.556000000000000227e+01,1.771516290825778106e-02
5.560000000000000142e+01,1.910986428378827137e-02
5.564000000000000057e+01,1.887588666956606376e-02
5.567999999999999972e+01,1.782726555800199023e-02
5.571999999999999886e+01,1.713983035793849655e-02
5.575999999999999801e+01,2.124555572610348567e-02
5.579999999999999716e+01,2.091869597392792199e-02
5.584000000000000341e+01,2.131481359100308864e-02
5.588000000000000256e+01,2.930799216997085482e-02
5.592000000000000171e+01,3.549158906404634162e-02
5.596000000000000085e+01,3.823753082972633499e-02
5.600000000000000000e+01,3.248070181740642798e-02
5.603999999999999915e+01,2.708505216010287028e-02
5.607999999999999829e+01,3.552740442533621618e-02
5.611999999999999744e+01,3.221083820600267877e-02
5.615999999999999659e+01,2.952679432032768309e-02
5.620000000000000284e+01,2.973648392644889782e-02
5.624000000000000199e+01,2.786523985386976307e-02
5.628000000000000114e+01,2.409395824124565058e-02
5.632000000000000028e+01,2.782928009624033999e-02
5.635999999999999943e+01,2.803649014812632442e-02
5.639999999999999858e+01,2.679590259682533906e-02
5.643999999999999773e+01,3.559447346948353685e-02
5.647999999999999687e+01,5.723610479888608521e-02
5.652000000000000313e+01,4.848642275188361217e-02
5.656000000000000227e+01,3.141485541124965086e-02
5.660000000000000142e+01,3.559805462571562912e-02
5.664000000000000057e+01,4.276542679591981838e-02
5.667999999999999972e+01,3.573176007179574426e-02
5.671999999999999886e+01,2.734073766710835504e-02
5.675999999999999801e+01,1.931087986534777562e-02
5.679999999999999716e+01,2.285779725633631590e-02
5.684000000000000341e+01,2.396197475878486527e-02
5.688000000000000256e+01,2.099533892919020275e-02
5.692000000000000171e+01,2.200780358859726407e-02
5.696000000000000085e+01,2.012528350524309118e-02
5.700000000000000000e+01,1.634271112975435244e-02
5.703999999999999915e+01,1.409712784867173108e-02
5.707999999999999829e+01,1.664467809032002185e-02
5.711999999999999744e+01,1.729217358115216555e-02
5.715999999999999659e+01,1.658230437625519971e-02
5.720000000000000284e+01,1.478641509339231018e-02
5.724000000000000199e+01,2.067800738647188746e-02
5.728000000000000114e+01,1.824769963383039359e-02
5.732000000000000028e+01,1.654033892669994413e-02
5.735999999999999943e+01,1.202843376031088353e-02
5.739999999999999858e+01,1.402817666321910101e-02
5.743999999999999773e+01,1.828848829779150878e-02
5.747999999999999687e+01,1.820662886958895194e-02
5.752000000000000313e+01,1.939040326374235831e-02
5.756000000000000227e+01,2.075442891139606116e-02
5.760000000000000142e+01,1.560551753900295269e-02
5.764000000000000057e+01,1.506883125727749920e-02
5.767999999999999972e+01,1.914436924665914239e-02
5.771999999999999886e+01,1.978221604698188890e-02
5.775999999999999801e+01,1.454026190277118991e-02
5.779999999999999716e+01,1.680488090243966934e-02
5.784000000000000341e+01,1.753122431563410022e-02
5.788000000000000256e+01,1.527211565706715173e-02
5.792000000000000171e+01,1.382639022971122837e-02
5.796000000000000085e+01,1.029969588255208630e-02
5.800000000000000000e+01,1.111387381269202633e-02
5.803999999999999915e+01,1.328412339000891070e-02
5.807999999999999829e+01,1.382564398438066063e-02
5.811999999999999744e+01,1.174350150605955878e-02
5.815999999999999659e+01,1.517805825519841223e-02
5.820000000000000284e+01,1.191876873266667358e-02
5.824000000000000199e+01,1.046778915504884347e-02
5.828000000000000114e+01,1.100601566100027455e-02
5.832000000000000028e+01,1.009640522485923293e-02
5.835999999999999943e+01,1.117599923316636538e-02
5.839999999999999858e+01,1.180268793044714909e-02
5.843999999999999773e+01,1.161467658070933912e-02
5.847999999999999687e+01,1.214958850922716847e-02
5.852000000000000313e+01,1.105576243963398743e-02
5.856000000000000227e+01,9.780373218096095195e-03
5.860000000000000142e+01,1.221270462669385090e-02
5.864000000000000057e+01,1.437302276511787449e-02
5.867999999999999972e+01,1.354787244056989380e-02
5.871999999999999886e+01,1.172711937386373970e-02
5.875999999999999801e+01,8.910762745438881652e-03
5.879999999999999716e+01,1.251557702258474999e-02
5.884000000000000341e+01,1.512478609889086716e-02
5.888000000000000256e+01,1.402493478155891066e-02
5.892000000000000171e+01,1.084409487497099873e-02
5.896000000000000085e+01,1.715967088538118343e-02
5.900000000000000000e+01,1.533420856718329360e-02
5.903999999999999915e+01,1.875408200878991849e-02
5.907999999999999829e+01,2.000251510379052675e-02
5.911999999999999744e+01,2.097892509389110219e-02
5.915999999999999659e+01,1.996479005648043453e-02
5.920000000000000284e+01,1.768369700486142893e-02
5.924000000000000199e+01,1.513057838966077803e-02
5.928000000000000114e+01,1.899862084530447651e-02
5.932000000000000028e+01,1.635369103979850136e-02
5.935999999999999943e+01,1.370807864935306639e-02
5.939999999999999858e+01,1.196626764548686800e-02
5.943999999999999773e+01,1.221363895793448583e-02
5.947999999999999687e+01,1.065135564460249935e-02
5.952000000000000313e+01,1.279677411151390436e-02
5.956000000000000227e+01,1.494150589568313085e-02
5.960000000000000142e+01,1.030191424445524306e-02
5.964000000000000057e+01,8.827331040141548832e-03
5.967999999999999972e+01,9.161028276562635519e-03
5.971999999999999886e+01,5.785647908574450583e-03
5.975999999999999801e+01,6.027515924358541749e-03
5.979999999999999716e+01,1.015797694167815644e-02
5.984000000000000341e+01,8.318145918208714670e-03
5.988000000000000256e+01,7.743900363023890204e-03
5.992000000000000171e+01,1.178183318355635958e-02
5.996000000000000085e+01,1.030171390015784810e-02
