2.003999999999999915e+01,1.839540465003366987e-02
2.007999999999999829e+01,2.332514920151681354e-02
2.012000000000000099e+01,1.387478481176400956e-02
2.016000000000000014e+01,1.748915204768825699e-02
2.019999999999999929e+01,2.881086644614696060e-02
2.023999999999999844e+01,2.857214439084857990e-02
2.028000000000000114e+01,1.338937427146120844e-02
2.032000000000000028e+01,1.832052051574425619e-02
2.035999999999999943e+01,2.137211318685710085e-02
2.039999999999999858e+01,1.831463802326289969e-02
2.044000000000000128e+01,2.108472031978593508e-02
2.048000000000000043e+01,2.009546235725801280e-02
2.051999999999999957e+01,2.004632230352779154e-02
2.055999999999999872e+01,1.830560201600121839e-02
2.060000000000000142e+01,1.017384131580533445e-02
2.064000000000000057e+01,1.501281099167442283e-02
2.067999999999999972e+01,1.957003516921893699e-02
2.071999999999999886e+01,3.183459343764014765e-02
2.076000000000000156e+01,1.750043282589203164e-02
2.080000000000000071e+01,1.961459835644752125e-02
2.083999999999999986e+01,2.464264660451524758e-02
2.087999999999999901e+01,2.384358250213204286e-02
2.092000000000000171e+01,1.618352402564642717e-02
2.096000000000000085e+01,1.604281524003028578e-02
2.100000000000000000e+01,2.191762820429606767e-02
2.103999999999999915e+01,2.685276233635772170e-02
2.107999999999999829e+01,2.567881154000613980e-02
2.112000000000000099e+01,2.177938541454893170e-02
2.116000000000000014e+01,2.304957436572028021e-02
2.119999999999999929e+01,2.366204801304056318e-02
2.123999999999999844e+01,2.446270800220258154e-02
2.128000000000000114e+01,2.742532618050581850e-02
2.132000000000000028e+01,2.973022603842163936e-02
2.135999999999999943e+01,2.996756881842966777e-02
2.139999999999999858e+01,5.699203283945307452e-02
2.144000000000000128e+01,7.677953268084750094e-02
2.148000000000000043e+01,9.205575365765025775e-02
2.151999999999999957e+01,8.637258765758626389e-02
2.155999999999999872e+01,6.659124406825020492e-02
2.160000000000000142e+01,4.483632655140083051e-02
2.164000000000000057e+01,3.483025488773957429e-02
2.167999999999999972e+01,3.647903888828706032e-02
2.171999999999999886e+01,2.910505718474358169e-02
2.176000000000000156e+01,2.173127038444992026e-02
2.180000000000000071e+01,1.915112583872177060e-02
2.183999999999999986e+01,1.948483887270280671e-02
2.187999999999999901e+01,1.577720890430689069e-02
2.192000000000000171e+01,2.306650428277646006e-02
2.196000000000000085e+01,2.452866016196774551e-02
2.200000000000000000e+01,1.856585941742595544e-02
2.203999999999999915e+01,1.476499775729485202e-02
2.207999999999999829e+01,1.782553334942333853e-02
2.212000000000000099e+01,1.994636296052022112e-02
2.216000000000000014e+01,1.069468622021237277e-02
2.219999999999999929e+01,1.441370064099676412e-02
2.223999999999999844e+01,1.944874646742630539e-02
2.228000000000000114e+01,1.499106659525917956e-02
2.232000000000000028e+01,1.889860487775428879e-02
2.235999999999999943e+01,1.293745871675939553e-02
2.239999999999999858e+01,1.703333400181239118e-02
2.244000000000000128e+01,1.812173322545813925e-02
2.248000000000000043e+01,2.015020108780740324e-02
2.251999999999999957e+01,1.907720169425795864e-02
2.255999999999999872e+01,1.960219321265833925e-02
2.260000000000000142e+01,1.552188852866020867e-02
2.264000000000000057e+01,1.350951866292383896e-02
2.267999999999999972e+01,1.168529894059273759e-02
2.271999999999999886e+01,1.286890386017123383e-02
2.276000000000000156e+01,1.527453793027012605e-02
2.280000000000000071e+01,1.457869770588532572e-02
2.283999999999999986e+01,1.848849522581648419e-02
2.287999999999999901e+01,1.365746543220668595e-02
2.292000000000000171e+01,1.662770360977399928e-02
2.296000000000000085e+01,1.273689613212041979e-02
2.300000000000000000e+01,1.082002523965223430e-02
2.303999999999999915e+01,1.463665726554595758e-02
2.307999999999999829e+01,2.033323468213356702e-02
2.312000000000000099e+01,1.851083813718137558e-02
2.316000000000000014e+01,7.007715405431266115e-03
2.319999999999999929e+01,1.129493420098659669e-02
2.323999999999999844e+01,8.157165201933026799e-03
2.328000000000000114e+01,8.403163501488114875e-03
2.332000000000000028e+01,9.119263406656193810e-03
2.335999999999999943e+01,1.274918268207260452e-02
2.339999999999999858e+01,6.604380554151165900e-03
2.344000000000000128e+01,2.188926492849539718e-02
2.348000000000000043e+01,2.354586936632163327e-02
2.351999999999999957e+01,1.542774938427367293e-02
2.355999999999999872e+01,1.501689210174147332e-02
2.360000000000000142e+01,2.165537222894242317e-02
2.364000000000000057e+01,1.381966574637196778e-02
2.367999999999999972e+01,2.600495297649452371e-03
2.371999999999999886e+01,6.043783102968150987e-03
2.376000000000000156e+01,1.475060981009441129e-02
2.380000000000000071e+01,5.129689363244900949e-03
2.383999999999999986e+01,1.393079149258894499e-02
2.387999999999999901e+01,1.408503035405618553e-02
2.392000000000000171e+01,1.207765860137243255e-02
2.396000000000000085e+01,1.777753949308319426e-02
2.400000000000000000e+01,8.909235541946187303e-03
2.403999999999999915e+01,1.677114383703217845e-02
2.407999999999999829e+01,1.457634608467255413e-02
2.412000000000000099e+01,4.580581682568330218e-03
2.416000000000000014e+01,5.769664685584961067e-03
2.419999999999999929e+01,5.455054320136262097e-03
2.423999999999999844e+01,3.636749580710064121e-03
2.428000000000000114e+01,5.766122102892748402e-03
2.432000000000000028e+01,1.118524659690170626e-02
2.435999999999999943e+01,1.284493329718355142e-02
2.439999999999999858e+01,9.805289363554138202e-03
2.444000000000000128e+01,1.353299417350155645e-02
2.448000000000000043e+01,6.170101862742681867e-03
2.451999999999999957e+01,5.292588734134805011e-03
2.455999999999999872e+01,1.043050786482968388e-02
2.460000000000000142e+01,8.989307664708255652e-03
2.464000000000000057e+01,1.290561342859488682e-02
2.467999999999999972e+01,1.165263560264920804e-02
2.471999999999999886e+01,1.773093458249877172e-02
2.476000000000000156e+01,9.429007981704698102e-03
2.480000000000000071e+01,1.635344758692775999e-02
2.483999999999999986e+01,1.068345408635995586e-02
2.487999999999999901e+01,1.460047377275219306e-02
2.492000000000000171e+01,1.560394423945253226e-02
2.496000000000000085e+01,1.294195101321107301e-02
2.500000000000000000e+01,6.990449822384677860e-03
2.503999999999999915e+01,4.422671687633566821e-03
2.507999999999999829e+01,1.003206396027351774e-02
2.512000000000000099e+01,6.712594243759139288e-03
2.516000000000000014e+01,1.138231455667719494e-02
2.519999999999999929e+01,7.499127603285528701e-03
2.523999999999999844e+01,4.931896642129771080e-03
2.528000000000000114e+01,1.411342003255870378e-02
2.532000000000000028e+01,1.436607640627266327e-02
2.535999999999999943e+01,1.142320494925973262e-02
2.539999999999999858e+01,7.822512609622626900e-03
2.544000000000000128e+01,1.474871121444789636e-02
2.548000000000000043e+01,1.377991979864906687e-02
2.551999999999999957e+01,9.427618163140461666e-03
2.555999999999999872e+01,0.000000000000000000e+00
2.560000000000000142e+01,1.416376526121644434e-02
2.564000000000000057e+01,1.206749915117809498e-02
2.567999999999999972e+01,9.313405119930709755e-03
2.571999999999999886e+01,1.793209764576569193e-02
2.576000000000000156e+01,1.536617169103926712e-02
2.580000000000000071e+01,1.430416601831331798e-02
2.583999999999999986e+01,8.072847595903445694e-03
2.587999999999999901e+01,5.413209480748649646e-03
2.592000000000000171e+01,1.375039616124675533e-02
2.596000000000000085e+01,1.334667810377036280e-02
2.600000000000000000e+01,1.237911326445515284e-02
2.603999999999999915e+01,1.056573308738729608e-02
2.607999999999999829e+01,1.176009308921055312e-02
2.612000000000000099e+01,2.991684945936957767e-03
2.616000000000000014e+01,9.261630454333875939e-03
2.619999999999999929e+01,5.873790828472840071e-04
2.623999999999999844e+01,1.174492770883497732e-02
2.628000000000000114e+01,5.890515407636130393e-03
2.632000000000000028e+01,3.795750719993394411e-03
2.635999999999999943e+01,8.551626505010226451e-04
2.639999999999999858e+01,1.398680321774573715e-02
2.644000000000000128e+01,7.944727616009499005e-03
2.648000000000000043e+01,1.083170069647770850e-02
2.651999999999999957e+01,1.625645697786758798e-02
2.655999999999999872e+01,8.146845081773049918e-03
2.660000000000000142e+01,1.300781374043691839e-02
2.664000000000000057e+01,9.973763218625033081e-03
2.667999999999999972e+01,6.845794738604252076e-03
2.671999999999999886e+01,3.435928927927994411e-03
2.676000000000000156e+01,9.707018228609138114e-03
2.680000000000000071e+01,1.691819850995320224e-03
2.683999999999999986e+01,2.417682739042464803e-03
2.687999999999999901e+01,3.801536109057798707e-03
2.692000000000000171e+01,1.571224321958687026e-02
2.696000000000000085e+01,1.079895067615774598e-02
2.700000000000000000e+01,9.927256202980244346e-03
2.703999999999999915e+01,1.347311552841101712e-02
2.707999999999999829e+01,8.090063594593317059e-03
2.712000000000000099e+01,3.928931210474475612e-03
2.716000000000000014e+01,1.132852755193598619e-02
2.719999999999999929e+01,7.825436764801109446e-03
2.723999999999999844e+01,1.353334310554193433e-02
2.728000000000000114e+01,8.620527857063816843e-03
2.732000000000000028e+01,8.877172836346924889e-03
2.735999999999999943e+01,8.006001745575603429e-03
2.739999999999999858e+01,9.766580917926407160e-03
2.744000000000000128e+01,4.947969368100053021e-03
2.748000000000000043e+01,1.309991625176531310e-02
2.751999999999999957e+01,1.983361482778619328e-04
2.755999999999999872e+01,1.239191713452867175e-02
2.760000000000000142e+01,6.163666259684605353e-03
2.764000000000000057e+01,1.628958040110337416e-02
2.767999999999999972e+01,3.805368095585184786e-04
2.771999999999999886e+01,7.686866616359128331e-03
2.776000000000000156e+01,1.283148927984463332e-02
2.780000000000000071e+01,4.347723411502645713e-03
2.783999999999999986e+01,1.005636631211699605e-02
2.787999999999999901e+01,7.587991310978151743e-03
2.792000000000000171e+01,6.623483299697122476e-03
2.796000000000000085e+01,1.045246269411448034e-02
2.800000000000000000e+01,5.822453619840553887e-03
2.803999999999999915e+01,7.583746059183377533e-03
2.807999999999999829e+01,1.225873921834387884e-02
2.812000000000000099e+01,1.148239476322762687e-02
2.816000000000000014e+01,1.089406269635553696e-02
2.819999999999999929e+01,6.452207123125100127e-03
2.823999999999999844e+01,1.394700986051652589e-02
2.828000000000000114e+01,1.091505505435311912e-02
2.832000000000000028e+01,1.248860023734444345e-02
2.835999999999999943e+01,1.603594726689640260e-02
2.839999999999999858e+01,1.431992801052120456e-02
2.844000000000000128e+01,1.091213043446090381e-02
2.848000000000000043e+01,7.786326386014942764e-03
2.851999999999999957e+01,1.011191995036808677e-02
2.855999999999999872e+01,1.826486685587707173e-02
2.860000000000000142e+01,2.021455061322607188e-02
2.864000000000000057e+01,1.605495940037024449e-02
2.867999999999999972e+01,1.264730260490418319e-02
2.871999999999999886e+01,1.121343860638959918e-02
2.876000000000000156e+01,1.081347456464222187e-02
2.880000000000000071e+01,1.595889028057625655e-02
2.883999999999999986e+01,1.085950192618731144e-02
2.887999999999999901e+01,9.331718465643993113e-03
2.892000000000000171e+01,8.461874205950544250e-03
2.896000000000000085e+01,8.625924875463620092e-03
2.900000000000000000e+01,1.179764232148269865e-02
2.903999999999999915e+01,1.797702553849556822e-02
2.907999999999999829e+01,1.550941477105543739e-02
2.912000000000000099e+01,1.228990042489623916e-02
2.916000000000000014e+01,1.649554045615361092e-02
2.919999999999999929e+01,1.694162102671687223e-02
2.923999999999999844e+01,1.428606541534424568e-02
2.928000000000000114e+01,1.247641832214678448e-02
2.932000000000000028e+01,1.950175933632567263e-02
2.935999999999999943e+01,1.618829402505670562e-02
2.939999999999999858e+01,1.343876666502485592e-02
2.944000000000000128e+01,1.576465705714437046e-02
2.948000000000000043e+01,1.386103503264871431e-02
2.951999999999999957e+01,7.915877952960195113e-03
2.955999999999999872e+01,1.569314048787052995e-02
2.960000000000000142e+01,1.595126616827675925e-02
2.964000000000000057e+01,2.429245844422466341e-02
2.967999999999999972e+01,1.430575575591432232e-02
2.971999999999999886e+01,2.245896028311352918e-02
2.976000000000000156e+01,2.403291576843223296e-02
2.980000000000000071e+01,2.795659363574396622e-02
2.983999999999999986e+01,2.492506371628207956e-02
2.987999999999999901e+01,2.960063762542026675e-02
2.992000000000000171e+01,3.023466642424432749e-02
2.996000000000000085e+01,2.833097604271758024e-02
3.000000000000000000e+01,3.187864607004134432e-02
3.003999999999999915e+01,3.815198918015410418e-02
3.007999999999999829e+01,3.342858358133032892e-02
3.012000000000000099e+01,4.007785393325525441e-02
3.016000000000000014e+01,4.230961640792441775e-02
3.019999999999999929e+01,5.459820425377701764e-02
3.023999999999999844e+01,6.209332547748076803e-02
3.028000000000000114e+01,7.099826518235986816e-02
3.032000000000000028e+01,7.680154155647572756e-02
3.035999999999999943e+01,9.651519580188236413e-02
3.039999999999999858e+01,1.159468602095180406e-01
3.044000000000000128e+01,1.573719702556007627e-01
3.048000000000000043e+01,2.468255287550372989e-01
3.051999999999999957e+01,3.641938494403313409e-01
3.055999999999999872e+01,5.262070059631351882e-01
3.060000000000000142e+01,5.506199705750047801e-01
3.064000000000000057e+01,4.679792268972733371e-01
3.067999999999999972e+01,3.717100222908413243e-01
3.071999999999999886e+01,2.465861080285076667e-01
3.076000000000000156e+01,1.742840835377710562e-01
3.080000000000000071e+01,1.382618515228892508e-01
3.083999999999999986e+01,1.113565369563246227e-01
3.087999999999999901e+01,9.450803066723729995e-02
3.092000000000000171e+01,8.743436409971351575e-02
3.096000000000000085e+01,6.842403486731421514e-02
3.100000000000000000e+01,7.009128862765119650e-02
3.103999999999999915e+01,7.025467707694944830e-02
3.107999999999999829e+01,6.054916188111455350e-02
3.112000000000000099e+01,6.137039484702025427e-02
3.116000000000000014e+01,6.350743498936732567e-02
3.119999999999999929e+01,5.915917907486464150e-02
3.123999999999999844e+01,6.373985218662354957e-02
3.128000000000000114e+01,6.427894600065607589e-02
3.132000000000000028e+01,7.449888029766368880e-02
3.135999999999999943e+01,7.625974166296148327e-02
3.139999999999999858e+01,7.078338847611119478e-02
3.144000000000000128e+01,7.893541846132266782e-02
3.148000000000000043e+01,6.321414640966459275e-02
3.151999999999999957e+01,9.082183749468425438e-02
3.155999999999999872e+01,9.577808391688394374e-02
3.160000000000000142e+01,1.116370231685475667e-01
3.164000000000000057e+01,1.048445157463669397e-01
3.167999999999999972e+01,1.085787424087571867e-01
3.171999999999999886e+01,1.197380590957880520e-01
3.176000000000000156e+01,1.259158925842749077e-01
3.180000000000000071e+01,1.241985771812219169e-01
3.183999999999999986e+01,1.230451383931663728e-01
3.187999999999999901e+01,1.242413697004732670e-01
3.192000000000000171e+01,1.175424490997039606e-01
3.196000000000000085e+01,1.083997482264448392e-01
3.200000000000000000e+01,1.011367685146757206e-01
3.203999999999999915e+01,1.006409464991796787e-01
3.207999999999999829e+01,9.018220651728019177e-02
3.211999999999999744e+01,7.709170387390792967e-02
3.215999999999999659e+01,7.471590161589546086e-02
3.220000000000000284e+01,6.566679979629572173e-02
3.224000000000000199e+01,7.475754184494159960e-02
3.228000000000000114e+01,7.567115538550044096e-02
3.232000000000000028e+01,6.023058045081242790e-02
3.235999999999999943e+01,6.706537044039109774e-02
3.239999999999999858e+01,6.149351564932171305e-02
3.243999999999999773e+01,5.394781443695306766e-02
3.247999999999999687e+01,5.692882719891282500e-02
3.252000000000000313e+01,5.633817540960635306e-02
3.256000000000000227e+01,5.377367418246434272e-02
3.260000000000000142e+01,6.652933226994228733e-02
3.264000000000000057e+01,6.922806913037977961e-02
3.267999999999999972e+01,7.408847760900283408e-02
3.271999999999999886e+01,8.007667568215987020e-02
3.275999999999999801e+01,9.320797008624061297e-02
3.279999999999999716e+01,1.165840028701510961e-01
3.284000000000000341e+01,2.172190608405041301e-01
3.288000000000000256e+01,6.532074407927627169e-01
3.292000000000000171e+01,1.000000000000000000e+00
3.296000000000000085e+01,7.696988860783862130e-01
3.300000000000000000e+01,6.935399453973488670e-01
3.303999999999999915e+01,5.897480961257803855e-01
3.307999999999999829e+01,3.191253565432219386e-01
3.311999999999999744e+01,1.167386734956684935e-01
3.315999999999999659e+01,8.268652637019285878e-02
3.320000000000000284e+01,6.987584203508999392e-02
3.324000000000000199e+01,5.358746423296991551e-02
3.328000000000000114e+01,5.722469864165730113e-02
3.332000000000000028e+01,5.202685411467193599e-02
3.335999999999999943e+01,5.556990695487103865e-02
3.339999999999999858e+01,5.413143537052903659e-02
3.343999999999999773e+01,4.573766550332217934e-02
3.347999999999999687e+01,5.003233569238655504e-02
3.352000000000000313e+01,5.338701332946366868e-02
3.356000000000000227e+01,5.100824905221339883e-02
3.360000000000000142e+01,5.408075468772229055e-02
3.364000000000000057e+01,5.057391374667464384e-02
3.367999999999999972e+01,5.120249213882090145e-02
3.371999999999999886e+01,4.713150561273068972e-02
3.375999999999999801e+01,4.597407702373630667e-02
3.379999999999999716e+01,5.242966453968648383e-02
3.384000000000000341e+01,5.089606269951119089e-02
3.388000000000000256e+01,6.374269616289574003e-02
3.392000000000000171e+01,5.403181482171214023e-02
3.396000000000000085e+01,6.537439879923641339e-02
3.400000000000000000e+01,6.308843839055379432e-02
3.403999999999999915e+01,6.211821276143952852e-02
3.407999999999999829e+01,6.716318007974225734e-02
3.411999999999999744e+01,7.155010731377749178e-02
3.415999999999999659e+01,7.321123142175438303e-02
3.420000000000000284e+01,8.718482075291535127e-02
3.424000000000000199e+01,9.232330802162468097e-02
3.428000000000000114e+01,9.135237854291947124e-02
3.432000000000000028e+01,9.197914435559938207e-02
3.435999999999999943e+01,9.476753955495556547e-02
3.439999999999999858e+01,9.774379028266431957e-02
3.443999999999999773e+01,9.592646880945113197e-02
3.447999999999999687e+01,9.307514146849246717e-02
3.452000000000000313e+01,7.697121340353813013e-02
3.456000000000000227e+01,8.013494108873270294e-02
3.460000000000000142e+01,8.433242192592424469e-02
3.464000000000000057e+01,8.044670411328061488e-02
3.467999999999999972e+01,7.580894295573251118e-02
3.471999999999999886e+01,6.976121316349732926e-02
3.475999999999999801e+01,6.897674575723530821e-02
3.479999999999999716e+01,5.663147589080261973e-02
3.484000000000000341e+01,7.050905431250797939e-02
3.488000000000000256e+01,6.577663950297725493e-02
3.492000000000000171e+01,5.794244572878893412e-02
3.496000000000000085e+01,5.762724971622626424e-02
3.500000000000000000e+01,5.317639170984242436e-02
3.503999999999999915e+01,6.009808597621583981e-02
3.507999999999999829e+01,5.762072196357972270e-02
3.511999999999999744e+01,6.200442740625027732e-02
3.515999999999999659e+01,5.275955930286230916e-02
3.520000000000000284e+01,7.490693552870014704e-02
3.524000000000000199e+01,7.393282866726637315e-02
3.528000000000000114e+01,9.119247843862390845e-02
3.532000000000000028e+01,9.350770207333336526e-02
3.535999999999999943e+01,1.048457403500227259e-01
3.539999999999999858e+01,1.408087967187377776e-01
3.543999999999999773e+01,1.791214336922360428e-01
3.547999999999999687e+01,1.863235009506766515e-01
3.552000000000000313e+01,1.758554507243593190e-01
3.556000000000000227e+01,1.615336919774526536e-01
3.560000000000000142e+01,1.325494676057146770e-01
3.564000000000000057e+01,1.106142779845602359e-01
3.567999999999999972e+01,9.582211129194431742e-02
3.571999999999999886e+01,1.077227166835358074e-01
3.575999999999999801e+01,9.443406387991931661e-02
3.579999999999999716e+01,1.010709599398463832e-01
3.584000000000000341e+01,1.047940322752714259e-01
3.588000000000000256e+01,1.064491825318872459e-01
3.592000000000000171e+01,1.071642799057883066e-01
3.596000000000000085e+01,1.082551719600035600e-01
3.600000000000000000e+01,1.217524731728244075e-01
3.603999999999999915e+01,1.240648974884676348e-01
3.607999999999999829e+01,1.282569404033640781e-01
3.611999999999999744e+01,1.420357139563133420e-01
3.615999999999999659e+01,1.453815210632862509e-01
3.620000000000000284e+01,1.647993104565256550e-01
3.624000000000000199e+01,2.057404537716178983e-01
3.628000000000000114e+01,2.877547001642318247e-01
3.632000000000000028e+01,2.973971041839256202e-01
3.635999999999999943e+01,2.534655015186303428e-01
3.639999999999999858e+01,2.284255516160574317e-01
3.643999999999999773e+01,1.805460560112507329e-01
3.647999999999999687e+01,1.287188395756085901e-01
3.652000000000000313e+01,1.121373908094480398e-01
3.656000000000000227e+01,9.875139714493622045e-02
3.660000000000000142e+01,8.386139840320022687e-02
3.664000000000000057e+01,8.372752231855627725e-02
3.667999999999999972e+01,7.513443956908993915e-02
3.671999999999999886e+01,5.939799771783006721e-02
3.675999999999999801e+01,6.057942672687189473e-02
3.679999999999999716e+01,5.612132155857136456e-02
3.684000000000000341e+01,5.373079425172815754e-02
3.688000000000000256e+01,5.209199523228909279e-02
3.692000000000000171e+01,4.735136697258616328e-02
3.696000000000000085e+01,4.026082193484496752e-02
3.700000000000000000e+01,3.749359113972575847e-02
3.703999999999999915e+01,4.186934908573285846e-02
3.707999999999999829e+01,3.712796602752579250e-02
3.711999999999999744e+01,3.454814297565833581e-02
3.715999999999999659e+01,3.375392219074953293e-02
3.720000000000000284e+01,3.380541083261505431e-02
3.724000000000000199e+01,3.489058626267722840e-02
3.728000000000000114e+01,3.024222626578439849e-02
3.732000000000000028e+01,2.860132389887549281e-02
3.735999999999999943e+01,2.320065694679886506e-02
3.739999999999999858e+01,2.409706703503446124e-02
3.743999999999999773e+01,2.546322378310281187e-02
3.747999999999999687e+01,2.523136414921301612e-02
3.752000000000000313e+01,2.142771427504139639e-02
3.756000000000000227e+01,2.345119150179747827e-02
3.760000000000000142e+01,2.566244381593611734e-02
3.764000000000000057e+01,3.294890775224044999e-02
3.767999999999999972e+01,3.750948007741941592e-02
3.771999999999999886e+01,3.455071142913288679e-02
3.775999999999999801e+01,3.506933526753299585e-02
3.779999999999999716e+01,2.853856203877944142e-02
3.784000000000000341e+01,2.341741724940951327e-02
3.788000000000000256e+01,2.120972682938656456e-02
3.792000000000000171e+01,2.078761957159185048e-02
3.796000000000000085e+01,1.867349468222630551e-02
3.800000000000000000e+01,1.909686441180248606e-02
3.803999999999999915e+01,1.923805225079176437e-02
3.807999999999999829e+01,1.890907882674764187e-02
3.811999999999999744e+01,1.228261375919056930e-02
3.815999999999999659e+01,1.110730397601042072e-02
3.820000000000000284e+01,1.068368929833425976e-02
3.824000000000000199e+01,5.842363629953107630e-03
3.828000000000000114e+01,1.180957368704381796e-02
3.832000000000000028e+01,1.523885441174959929e-02
3.835999999999999943e+01,9.081016038517106953e-03
3.839999999999999858e+01,1.448362384195784128e-02
3.843999999999999773e+01,1.349474277432143217e-02
3.847999999999999687e+01,1.043787426958762976e-02
3.852000000000000313e+01,1.414800056816267748e-02
3.856000000000000227e+01,1.654205088635384360e-02
3.860000000000000142e+01,1.113477055941110121e-02
3.864000000000000057e+01,1.446825487205234857e-02
3.867999999999999972e+01,1.188019019787975132e-02
3.871999999999999886e+01,1.690501795066029489e-02
3.875999999999999801e+01,9.241073495963220835e-03
3.879999999999999716e+01,1.529931638256406407e-02
3.884000000000000341e+01,1.440212524216320095e-02
3.888000000000000256e+01,2.224569270827355533e-02
3.892000000000000171e+01,2.548355372303838171e-02
3.896000000000000085e+01,3.990589010343778553e-02
3.900000000000000000e+01,5.564383657990198268e-02
3.903999999999999915e+01,8.529194273152582162e-02
3.907999999999999829e+01,1.895672200726185863e-01
3.911999999999999744e+01,2.632017821143863845e-01
3.915999999999999659e+01,1.746107709972147259e-01
3.920000000000000284e+01,1.515299772566556791e-01
3.924000000000000199e+01,1.253472959561295341e-01
3.928000000000000114e+01,5.827907433630337419e-02
3.932000000000000028e+01,3.181393345774126413e-02
3.935999999999999943e+01,2.414638175053697780e-02
3.939999999999999858e+01,1.544470049759585038e-02
3.943999999999999773e+01,9.844412765963232378e-03
3.947999999999999687e+01,1.458268467710266934e-02
3.952000000000000313e+01,1.396332158647689559e-02
3.956000000000000227e+01,7.610365754705020712e-03
3.960000000000000142e+01,1.056208553102938250e-02
3.964000000000000057e+01,1.332557237974910623e-02
3.967999999999999972e+01,1.251721469053223776e-02
3.971999999999999886e+01,5.129357586915779185e-03
3.975999999999999801e+01,1.522323103099489268e-02
3.979999999999999716e+01,1.770372203151077128e-02
3.984000000000000341e+01,9.093229794664299190e-03
3.988000000000000256e+01,5.087946953968445346e-03
3.992000000000000171e+01,1.348897473169000105e-02
3.996000000000000085e+01,4.783708513610994244e-03
4.000000000000000000e+01,7.920815802121844093e-03
4.003999999999999915e+01,5.042350732939409816e-03
4.007999999999999829e+01,4.043403711797671253e-03
4.011999999999999744e+01,3.890092715045154973e-03
4.015999999999999659e+01,6.932146323850101391e-03
4.020000000000000284e+01,4.146601919847702974e-03
4.024000000000000199e+01,3.992485009575213496e-03
4.028000000000000114e+01,7.785643156061571729e-03
4.032000000000000028e+01,8.194919043351794538e-03
4.035999999999999943e+01,5.972225133671502963e-03
4.039999999999999858e+01,1.258424080450886579e-02
4.043999999999999773e+01,7.917279788367599658e-03
4.047999999999999687e+01,3.438021462735934945e-03
4.052000000000000313e+01,7.135545416815037428e-03
4.056000000000000227e+01,1.271257535278935182e-02
4.060000000000000142e+01,9.266364982949708631e-03
4.064000000000000057e+01,5.161950630366196092e-03
4.067999999999999972e+01,7.166552499166244442e-03
4.071999999999999886e+01,8.982894291534216855e-03
4.075999999999999801e+01,9.483104800351431843e-03
4.079999999999999716e+01,8.009258735835300680e-03
4.084000000000000341e+01,3.997419991670295679e-03
4.088000000000000256e+01,7.316451826402067295e-03
4.092000000000000171e+01,5.653770200313130469e-03
4.096000000000000085e+01,4.648725115924340692e-03
4.100000000000000000e+01,2.515521081846495456e-03
4.103999999999999915e+01,4.235583816329865914e-03
4.107999999999999829e+01,5.673388241304857735e-03
4.111999999999999744e+01,3.163355196037946366e-03
4.115999999999999659e+01,4.788553453197522992e-03
4.120000000000000284e+01,9.891057723000976770e-03
4.124000000000000199e+01,6.158283965730905474e-03
4.128000000000000114e+01,6.842706044752615291e-03
4.132000000000000028e+01,3.297318075570120077e-03
4.135999999999999943e+01,7.176777802606061109e-03
4.139999999999999858e+01,9.740090157897269771e-03
4.143999999999999773e+01,7.885611081513432125e-03
4.147999999999999687e+01,5.466896090098333043e-03
4.152000000000000313e+01,1.395062456114013957e-02
4.156000000000000227e+01,1.218922920900320124e-02
4.160000000000000142e+01,8.829713907159227396e-03
4.164000000000000057e+01,7.913612539186348771e-03
4.167999999999999972e+01,9.158956549170860911e-03
4.171999999999999886e+01,1.312968003240388808e-02
4.175999999999999801e+01,1.963780361643887098e-02
4.179999999999999716e+01,1.796855938050107016e-02
4.184000000000000341e+01,2.550994526051333922e-02
4.188000000000000256e+01,2.524991804339741033e-02
4.192000000000000171e+01,2.104203324579708573e-02
4.196000000000000085e+01,1.946553270490525983e-02
4.200000000000000000e+01,1.234335645356213727e-02
4.203999999999999915e+01,1.837935099623147495e-02
4.207999999999999829e+01,1.050463048884299651e-02
4.211999999999999744e+01,9.490803472139276373e-03
4.215999999999999659e+01,7.536766712829301093e-03
4.220000000000000284e+01,5.864378590474721153e-03
4.224000000000000199e+01,3.063800347555198367e-03
4.228000000000000114e+01,1.304543013170655907e-02
4.232000000000000028e+01,5.168793127104239112e-03
4.235999999999999943e+01,6.596762350261561880e-03
4.239999999999999858e+01,2.667024174780734200e-03
4.243999999999999773e+01,3.248441859207261678e-03
4.247999999999999687e+01,9.186917049233972107e-03
4.252000000000000313e+01,2.060568779774426922e-03
4.256000000000000227e+01,4.802756811317219175e-03
4.260000000000000142e+01,1.083423729564503279e-02
4.264000000000000057e+01,7.090512725302799794e-03
4.267999999999999972e+01,9.737721651139490814e-03
4.271999999999999886e+01,5.147431464896701052e-03
4.275999999999999801e+01,4.128397259792118169e-03
4.279999999999999716e+01,4.330888443633221056e-03
4.284000000000000341e+01,4.627033809301309142e-03
4.288000000000000256e+01,9.622302341177790125e-03
4.292000000000000171e+01,5.500283064069865641e-03
4.296000000000000085e+01,1.275061696831844733e-02
4.300000000000000000e+01,1.031972595175502903e-02
4.303999999999999915e+01,1.080215959347443321e-02
4.307999999999999829e+01,7.524684861792223754e-03
4.311999999999999744e+01,2.031901846277883034e-02
4.315999999999999659e+01,3.602667370551185244e-02
4.320000000000000284e+01,7.889685891902094295e-02
4.324000000000000199e+01,8.041145835019350430e-02
4.328000000000000114e+01,5.119124872531281151e-02
4.332000000000000028e+01,4.997946870587675894e-02
4.335999999999999943e+01,3.918044389948678596e-02
4.339999999999999858e+01,2.471549185906538049e-02
4.343999999999999773e+01,7.994449331108698445e-03
4.347999999999999687e+01,7.721162820080579130e-03
4.352000000000000313e+01,1.299288603827178715e-02
4.356000000000000227e+01,1.243692678063712358e-02
4.360000000000000142e+01,9.906840563820329057e-03
4.364000000000000057e+01,9.162193720997852467e-03
4.367999999999999972e+01,1.001500687972321953e-02
4.371999999999999886e+01,9.739592713934961538e-03
4.375999999999999801e+01,1.397530122615395394e-02
4.379999999999999716e+01,1.275927796334318763e-02
4.384000000000000341e+01,1.041502435948243009e-02
4.388000000000000256e+01,7.788442060264549882e-03
4.392000000000000171e+01,1.324456738875959619e-02
4.396000000000000085e+01,6.199768160135192899e-03
4.400000000000000000e+01,8.835490667142162358e-03
4.403999999999999915e+01,8.933140053530288713e-03
4.407999999999999829e+01,4.988888378312024419e-03
4.411999999999999744e+01,4.615858496819713434e-03
4.415999999999999659e+01,1.063372490755770845e-02
4.420000000000000284e+01,3.774703994234596908e-03
4.424000000000000199e+01,3.776523279453645066e-03
4.428000000000000114e+01,1.261295461051425114e-02
4.432000000000000028e+01,9.606376619116752461e-03
4.435999999999999943e+01,6.505436233151059081e-03
4.439999999999999858e+01,6.599753868457551402e-03
4.443999999999999773e+01,9.043425868319231523e-03
4.447999999999999687e+01,4.719500430903978035e-03
4.452000000000000313e+01,7.444386520380415727e-03
4.456000000000000227e+01,7.255229683711532894e-03
4.460000000000000142e+01,2.930169530311380575e-03
4.464000000000000057e+01,2.364296465914001930e-03
4.467999999999999972e+01,8.095317438622091216e-03
4.471999999999999886e+01,1.025436717886588425e-02
4.475999999999999801e+01,4.705920608575671349e-03
4.479999999999999716e+01,4.890429958051275422e-03
4.484000000000000341e+01,7.048326883091903146e-03
4.488000000000000256e+01,1.005174017657885395e-02
4.492000000000000171e+01,6.099566605221064947e-03
4.496000000000000085e+01,1.380166349001518862e-02
4.500000000000000000e+01,6.465101720759734889e-03
4.503999999999999915e+01,9.654938195025363976e-03
4.507999999999999829e+01,1.021268622188969966e-02
4.511999999999999744e+01,9.172225813979955483e-03
4.515999999999999659e+01,1.207891779034980621e-02
4.520000000000000284e+01,8.030015863290015585e-03
4.524000000000000199e+01,6.894383291346205429e-03
4.528000000000000114e+01,9.235954169809511283e-03
4.532000000000000028e+01,9.509365668602014557e-03
4.535999999999999943e+01,1.335396779024464534e-02
4.539999999999999858e+01,7.235317109946106696e-03
4.543999999999999773e+01,9.481303398301405699e-03
4.547999999999999687e+01,1.182087750468343093e-02
4.552000000000000313e+01,1.491196270785054290e-02
4.556000000000000227e+01,2.025838493776609128e-02
4.560000000000000142e+01,2.616833788650806125e-02
4.564000000000000057e+01,3.066804769575277173e-02
4.567999999999999972e+01,4.343839925711136252e-02
4.571999999999999886e+01,3.562471224063642333e-02
4.575999999999999801e+01,3.561171904791499143e-02
4.579999999999999716e+01,2.525950626426231443e-02
4.584000000000000341e+01,2.637356344856034776e-02
4.588000000000000256e+01,2.551343635948511920e-02
4.592000000000000171e+01,1.957748093710633130e-02
4.596000000000000085e+01,1.862253880690397170e-02
4.600000000000000000e+01,2.142674957829213134e-02
4.603999999999999915e+01,1.718135614702880412e-02
4.607999999999999829e+01,1.453336238658581824e-02
4.611999999999999744e+01,1.498659422692644357e-02
4.615999999999999659e+01,8.014262114210350674e-03
4.620000000000000284e+01,1.166228826863091594e-02
4.624000000000000199e+01,1.540388313634781167e-02
4.628000000000000114e+01,1.284778123607823765e-02
4.632000000000000028e+01,1.113715950581848496e-02
4.635999999999999943e+01,1.666328141582707617e-02
4.639999999999999858e+01,1.485782252317346605e-02
4.643999999999999773e+01,8.728435693296386980e-03
4.647999999999999687e+01,6.264200515397138312e-03
4.652000000000000313e+01,1.723999106455399027e-02
4.656000000000000227e+01,1.552681333136879741e-02
4.660000000000000142e+01,1.691484913282171113e-02
4.664000000000000057e+01,1.952431379405632217e-02
4.667999999999999972e+01,1.940766060393742803e-02
4.671999999999999886e+01,1.205340775052648680e-02
4.675999999999999801e+01,1.400365051854141757e-02
4.679999999999999716e+01,1.839717750936335078e-02
4.684000000000000341e+01,1.997059344331603495e-02
4.688000000000000256e+01,1.299055712338718395e-02
4.692000000000000171e+01,2.255217952981133922e-02
4.696000000000000085e+01,2.139859645158372070e-02
4.700000000000000000e+01,1.911670359684826750e-02
4.703999999999999915e+01,1.598846751049449663e-02
4.707999999999999829e+01,1.972100023132196747e-02
4.711999999999999744e+01,1.612193405026894968e-02
4.715999999999999659e+01,1.722188344562695927e-02
4.720000000000000284e+01,1.944925844012971097e-02
4.724000000000000199e+01,1.754066375410092554e-02
4.728000000000000114e+01,2.023709244447957287e-02
4.732000000000000028e+01,2.227514923158947086e-02
4.735999999999999943e+01,2.318488719258238878e-02
4.739999999999999858e+01,1.864280288245425896e-02
4.743999999999999773e+01,2.246530526537374520e-02
4.747999999999999687e+01,2.168188601735283882e-02
4.752000000000000313e+01,1.986413310463369317e-02
4.756000000000000227e+01,1.804592653984353826e-02
4.760000000000000142e+01,1.594529776706859331e-02
4.764000000000000057e+01,2.700269901660864308e-02
4.767999999999999972e+01,2.339733097665557676e-02
4.771999999999999886e+01,1.885161342791085576e-02
4.775999999999999801e+01,2.163659350997734418e-02
4.779999999999999716e+01,2.019160065087534719e-02
4.784000000000000341e+01,1.761827689951087419e-02
4.788000000000000256e+01,2.632319346804429944e-02
4.792000000000000171e+01,1.904948614547087582e-02
4.796000000000000085e+01,2.155019019629564672e-02
4.800000000000000000e+01,1.869304607678471189e-02
4.803999999999999915e+01,1.592942542252450550e-02
4.807999999999999829e+01,1.833474313523251326e-02
4.811999999999999744e+01,1.998767965096203206e-02
4.815999999999999659e+01,2.351993110128298287e-02
4.820000000000000284e+01,1.267136774085487853e-02
4.824000000000000199e+01,1.422890585232213477e-02
4.828000000000000114e+01,1.550400466209849587e-02
4.832000000000000028e+01,1.113927970704049926e-02
4.835999999999999943e+01,1.335332383237410395e-02
4.839999999999999858e+01,1.443902298827546248e-02
4.843999999999999773e+01,1.561823555430628604e-02
4.847999999999999687e+01,1.172155543425756376e-02
4.852000000000000313e+01,1.383970527174865038e-02
4.856000000000000227e+01,1.370163591615239547e-02
4.860000000000000142e+01,1.957839450707169263e-02
4.864000000000000057e+01,1.445793783142835555e-02
4.867999999999999972e+01,1.196869648645652526e-02
4.871999999999999886e+01,1.737406374080819466e-02
4.875999999999999801e+01,1.291008291366744533e-02
4.879999999999999716e+01,1.192321705186677287e-02
4.884000000000000341e+01,8.304168224525041581e-03
4.888000000000000256e+01,8.538189085368014589e-03
4.892000000000000171e+01,8.677732923260517151e-03
4.896000000000000085e+01,1.699384687780541164e-02
4.900000000000000000e+01,1.309087713110471812e-02
4.903999999999999915e+01,1.548469182068786150e-02
4.907999999999999829e+01,2.116763607009176582e-02
4.911999999999999744e+01,1.369160176704156337e-02
4.915999999999999659e+01,1.805771070830454808e-02
4.920000000000000284e+01,1.593807111226148987e-02
4.924000000000000199e+01,1.635564358625300405e-02
4.928000000000000114e+01,1.395304366713562109e-02
4.932000000000000028e+01,2.141881011747141447e-02
4.935999999999999943e+01,2.061302952257554333e-02
4.939999999999999858e+01,2.215647860873131564e-02
4.943999999999999773e+01,1.317263823541799279e-02
4.947999999999999687e+01,1.762874918126355189e-02
4.952000000000000313e+01,7.422044584058260126e-03
4.956000000000000227e+01,1.291102969820077766e-02
4.960000000000000142e+01,1.435797499006360479e-02
4.964000000000000057e+01,9.319160683987011071e-03
4.967999999999999972e+01,1.377274696388558137e-02
4.971999999999999886e+01,1.390232285456646615e-02
4.975999999999999801e+01,1.017783326785357510e-02
4.979999999999999716e+01,1.575776288364506145e-02
4.984000000000000341e+01,9.306566049370745830e-03
4.988000000000000256e+01,9.528089269494489227e-03
4.992000000000000171e+01,6.741445641380939234e-03
4.996000000000000085e+01,1.203735780864945148e-02
5.000000000000000000e+01,9.531652759828361521e-03
5.003999999999999915e+01,1.247680435828303624e-02
5.007999999999999829e+01,1.504548222353396282e-02
5.011999999999999744e+01,1.385407474524922092e-02
5.015999999999999659e+01,1.191023478886759843e-02
5.020000000000000284e+01,1.128172338515573067e-02
5.024000000000000199e+01,1.535215013342127767e-02
5.028000000000000114e+01,1.791822791931582670e-02
5.032000000000000028e+01,1.616028023331081073e-02
5.035999999999999943e+01,1.120617627150066221e-02
5.039999999999999858e+01,1.405264949403754217e-02
5.043999999999999773e+01,1.680460748416319483e-02
5.047999999999999687e+01,1.589046026461127942e-02
5.052000000000000313e+01,1.798343885604198472e-02
5.056000000000000227e+01,1.340265635581997308e-02
5.060000000000000142e+01,2.226179702041729963e-02
5.064000000000000057e+01,1.739798582229647519e-02
5.067999999999999972e+01,2.155660415501158694e-02
5.071999999999999886e+01,2.571468940019780783e-02
5.075999999999999801e+01,2.742852178219539611e-02
5.079999999999999716e+01,3.384127823900062032e-02
5.084000000000000341e+01,4.015950940827336252e-02
5.088000000000000256e+01,5.333841386107546906e-02
5.092000000000000171e+01,6.115939674115673796e-02
5.096000000000000085e+01,8.871756902875171935e-02
5.100000000000000000e+01,1.141134499704869604e-01
5.103999999999999915e+01,1.115940022908331192e-01
5.107999999999999829e+01,9.685541862330322715e-02
5.111999999999999744e+01,8.700372935341836589e-02
5.115999999999999659e+01,8.119303082446155395e-02
5.120000000000000284e+01,6.964844695033015065e-02
5.124000000000000199e+01,5.096013897350378657e-02
5.128000000000000114e+01,4.411392094884801496e-02
5.132000000000000028e+01,3.538737108463713837e-02
5.135999999999999943e+01,2.666027204470335782e-02
5.139999999999999858e+01,2.714356280332171772e-02
5.143999999999999773e+01,2.076509198208615833e-02
5.147999999999999687e+01,2.387897649878015227e-02
5.152000000000000313e+01,1.731142192057946380e-02
5.156000000000000227e+01,2.399578800797271677e-02
5.160000000000000142e+01,1.564132953181576399e-02
5.164000000000000057e+01,1.602730890380211354e-02
5.167999999999999972e+01,1.848049309224731804e-02
5.171999999999999886e+01,1.463584376305701422e-02
5.175999999999999801e+01,1.389227825744069299e-02
5.179999999999999716e+01,1.944542780777157309e-02
5.184000000000000341e+01,7.234060440930228583e-03
5.188000000000000256e+01,1.353799996974988477e-02
5.192000000000000171e+01,1.739765747552928302e-02
5.196000000000000085e+01,1.458351869673155631e-02
5.200000000000000000e+01,1.637428464391051802e-02
5.203999999999999915e+01,1.459289534990624096e-02
5.207999999999999829e+01,1.158907939588699719e-02
5.211999999999999744e+01,1.563388392145568379e-02
5.215999999999999659e+01,1.394477896955877323e-02
5.220000000000000284e+01,1.404089821206144437e-02
5.224000000000000199e+01,1.141075983702522119e-02
5.228000000000000114e+01,1.413743261711851093e-02
5.232000000000000028e+01,8.968440677951730611e-03
5.235999999999999943e+01,1.047210645143127443e-02
5.239999999999999858e+01,1.300907792401205000e-02
5.243999999999999773e+01,1.319574348536212659e-02
5.247999999999999687e+01,1.234795069851041260e-02
5.252000000000000313e+01,1.253346059422356419e-02
5.256000000000000227e+01,1.215445604804675853e-02
5.260000000000000142e+01,1.675629787903360271e-02
5.264000000000000057e+01,1.694006673495040624e-02
5.267999999999999972e+01,1.082597794094070434e-02
5.271999999999999886e+01,2.087744534015699080e-02
5.275999999999999801e+01,1.626601574984029575e-02
5.279999999999999716e+01,1.456766547284791755e-02
5.284000000000000341e+01,1.728622043914313303e-02
5.288000000000000256e+01,1.530472884689390405e-02
5.292000000000000171e+01,1.708221620263751864e-02
5.296000000000000085e+01,2.083288701498476475e-02
5.300000000000000000e+01,1.997749743571838529e-02
5.303999999999999915e+01,1.865157053188378974e-02
5.307999999999999829e+01,1.281357040887852287e-02
5.311999999999999744e+01,1.252033869218260008e-02
5.315999999999999659e+01,1.495219887226741269e-02
5.320000000000000284e+01,1.616160423799774606e-02
5.324000000000000199e+01,1.389281338064830840e-02
5.328000000000000114e+01,8.991727945911914474e-03
5.332000000000000028e+01,1.113923282539970062e-02
5.335999999999999943e+01,1.366209498742717611e-02
5.339999999999999858e+01,1.082697323498204266e-02
5.343999999999999773e+01,9.965022872995056916e-03
5.347999999999999687e+01,1.380192921650333360e-02
5.352000000000000313e+01,1.284478372980591213e-02
5.356000000000000227e+01,1.809031987305498648e-02
5.360000000000000142e+01,1.083468913076241630e-02
5.364000000000000057e+01,1.307135942874461387e-02
5.367999999999999972e+01,1.032599550753820691e-02
5.371999999999999886e+01,9.929752672073920844e-03
5.375999999999999801e+01,9.908857064028098877e-03
5.379999999999999716e+01,1.327096154883950635e-02
5.384000000000000341e+01,1.212097370974988403e-02
5.388000000000000256e+01,1.350808130128829977e-02
5.392000000000000171e+01,1.602244556593440325e-02
5.396000000000000085e+01,1.167498490346269985e-02
5.400000000000000000e+01,1.315423807643523180e-02
5.403999999999999915e+01,1.510282062170854173e-02
5.407999999999999829e+01,1.451307766281960919e-02
5.411999999999999744e+01,1.787026185349422161e-02
5.415999999999999659e+01,1.248583242014607644e-02
5.420000000000000284e+01,1.922538708698500604e-02
5.424000000000000199e+01,1.562550999983429792e-02
5.428000000000000114e+01,2.076600439702659673e-02
5.432000000000000028e+01,3.276708560370551054e-02
5.435999999999999943e+01,5.341454710023600672e-02
5.439999999999999858e+01,9.314118724596695542e-02
5.443999999999999773e+01,1.106857534932783466e-01
5.447999999999999687e+01,6.864054981670617006e-02
5.452000000000000313e+01,5.751715888966726919e-02
5.456000000000000227e+01,7.054835849700993866e-02
5.460000000000000142e+01,5.782589121213040778e-02
5.464000000000000057e+01,3.344813354959892682e-02
5.467999999999999972e+01,1.969052098563355002e-02
5.471999999999999886e+01,2.454213310943554119e-02
5.475999999999999801e+01,2.046413815959848351e-02
5.479999999999999716e+01,1.365982123944648081e-02
5.484000000000000341e+01,1.399804560752509683e-02
5.488000000000000256e+01,1.959902658897788932e-02
5.492000000000000171e+01,1.580045055740705862e-02
5.496000000000000085e+01,1.764058586205500753e-02
5.500000000000000000e+01,1.628444825149132427e-02
5.503999999999999915e+01,2.037904159918775548e-02
5.507999999999999829e+01,1.704784676462359205e-02
5.511999999999999744e+01,1.991929434503299234e-02
5.515999999999999659e+01,1.696276785110023902e-02
5.520000000000000284e+01,2.190068706352669980e-02
5.524000000000000199e+01,1.621718183375872591e-02
5.528000000000000114e+01,1.636035826304696114e-02
5.532000000000000028e+01,1.875862637412509248e-02
5.535999999999999943e+01,1.504694783289875319e-02
5.539999999999999858e+01,1.650402364992176185e-02
5.543999999999999773e+01,1.814842609591954189e-02
5.547999999999999687e+01,1.659654356056017299e-02
5.552000000000000313e+01,1.729974767943005809e-02
5.556000000000000227e+01,1.725038357606620970e-02
5.560000000000000142e+01,1.485063412601376684e-02
5.564000000000000057e+01,1.667974116646575231e-02
5.567999999999999972e+01,2.217376859110676071e-02
5.571999999999999886e+01,2.089991602956364422e-02
5.575999999999999801e+01,2.263305755691479362e-02
5.579999999999999716e+01,2.333165727855776583e-02
5.584000000000000341e+01,1.980008195109511301e-02
5.588000000000000256e+01,2.472687033708882709e-02
5.592000000000000171e+01,2.551747084641987906e-02
5.596000000000000085e+01,3.016096306828950149e-02
5.600000000000000000e+01,3.630761641050515159e-02
5.603999999999999915e+01,3.455851152083311284e-02
5.607999999999999829e+01,3.591038185942554972e-02
5.611999999999999744e+01,3.491185377967177123e-02
5.615999999999999659e+01,3.635637463288767662e-02
5.620000000000000284e+01,3.169092771804454117e-02
5.624000000000000199e+01,3.689367321905688557e-02
5.628000000000000114e+01,3.401267608817434840e-02
5.632000000000000028e+01,4.175178282986080625e-02
5.635999999999999943e+01,3.971533962621825314e-02
5.639999999999999858e+01,4.087385279021037154e-02
5.643999999999999773e+01,5.143060742516131212e-02
5.647999999999999687e+01,6.405444621511606484e-02
5.652000000000000313e+01,7.583170346707883425e-02
5.656000000000000227e+01,7.341591412319282972e-02
5.660000000000000142e+01,5.473931514166713308e-02
5.664000000000000057e+01,6.284895154497456560e-02
5.667999999999999972e+01,5.638958160202801190e-02
5.671999999999999886e+01,5.425303018422571177e-02
5.675999999999999801e+01,4.769830222360445238e-02
5.679999999999999716e+01,3.822922365012756257e-02
5.684000000000000341e+01,3.627859282314392642e-02
5.688000000000000256e+01,3.752290629764945540e-02
5.692000000000000171e+01,3.585286614276297218e-02
5.696000000000000085e+01,3.117448216950517020e-02
5.700000000000000000e+01,2.423966684010162714e-02
5.703999999999999915e+01,2.848887238485211734e-02
5.707999999999999829e+01,2.484229355439966300e-02
5.711999999999999744e+01,2.467262054276526603e-02
5.715999999999999659e+01,2.628804704202696713e-02
5.720000000000000284e+01,2.151151308502475407e-02
5.724000000000000199e+01,2.350150335165681476e-02
5.728000000000000114e+01,1.881756360059913535e-02
5.732000000000000028e+01,2.343785401576625738e-02
5.735999999999999943e+01,2.063229893448164862e-02
5.739999999999999858e+01,1.707412937740551695e-02
5.743999999999999773e+01,1.699285759505045346e-02
5.747999999999999687e+01,2.226826625124863485e-02
5.752000000000000313e+01,1.476044193131529486e-02
5.756000000000000227e+01,1.815465786347668711e-02
5.760000000000000142e+01,1.412302226611359367e-02
5.764000000000000057e+01,1.789178185540288291e-02
5.767999999999999972e+01,1.959207136177475161e-02
5.771999999999999886e+01,1.593426835836448882e-02
5.775999999999999801e+01,1.189979856342243680e-02
5.779999999999999716e+01,1.716954686855973189e-02
5.784000000000000341e+01,1.510742679456698184e-02
5.788000000000000256e+01,1.577027996692420900e-02
5.792000000000000171e+01,1.643241905957000537e-02
5.796000000000000085e+01,9.762686756549392164e-03
5.800000000000000000e+01,1.596875649780169285e-02
5.803999999999999915e+01,1.098939631020749534e-02
5.807999999999999829e+01,1.127271229501746602e-02
5.811999999999999744e+01,1.117935243868652985e-02
5.815999999999999659e+01,1.268308858851407463e-02
5.820000000000000284e+01,9.956590364020608333e-03
5.824000000000000199e+01,1.127090490480899508e-02
5.828000000000000114e+01,1.230252876587517412e-02
5.832000000000000028e+01,1.323943930864146350e-02
5.835999999999999943e+01,1.210786267478419428e-02
5.839999999999999858e+01,1.501709478416027310e-02
5.843999999999999773e+01,9.654551597052297290e-03
5.847999999999999687e+01,6.641009839743574825e-03
5.852000000000000313e+01,8.702154827271168375e-03
5.856000000000000227e+01,1.132650474769663143e-02
5.860000000000000142e+01,8.122794119737195007e-03
5.864000000000000057e+01,6.046221514454623927e-03
5.867999999999999972e+01,7.634493879951687045e-03
5.871999999999999886e+01,1.147777245870799240e-02
5.875999999999999801e+01,1.090282421903909435e-02
5.879999999999999716e+01,7.977410191711614348e-03
5.884000000000000341e+01,1.022066404859070868e-02
5.888000000000000256e+01,8.985579905180394664e-03
5.892000000000000171e+01,1.038145368133755291e-02
5.896000000000000085e+01,1.365637090381236103e-02
5.900000000000000000e+01,1.063327160544489877e-02
5.903999999999999915e+01,1.371872699839552998e-02
5.907999999999999829e+01,1.952912547233236901e-02
5.911999999999999744e+01,1.180433728191495474e-02
5.915999999999999659e+01,1.516952749004168988e-02
5.920000000000000284e+01,1.355254471830653722e-02
5.924000000000000199e+01,1.578837120711570896e-02
5.928000000000000114e+01,1.680159004372736714e-02
5.932000000000000028e+01,9.355033095653770073e-03
5.935999999999999943e+01,9.520849730276764039e-03
5.939999999999999858e+01,1.006187181510855358e-02
5.943999999999999773e+01,8.440390391022196265e-03
5.947999999999999687e+01,6.724166488784316144e-03
5.952000000000000313e+01,1.196238786292396980e-02
5.956000000000000227e+01,8.834816602772861682e-03
5.960000000000000142e+01,4.202662095925613177e-03
5.964000000000000057e+01,5.021122913444075846e-03
5.967999999999999972e+01,1.166615478368498472e-02
5.971999999999999886e+01,4.494017356488085035e-03
5.975999999999999801e+01,3.430416521391063071e-03
5.979999999999999716e+01,9.509232291021125008e-03
5.984000000000000341e+01,5.624432268832861744e-03
5.988000000000000256e+01,6.250349703265417785e-03
5.992000000000000171e+01,9.695178286396773093e-03
5.996000000000000085e+01,4.868193363583296109e-03
