2.003999999999999915e+01,2.133915039503709449e-02
2.007999999999999829e+01,2.171002672641768674e-02
2.012000000000000099e+01,2.762538115440230091e-02
2.016000000000000014e+01,2.680109293317757199e-02
2.019999999999999929e+01,3.467384188546056983e-02
2.023999999999999844e+01,2.276186301167378023e-02
2.028000000000000114e+01,2.737396832730601068e-02
2.032000000000000028e+01,2.318095446606354901e-02
2.035999999999999943e+01,2.975044408048179920e-02
2.039999999999999858e+01,3.251542696616556427e-02
2.044000000000000128e+01,2.788850412429285525e-02
2.048000000000000043e+01,2.902346591899499992e-02
2.051999999999999957e+01,2.613649910672042470e-02
2.055999999999999872e+01,2.988108654934136521e-02
2.060000000000000142e+01,1.960251281957034117e-02
2.064000000000000057e+01,3.247926210759518456e-02
2.067999999999999972e+01,3.437670027829586861e-02
2.071999999999999886e+01,2.040292007080204278e-02
2.076000000000000156e+01,2.871478687183777120e-02
2.080000000000000071e+01,1.974221545441511363e-02
2.083999999999999986e+01,2.109729608703416262e-02
2.087999999999999901e+01,3.288873651334318915e-02
2.092000000000000171e+01,3.250505891298234584e-02
2.096000000000000085e+01,2.983878299496215900e-02
2.100000000000000000e+01,2.923826835458787077e-02
2.103999999999999915e+01,2.733353403671224396e-02
2.107999999999999829e+01,3.053841105155032792e-02
2.112000000000000099e+01,2.569910647859239422e-02
2.116000000000000014e+01,2.553457459462056892e-02
2.119999999999999929e+01,3.885024489027168876e-02
2.123999999999999844e+01,3.738177040964318215e-02
2.128000000000000114e+01,4.852382337756053210e-02
2.132000000000000028e+01,4.923008988631436683e-02
2.135999999999999943e+01,6.852587748829060132e-02
2.139999999999999858e+01,7.542911368165255981e-02
2.144000000000000128e+01,1.086402089623111911e-01
2.148000000000000043e+01,1.343506562606584243e-01
2.151999999999999957e+01,1.369063551539254631e-01
2.155999999999999872e+01,1.165247224075978971e-01
2.160000000000000142e+01,9.342563480523535802e-02
2.164000000000000057e+01,7.163132487663115278e-02
2.167999999999999972e+01,6.125173037447047969e-02
2.171999999999999886e+01,4.902434935640636454e-02
2.176000000000000156e+01,4.375461131307584184e-02
2.180000000000000071e+01,3.728933832848774915e-02
2.183999999999999986e+01,3.810783282776703668e-02
2.187999999999999901e+01,3.794820787308523374e-02
2.192000000000000171e+01,3.583208098971703282e-02
2.196000000000000085e+01,2.241047502146030837e-02
2.200000000000000000e+01,3.681863655157539134e-02
2.203999999999999915e+01,2.144078272807253133e-02
2.207999999999999829e+01,2.334791872833934592e-02
2.212000000000000099e+01,2.514659978020916675e-02
2.216000000000000014e+01,2.629327949630607883e-02
2.219999999999999929e+01,2.265701376862125707e-02
2.223999999999999844e+01,2.880481024517169211e-02
2.228000000000000114e+01,2.429937154234478730e-02
2.232000000000000028e+01,2.098997976222355052e-02
2.235999999999999943e+01,1.441956373128702382e-02
2.239999999999999858e+01,1.274129880914815632e-02
2.244000000000000128e+01,7.584589036140991329e-03
2.248000000000000043e+01,2.264799989462092100e-02
2.251999999999999957e+01,2.194884387823281199e-02
2.255999999999999872e+01,1.374900536842667276e-02
2.260000000000000142e+01,1.522450853731636272e-02
2.264000000000000057e+01,2.713631525957423477e-02
2.267999999999999972e+01,1.774138988050204604e-02
2.271999999999999886e+01,2.171790908802845310e-02
2.276000000000000156e+01,1.993308376058902653e-02
2.280000000000000071e+01,2.054008925779671896e-02
2.283999999999999986e+01,1.864701831878098556e-02
2.287999999999999901e+01,1.512354184005176502e-02
2.292000000000000171e+01,1.344834724221534092e-02
2.296000000000000085e+01,2.525329858368007344e-02
2.300000000000000000e+01,1.912148727525991507e-02
2.303999999999999915e+01,1.712084347174969504e-02
2.307999999999999829e+01,1.022851708245947969e-02
2.312000000000000099e+01,1.790342173808751741e-02
2.316000000000000014e+01,1.177250146089373409e-02
2.319999999999999929e+01,1.607786684242034844e-02
2.323999999999999844e+01,1.320865506682570960e-02
2.328000000000000114e+01,2.121056248092264770e-02
2.332000000000000028e+01,1.029731582308532692e-02
2.335999999999999943e+01,1.329903841000734492e-02
2.339999999999999858e+01,1.684451927750417813e-02
2.344000000000000128e+01,1.484605192449470201e-02
2.348000000000000043e+01,1.828324627836305089e-02
2.351999999999999957e+01,2.400353942763662485e-02
2.355999999999999872e+01,2.200570008508925812e-02
2.360000000000000142e+01,2.587835470220180983e-02
2.364000000000000057e+01,1.833676752864486087e-02
2.367999999999999972e+01,1.449149132162232470e-02
2.371999999999999886e+01,2.086506611318660401e-02
2.376000000000000156e+01,2.060759224035791162e-02
2.380000000000000071e+01,1.654550299271839373e-02
2.383999999999999986e+01,1.215748579087442584e-02
2.387999999999999901e+01,1.440091675422794197e-02
2.392000000000000171e+01,1.066554807145595266e-02
2.396000000000000085e+01,5.299739337863951585e-03
2.400000000000000000e+01,1.123986287390837426e-02
2.403999999999999915e+01,8.483457383326065138e-03
2.407999999999999829e+01,1.366300192904385674e-02
2.412000000000000099e+01,1.112439608829278101e-02
2.416000000000000014e+01,7.064052827613293353e-03
2.419999999999999929e+01,1.474447153297406277e-02
2.423999999999999844e+01,1.481544503913606939e-02
2.428000000000000114e+01,1.314725924712742931e-02
2.432000000000000028e+01,1.778438049472364987e-02
2.435999999999999943e+01,1.807332336367448167e-02
2.439999999999999858e+01,1.086152494250727449e-02
2.444000000000000128e+01,1.278146429414896146e-02
2.448000000000000043e+01,4.591643275197621922e-03
2.451999999999999957e+01,1.825251302764802769e-02
2.455999999999999872e+01,1.658558680493397997e-02
2.460000000000000142e+01,8.613712141367260711e-03
2.464000000000000057e+01,1.901383571583923834e-02
2.467999999999999972e+01,1.060747078178381902e-02
2.471999999999999886e+01,2.209502783511194113e-02
2.476000000000000156e+01,7.818716425943486939e-03
2.480000000000000071e+01,1.648017705922628917e-02
2.483999999999999986e+01,1.785830038598540739e-02
2.487999999999999901e+01,1.021374077863381781e-02
2.492000000000000171e+01,1.800602687238838859e-02
2.496000000000000085e+01,1.416661095155735337e-02
2.500000000000000000e+01,0.000000000000000000e+00
2.503999999999999915e+01,9.858243640132787963e-03
2.507999999999999829e+01,8.628326540299414982e-03
2.512000000000000099e+01,1.131209243586635792e-02
2.516000000000000014e+01,1.899663026701815111e-02
2.519999999999999929e+01,1.254915091219027667e-02
2.523999999999999844e+01,1.284178528596669616e-02
2.528000000000000114e+01,2.563611026753833191e-02
2.532000000000000028e+01,1.418847519768852081e-02
2.535999999999999943e+01,1.665574546314132695e-02
2.539999999999999858e+01,1.075257030904895432e-02
2.544000000000000128e+01,1.354626488568767308e-02
2.548000000000000043e+01,1.590527008053014765e-02
2.551999999999999957e+01,1.130704330514561810e-02
2.555999999999999872e+01,9.644104268544839709e-03
2.560000000000000142e+01,5.589709622507876841e-03
2.564000000000000057e+01,8.818961032370689623e-03
2.567999999999999972e+01,1.661413167401012275e-02
2.571999999999999886e+01,1.408208427751878912e-02
2.576000000000000156e+01,1.959464225522136727e-02
2.580000000000000071e+01,1.630190594413797808e-02
2.583999999999999986e+01,2.181473560373167406e-02
2.587999999999999901e+01,1.232585417343165166e-02
2.592000000000000171e+01,1.316446246315351384e-02
2.596000000000000085e+01,1.367707505464691060e-02
2.600000000000000000e+01,1.266789142951174271e-02
2.603999999999999915e+01,4.592750195853576023e-03
2.607999999999999829e+01,1.021507324641893200e-02
2.612000000000000099e+01,1.420688722395088699e-02
2.616000000000000014e+01,2.232976900764050213e-02
2.619999999999999929e+01,1.588576556327269892e-02
2.623999999999999844e+01,7.158995080280068646e-03
2.628000000000000114e+01,1.039033814116755230e-02
2.632000000000000028e+01,1.927467020117908797e-02
2.635999999999999943e+01,1.022213224341861869e-02
2.639999999999999858e+01,1.149706866741041951e-02
2.644000000000000128e+01,1.581597373186229699e-02
2.648000000000000043e+01,2.002628452530171022e-02
2.651999999999999957e+01,1.173517128008059671e-02
2.655999999999999872e+01,1.922243923582947012e-03
2.660000000000000142e+01,6.785145431386394727e-03
2.664000000000000057e+01,4.364652114155044907e-03
2.667999999999999972e+01,1.988125575996724584e-02
2.671999999999999886e+01,1.452583429469654630e-02
2.676000000000000156e+01,1.286662537539696484e-02
2.680000000000000071e+01,7.511414238938968549e-03
2.683999999999999986e+01,1.194011831496611352e-02
2.687999999999999901e+01,9.846383049685158984e-03
2.692000000000000171e+01,2.471135588177670109e-02
2.696000000000000085e+01,1.033370125217382765e-02
2.700000000000000000e+01,7.261883028022538510e-03
2.703999999999999915e+01,8.864649599054679613e-03
2.707999999999999829e+01,2.242550415018427709e-02
2.712000000000000099e+01,1.848430048529777631e-02
2.716000000000000014e+01,1.443448082018349184e-02
2.719999999999999929e+01,2.158178214773773945e-02
2.723999999999999844e+01,1.383603794880508379e-02
2.728000000000000114e+01,1.196067011613208969e-02
2.732000000000000028e+01,4.215103013094742730e-03
2.735999999999999943e+01,1.918980810472950202e-02
2.739999999999999858e+01,8.400560373384919829e-03
2.744000000000000128e+01,1.120002444599592709e-02
2.748000000000000043e+01,1.171668185611891323e-02
2.751999999999999957e+01,1.321180198068565639e-02
2.755999999999999872e+01,1.014122342780148130e-02
2.760000000000000142e+01,2.185515080632743912e-02
2.764000000000000057e+01,1.378411389379396307e-02
2.767999999999999972e+01,1.386633002421338613e-02
2.771999999999999886e+01,7.099952905840876786e-03
2.776000000000000156e+01,3.051375182175046150e-03
2.780000000000000071e+01,1.498309623918447041e-02
2.783999999999999986e+01,1.897912999446109417e-02
2.787999999999999901e+01,1.503947516981564078e-02
2.792000000000000171e+01,5.881856032993056614e-03
2.796000000000000085e+01,8.030042625082825167e-03
2.800000000000000000e+01,1.050442246232250604e-02
2.803999999999999915e+01,1.406595741938449808e-02
2.807999999999999829e+01,1.012663349292819946e-02
2.812000000000000099e+01,1.064444180687415878e-02
2.816000000000000014e+01,1.257552847158698375e-02
2.819999999999999929e+01,1.015831405149768794e-02
2.823999999999999844e+01,9.045666403959698107e-03
2.828000000000000114e+01,1.586883458286290211e-02
2.832000000000000028e+01,1.964820610444476673e-02
2.835999999999999943e+01,1.951410751581738115e-02
2.839999999999999858e+01,2.035844352147268485e-02
2.844000000000000128e+01,1.435416327093170380e-02
2.848000000000000043e+01,2.617821344308595560e-02
2.851999999999999957e+01,2.343530425221311900e-02
2.855999999999999872e+01,2.036631628081813500e-02
2.860000000000000142e+01,1.501448585763957150e-02
2.864000000000000057e+01,2.162069356518212665e-02
2.867999999999999972e+01,1.202930146938071404e-02
2.871999999999999886e+01,2.700619148105606881e-02
2.876000000000000156e+01,2.589418815484649528e-02
2.880000000000000071e+01,2.619544272837774287e-02
2.883999999999999986e+01,2.312675696261686301e-02
2.887999999999999901e+01,1.875360099428461172e-02
2.892000000000000171e+01,2.144656822666854770e-02
2.896000000000000085e+01,1.924766497946989868e-02
2.900000000000000000e+01,2.302779215823555145e-02
2.903999999999999915e+01,2.430764478146229743e-02
2.907999999999999829e+01,2.091304113421386598e-02
2.912000000000000099e+01,9.908836348692351761e-03
2.916000000000000014e+01,1.966808384625952366e-02
2.919999999999999929e+01,2.323094493306096867e-02
2.923999999999999844e+01,3.092477540545687451e-02
2.928000000000000114e+01,2.513871244760578633e-02
2.932000000000000028e+01,3.044099371656176778e-02
2.935999999999999943e+01,2.552464965401330180e-02
2.939999999999999858e+01,3.104439313086951660e-02
2.944000000000000128e+01,2.982419741863852683e-02
2.948000000000000043e+01,2.708209428732437363e-02
2.951999999999999957e+01,2.792740648509389051e-02
2.955999999999999872e+01,2.018472228797366097e-02
2.960000000000000142e+01,2.853098837485515751e-02
2.964000000000000057e+01,3.611630508275854440e-02
2.967999999999999972e+01,4.272325308981995279e-02
2.971999999999999886e+01,3.248031392959570968e-02
2.976000000000000156e+01,3.191248765221248868e-02
2.980000000000000071e+01,4.178073613234264266e-02
2.983999999999999986e+01,4.425677851047001704e-02
2.987999999999999901e+01,4.901571645193060489e-02
2.992000000000000171e+01,4.529535551663658316e-02
2.996000000000000085e+01,6.646936413046822256e-02
3.000000000000000000e+01,6.731478793089480661e-02
3.003999999999999915e+01,6.533377815554212986e-02
3.007999999999999829e+01,7.835461310754797404e-02
3.012000000000000099e+01,7.593876539426250294e-02
3.016000000000000014e+01,9.189473952891551167e-02
3.019999999999999929e+01,1.175258124863290538e-01
3.023999999999999844e+01,1.214150756773170886e-01
3.028000000000000114e+01,1.481332267770078537e-01
3.032000000000000028e+01,1.638717587157934585e-01
3.035999999999999943e+01,2.042872293781386739e-01
3.039999999999999858e+01,2.535081202975998371e-01
3.044000000000000128e+01,3.163176271568317044e-01
3.048000000000000043e+01,4.414173904607821552e-01
3.051999999999999957e+01,6.346776961104795278e-01
3.055999999999999872e+01,9.054475187057474672e-01
3.060000000000000142e+01,1.000000000000000000e+00
3.064000000000000057e+01,8.999633140245338891e-01
3.067999999999999972e+01,7.294831624394249037e-01
3.071999999999999886e+01,5.410660015139282519e-01
3.076000000000000156e+01,3.934147017620291953e-01
3.080000000000000071e+01,3.177287511728606462e-01
3.083999999999999986e+01,2.543268954795230852e-01
3.087999999999999901e+01,2.120145641726535468e-01
3.092000000000000171e+01,1.777466733535797982e-01
3.096000000000000085e+01,1.597851074037519026e-01
3.100000000000000000e+01,1.467154177520581249e-01
3.103999999999999915e+01,1.341892422468148327e-01
3.107999999999999829e+01,1.204672352604352348e-01
3.112000000000000099e+01,1.096803383445497937e-01
3.116000000000000014e+01,1.116123621863317900e-01
3.119999999999999929e+01,1.059347184240057860e-01
3.123999999999999844e+01,1.011267094826967944e-01
3.128000000000000114e+01,1.122988881196085170e-01
3.132000000000000028e+01,1.027076036755244365e-01
3.135999999999999943e+01,1.047481433797884942e-01
3.139999999999999858e+01,1.111370014911084447e-01
3.144000000000000128e+01,1.083942580234626141e-01
3.148000000000000043e+01,1.139133551926394122e-01
3.151999999999999957e+01,1.210630413883706930e-01
3.155999999999999872e+01,1.267994627210213832e-01
3.160000000000000142e+01,1.379712862881558588e-01
3.164000000000000057e+01,1.369676492739328455e-01
3.167999999999999972e+01,1.410732848723033617e-01
3.171999999999999886e+01,1.411566339707400475e-01
3.176000000000000156e+01,1.492843967150006557e-01
3.180000000000000071e+01,1.511069809443646994e-01
3.183999999999999986e+01,1.369492824371179029e-01
3.187999999999999901e+01,1.234437802561872133e-01
3.192000000000000171e+01,1.305929331414577010e-01
3.196000000000000085e+01,1.219792174992247180e-01
3.200000000000000000e+01,1.183660552222348256e-01
3.203999999999999915e+01,1.159486292679912933e-01
3.207999999999999829e+01,1.071173068296898540e-01
3.211999999999999744e+01,1.024168617473651816e-01
3.215999999999999659e+01,1.139139941667751399e-01
3.220000000000000284e+01,9.714671287825051016e-02
3.224000000000000199e+01,8.364063293643643482e-02
3.228000000000000114e+01,7.817895002398753124e-02
3.232000000000000028e+01,8.228358916843780957e-02
3.235999999999999943e+01,7.693047027006011396e-02
3.239999999999999858e+01,8.918813848816790901e-02
3.243999999999999773e+01,7.981263566128525555e-02
3.247999999999999687e+01,7.837281445098480404e-02
3.252000000000000313e+01,7.997676759639624211e-02
3.256000000000000227e+01,8.179805925155909929e-02
3.260000000000000142e+01,8.644570466238085671e-02
3.264000000000000057e+01,8.989746874269007038e-02
3.267999999999999972e+01,8.943562466836363356e-02
3.271999999999999886e+01,1.014752334586537519e-01
3.275999999999999801e+01,8.894651738883160852e-02
3.279999999999999716e+01,1.158790890429128306e-01
3.284000000000000341e+01,1.737936434393943241e-01
3.288000000000000256e+01,4.503219509913694019e-01
3.292000000000000171e+01,6.355345891623370713e-01
3.296000000000000085e+01,4.950549055927608855e-01
3.300000000000000000e+01,4.564354818907868094e-01
3.303999999999999915e+01,4.246646316923735620e-01
3.307999999999999829e+01,2.823366101349835122e-01
3.311999999999999744e+01,1.061999853576036101e-01
3.315999999999999659e+01,7.888591276880851932e-02
3.320000000000000284e+01,8.798926251057945236e-02
3.324000000000000199e+01,7.491587053439052735e-02
3.328000000000000114e+01,7.086522482937468448e-02
3.332000000000000028e+01,7.322830759324618077e-02
3.335999999999999943e+01,7.102550634224268078e-02
3.339999999999999858e+01,6.610487316941009162e-02
3.343999999999999773e+01,7.281599767909070764e-02
3.347999999999999687e+01,7.463510727381683640e-02
3.352000000000000313e+01,6.753996686741695066e-02
3.356000000000000227e+01,6.914143671935418789e-02
3.360000000000000142e+01,7.748275315836695987e-02
3.364000000000000057e+01,6.973502032042064314e-02
3.367999999999999972e+01,7.459741869238899203e-02
3.371999999999999886e+01,6.434914642755619474e-02
3.375999999999999801e+01,6.692842085993459811e-02
3.379999999999999716e+01,7.005112124371327964e-02
3.384000000000000341e+01,7.502175456275157750e-02
3.388000000000000256e+01,7.597003235964285006e-02
3.392000000000000171e+01,7.550496988029460621e-02
3.396000000000000085e+01,7.840976280736158821e-02
3.400000000000000000e+01,8.435828279714252531e-02
3.403999999999999915e+01,9.335052857144833516e-02
3.407999999999999829e+01,9.266754329711877902e-02
3.411999999999999744e+01,8.056998134656699617e-02
3.415999999999999659e+01,9.793243365245102305e-02
3.420000000000000284e+01,9.931452780856539486e-02
3.424000000000000199e+01,9.917456244108988073e-02
3.428000000000000114e+01,1.064266760624988095e-01
3.432000000000000028e+01,1.135699448878251805e-01
3.435999999999999943e+01,1.126686090447527183e-01
3.439999999999999858e+01,1.027442860585559420e-01
3.443999999999999773e+01,1.039081436909573136e-01
3.447999999999999687e+01,1.033325160869592585e-01
3.452000000000000313e+01,9.416873359261901388e-02
3.456000000000000227e+01,1.069640300660453652e-01
3.460000000000000142e+01,9.497352483898470477e-02
3.464000000000000057e+01,9.581053818897429519e-02
3.467999999999999972e+01,9.512547795529341377e-02
3.471999999999999886e+01,9.704928568957277291e-02
3.475999999999999801e+01,9.853810750217703585e-02
3.479999999999999716e+01,9.763517972184464211e-02
3.484000000000000341e+01,8.760054171647019272e-02
3.488000000000000256e+01,8.974116048798697065e-02
3.492000000000000171e+01,9.427322279284347517e-02
3.496000000000000085e+01,8.978228005992797134e-02
3.500000000000000000e+01,8.855245047867273123e-02
3.503999999999999915e+01,9.069244179272613338e-02
3.507999999999999829e+01,9.544128957103747979e-02
3.511999999999999744e+01,8.225298740815674414e-02
3.515999999999999659e+01,9.874208559065819624e-02
3.520000000000000284e+01,1.178400364028501929e-01
3.524000000000000199e+01,1.208488868105177805e-01
3.528000000000000114e+01,1.244011158765877673e-01
3.532000000000000028e+01,1.658926258349228133e-01
3.535999999999999943e+01,1.952085563403109791e-01
3.539999999999999858e+01,2.502883547358015770e-01
3.543999999999999773e+01,3.042808913493777467e-01
3.547999999999999687e+01,3.280521470504379478e-01
3.552000000000000313e+01,3.047522221760023964e-01
3.556000000000000227e+01,2.675373671082764693e-01
3.560000000000000142e+01,2.355403684124464658e-01
3.564000000000000057e+01,2.026735195874310447e-01
3.567999999999999972e+01,1.762203238181441478e-01
3.571999999999999886e+01,1.548762715643483001e-01
3.575999999999999801e+01,1.451639028580960777e-01
3.579999999999999716e+01,1.525186675130661695e-01
3.584000000000000341e+01,1.393272426953431342e-01
3.588000000000000256e+01,1.351584810664996084e-01
3.592000000000000171e+01,1.379469099334366400e-01
3.596000000000000085e+01,1.446486754065189617e-01
3.600000000000000000e+01,1.414577304342128916e-01
3.603999999999999915e+01,1.528336036517350671e-01
3.607999999999999829e+01,1.626873585489672924e-01
3.611999999999999744e+01,1.626483991662436568e-01
3.615999999999999659e+01,1.621744091252252939e-01
3.620000000000000284e+01,1.646353668246812729e-01
3.624000000000000199e+01,1.960127272055513237e-01
3.628000000000000114e+01,2.434788244128379131e-01
3.632000000000000028e+01,2.331115223189474950e-01
3.635999999999999943e+01,2.108947358828939522e-01
3.639999999999999858e+01,1.946567434078150804e-01
3.643999999999999773e+01,1.528719272826875586e-01
3.647999999999999687e+01,1.261974603964946817e-01
3.652000000000000313e+01,1.185468662571922543e-01
3.656000000000000227e+01,1.032864332364380744e-01
3.660000000000000142e+01,1.029189275763764261e-01
3.664000000000000057e+01,9.776801504625610983e-02
3.667999999999999972e+01,9.163851013219555253e-02
3.671999999999999886e+01,8.746555514561438205e-02
3.675999999999999801e+01,7.600888195214787479e-02
3.679999999999999716e+01,7.411838765839758036e-02
3.684000000000000341e+01,5.776937716011795038e-02
3.688000000000000256e+01,5.729166627174316767e-02
3.692000000000000171e+01,5.681373652682959047e-02
3.696000000000000085e+01,5.905331219312210528e-02
3.700000000000000000e+01,5.433528904890653349e-02
3.703999999999999915e+01,4.700802668948818319e-02
3.707999999999999829e+01,3.924570427342504580e-02
3.711999999999999744e+01,4.605016553608364677e-02
3.715999999999999659e+01,4.024415373993496525e-02
3.720000000000000284e+01,3.650338555483340769e-02
3.724000000000000199e+01,4.091556492548191482e-02
3.728000000000000114e+01,4.337075154281701261e-02
3.732000000000000028e+01,3.941187423331778128e-02
3.735999999999999943e+01,3.121311215554228857e-02
3.739999999999999858e+01,3.627661654711625272e-02
3.743999999999999773e+01,4.264439372774105758e-02
3.747999999999999687e+01,3.401008914362357860e-02
3.752000000000000313e+01,3.994255545633649401e-02
3.756000000000000227e+01,3.793902386735728549e-02
3.760000000000000142e+01,3.908781332590741814e-02
3.764000000000000057e+01,5.545562397774472102e-02
3.767999999999999972e+01,6.421355995883457068e-02
3.771999999999999886e+01,6.992739890815685699e-02
3.775999999999999801e+01,5.694304040294278363e-02
3.779999999999999716e+01,4.732841459798713124e-02
3.784000000000000341e+01,4.151835630245021697e-02
3.788000000000000256e+01,3.375128608076284620e-02
3.792000000000000171e+01,2.881039961557975773e-02
3.796000000000000085e+01,2.593473247585021887e-02
3.800000000000000000e+01,2.816813599483121780e-02
3.803999999999999915e+01,2.518325181978446625e-02
3.807999999999999829e+01,3.002516129300394909e-02
3.811999999999999744e+01,2.410462040211209384e-02
3.815999999999999659e+01,2.166250972961379986e-02
3.820000000000000284e+01,1.606757766524108053e-02
3.824000000000000199e+01,1.221172891348593081e-02
3.828000000000000114e+01,1.563912230986457333e-02
3.832000000000000028e+01,1.417434613040359677e-02
3.835999999999999943e+01,1.955797345534868864e-02
3.839999999999999858e+01,1.374430538150906572e-02
3.843999999999999773e+01,1.390936608099839662e-02
3.847999999999999687e+01,2.070540840665166180e-02
3.852000000000000313e+01,1.423868008404300008e-02
3.856000000000000227e+01,1.559873007143097734e-02
3.860000000000000142e+01,2.761199165839781436e-02
3.864000000000000057e+01,2.114444571434204515e-02
3.867999999999999972e+01,1.826402239405851280e-02
3.871999999999999886e+01,1.951426552854487045e-02
3.875999999999999801e+01,1.413298067771341822e-02
3.879999999999999716e+01,1.614363038039438522e-02
3.884000000000000341e+01,2.543750433656126464e-02
3.888000000000000256e+01,1.864216157299264723e-02
3.892000000000000171e+01,1.749940517897129871e-02
3.896000000000000085e+01,2.113956170160921633e-02
3.900000000000000000e+01,2.499685094554813733e-02
3.903999999999999915e+01,4.722567827943802837e-02
3.907999999999999829e+01,1.120681542948208653e-01
3.911999999999999744e+01,1.263606459988904640e-01
3.915999999999999659e+01,9.086411526631917035e-02
3.920000000000000284e+01,8.830612643714839949e-02
3.924000000000000199e+01,6.085347861571387129e-02
3.928000000000000114e+01,2.948701173843673931e-02
3.932000000000000028e+01,1.410047552336474511e-02
3.935999999999999943e+01,1.371548749577244410e-02
3.939999999999999858e+01,8.220877337559256287e-03
3.943999999999999773e+01,1.305332487144104589e-02
3.947999999999999687e+01,1.136293043443797716e-02
3.952000000000000313e+01,9.019979927578337942e-03
3.956000000000000227e+01,1.037283294616735824e-02
3.960000000000000142e+01,1.161667244770833544e-02
3.964000000000000057e+01,1.927403846425373990e-02
3.967999999999999972e+01,1.834308470405876176e-02
3.971999999999999886e+01,7.954137714235443371e-03
3.975999999999999801e+01,1.789346820003111932e-02
3.979999999999999716e+01,1.924447507451904765e-02
3.984000000000000341e+01,1.222457510318483882e-02
3.988000000000000256e+01,2.031491572470894846e-02
3.992000000000000171e+01,1.264213345909220507e-02
3.996000000000000085e+01,1.399188400706340152e-02
4.000000000000000000e+01,9.797157164227267984e-03
4.003999999999999915e+01,1.114627187980532855e-02
4.007999999999999829e+01,6.842197626360401429e-03
4.011999999999999744e+01,1.101710596456012894e-02
4.015999999999999659e+01,1.290880245431672013e-02
4.020000000000000284e+01,8.603761031296168482e-03
4.024000000000000199e+01,1.299511640902757496e-02
4.028000000000000114e+01,4.884608051036696923e-03
4.032000000000000028e+01,4.698789329009503001e-04
4.035999999999999943e+01,9.860866807305660939e-03
4.039999999999999858e+01,1.870797951353025262e-02
4.043999999999999773e+01,1.896674815742096024e-02
4.047999999999999687e+01,8.680409067716152172e-03
4.052000000000000313e+01,2.959515001619724122e-03
4.056000000000000227e+01,9.087569144045628058e-03
4.060000000000000142e+01,1.054079889752607135e-02
4.064000000000000057e+01,6.123403743660952615e-03
4.067999999999999972e+01,7.141120675346545113e-03
4.071999999999999886e+01,1.196331308683328681e-02
4.075999999999999801e+01,6.783933926587458474e-03
4.079999999999999716e+01,1.236640508735553472e-02
4.084000000000000341e+01,3.598941246518347001e-03
4.088000000000000256e+01,5.158489082967387777e-03
4.092000000000000171e+01,8.457034593362102934e-03
4.096000000000000085e+01,6.972035189271810589e-03
4.100000000000000000e+01,7.660866990098371028e-03
4.103999999999999915e+01,5.631622734971458016e-03
4.107999999999999829e+01,5.884916150220508360e-03
4.111999999999999744e+01,1.309523389666284419e-02
4.115999999999999659e+01,4.542389132101207552e-03
4.120000000000000284e+01,9.034271365246685295e-03
4.124000000000000199e+01,1.265612452272813805e-02
4.128000000000000114e+01,9.646369168976461420e-03
4.132000000000000028e+01,9.027852838303263017e-03
4.135999999999999943e+01,8.517684793934873766e-03
4.139999999999999858e+01,8.441990823194300830e-03
4.143999999999999773e+01,1.532331095813391914e-02
4.147999999999999687e+01,9.485310968002544710e-03
4.152000000000000313e+01,1.767040894660148673e-02
4.156000000000000227e+01,1.074458576332928614e-02
4.160000000000000142e+01,1.838540310159590338e-02
4.164000000000000057e+01,1.080658769977576976e-02
4.167999999999999972e+01,1.257637721492292984e-02
4.171999999999999886e+01,2.608636884927019450e-02
4.175999999999999801e+01,2.720315847673463600e-02
4.179999999999999716e+01,3.995143864518355126e-02
4.184000000000000341e+01,3.780620674811207421e-02
4.188000000000000256e+01,3.816090500130864954e-02
4.192000000000000171e+01,3.514524494736667032e-02
4.196000000000000085e+01,3.702111096773631760e-02
4.200000000000000000e+01,2.650376731208836309e-02
4.203999999999999915e+01,2.153020130539795574e-02
4.207999999999999829e+01,1.372981698799928194e-02
4.211999999999999744e+01,1.190804385052930854e-02
4.215999999999999659e+01,1.486908137458800745e-02
4.220000000000000284e+01,1.272040729478646215e-02
4.224000000000000199e+01,1.546325034197263033e-02
4.228000000000000114e+01,4.290948460094221560e-03
4.232000000000000028e+01,8.446227245211787235e-03
4.235999999999999943e+01,7.274371270037868764e-03
4.239999999999999858e+01,9.363391981534780958e-03
4.243999999999999773e+01,1.003880016250689212e-02
4.247999999999999687e+01,1.245315616804851429e-02
4.252000000000000313e+01,9.757790344216846559e-03
4.256000000000000227e+01,9.888460006950025583e-03
4.260000000000000142e+01,1.327999996540833554e-02
4.264000000000000057e+01,7.322162408268974298e-03
4.267999999999999972e+01,1.245224216276632698e-02
4.271999999999999886e+01,7.254560648751499745e-03
4.275999999999999801e+01,7.057088667103033827e-03
4.279999999999999716e+01,1.142498885228238406e-02
4.284000000000000341e+01,8.074140458478746771e-03
4.288000000000000256e+01,8.745116565937830280e-03
4.292000000000000171e+01,6.806665564391578549e-03
4.296000000000000085e+01,9.759708682428662810e-03
4.300000000000000000e+01,1.325588376836556864e-02
4.303999999999999915e+01,3.163016705156438714e-03
4.307999999999999829e+01,1.111543156928373154e-02
4.311999999999999744e+01,5.804928793398817129e-03
4.315999999999999659e+01,1.810486930112262596e-02
4.320000000000000284e+01,1.257611069528683997e-02
4.324000000000000199e+01,1.280850943640932799e-02
4.328000000000000114e+01,1.456241239464394800e-02
4.332000000000000028e+01,8.162715348276573454e-03
4.335999999999999943e+01,1.230736877514388393e-02
4.339999999999999858e+01,8.407128662868310412e-03
4.343999999999999773e+01,5.593551567598883251e-03
4.347999999999999687e+01,1.158497676159901679e-02
4.352000000000000313e+01,1.529308273926890081e-02
4.356000000000000227e+01,3.998912667448315666e-03
4.360000000000000142e+01,1.161968008120435603e-02
4.364000000000000057e+01,1.380456281077931460e-02
4.367999999999999972e+01,1.337999414575538268e-02
4.371999999999999886e+01,9.258882589569909782e-03
4.375999999999999801e+01,1.448630948451682179e-02
4.379999999999999716e+01,2.221360517665336640e-02
4.384000000000000341e+01,1.917826772363256591e-02
4.388000000000000256e+01,1.918634162060995144e-02
4.392000000000000171e+01,1.201917753668458287e-02
4.396000000000000085e+01,1.387441844743388109e-02
4.400000000000000000e+01,5.401857187618723868e-03
4.403999999999999915e+01,9.647805108570198587e-03
4.407999999999999829e+01,5.848837761163522796e-03
4.411999999999999744e+01,7.158745509530043370e-03
4.415999999999999659e+01,1.553428946855310404e-02
4.420000000000000284e+01,1.162526247299360861e-02
4.424000000000000199e+01,1.402090597885086165e-02
4.428000000000000114e+01,9.458718043777857715e-03
4.432000000000000028e+01,3.156730437778754606e-03
4.435999999999999943e+01,1.066033200540683450e-02
4.439999999999999858e+01,8.270954707928544411e-03
4.443999999999999773e+01,7.403044560077575581e-03
4.447999999999999687e+01,6.534673977941689825e-03
4.452000000000000313e+01,5.665841683331780503e-03
4.456000000000000227e+01,1.251488694851126196e-02
4.460000000000000142e+01,1.349318076562104098e-02
4.464000000000000057e+01,9.905230118520298721e-03
4.467999999999999972e+01,1.392644417480413781e-02
4.471999999999999886e+01,1.044626762089052169e-02
4.475999999999999801e+01,6.095949510669196846e-03
4.479999999999999716e+01,1.011575542212663804e-02
4.484000000000000341e+01,1.206961798068711955e-02
4.488000000000000256e+01,1.728427797819219111e-02
4.492000000000000171e+01,1.706301238946392532e-02
4.496000000000000085e+01,1.379741841673513304e-02
4.500000000000000000e+01,1.716259772534162523e-02
4.503999999999999915e+01,1.563539272233420430e-02
4.507999999999999829e+01,1.073772843524676938e-02
4.511999999999999744e+01,1.594952229372276209e-02
4.515999999999999659e+01,1.257282126354716985e-02
4.520000000000000284e+01,1.397883375252615898e-02
4.524000000000000199e+01,1.375372619406632115e-02
4.528000000000000114e+01,1.678940329265974155e-02
4.532000000000000028e+01,1.906362996213492589e-02
4.535999999999999943e+01,1.503224481059751115e-02
4.539999999999999858e+01,2.187127201016103931e-02
4.543999999999999773e+01,2.349177505070725730e-02
4.547999999999999687e+01,2.946014657573468171e-02
4.552000000000000313e+01,3.684124171744540543e-02
4.556000000000000227e+01,3.280739462084191621e-02
4.560000000000000142e+01,4.083975272460473038e-02
4.564000000000000057e+01,5.517673659316463253e-02
4.567999999999999972e+01,6.114262700028901681e-02
4.571999999999999886e+01,6.188998430107210680e-02
4.575999999999999801e+01,5.654913504262593787e-02
4.579999999999999716e+01,5.544743502131050522e-02
4.584000000000000341e+01,4.836623490622490168e-02
4.588000000000000256e+01,4.204549277309629213e-02
4.592000000000000171e+01,2.246174352671616650e-02
4.596000000000000085e+01,2.364090972398884966e-02
4.600000000000000000e+01,2.536311202497643774e-02
4.603999999999999915e+01,3.088961980661049378e-02
4.607999999999999829e+01,2.076151688181464977e-02
4.611999999999999744e+01,2.150380330071540239e-02
4.615999999999999659e+01,1.985397712096574618e-02
4.620000000000000284e+01,2.026910695970832871e-02
4.624000000000000199e+01,2.611917121571218081e-02
4.628000000000000114e+01,1.805396272373811437e-02
4.632000000000000028e+01,2.064171914084031792e-02
4.635999999999999943e+01,1.464094232361697404e-02
4.639999999999999858e+01,1.885829177174215207e-02
4.643999999999999773e+01,1.796579412795905328e-02
4.647999999999999687e+01,1.761631724962122239e-02
4.652000000000000313e+01,1.041764637359907271e-02
4.656000000000000227e+01,1.800287556733803224e-02
4.660000000000000142e+01,1.602118266108040756e-02
4.664000000000000057e+01,1.653926780058400173e-02
4.667999999999999972e+01,1.488264176865320906e-02
4.671999999999999886e+01,1.844351677203935266e-02
4.675999999999999801e+01,1.548131717411846409e-02
4.679999999999999716e+01,1.828016116432303398e-02
4.684000000000000341e+01,2.455715800587939673e-02
4.688000000000000256e+01,2.463720347707340150e-02
4.692000000000000171e+01,2.504283760995749258e-02
4.696000000000000085e+01,1.838184564140208505e-02
4.700000000000000000e+01,2.139541565617143412e-02
4.703999999999999915e+01,2.299522614866570183e-02
4.707999999999999829e+01,2.916027204175059701e-02
4.711999999999999744e+01,2.119260030121103769e-02
4.715999999999999659e+01,1.746403433937172844e-02
4.720000000000000284e+01,2.569291342849606280e-02
4.724000000000000199e+01,2.489839507578451433e-02
4.728000000000000114e+01,2.551654409943442461e-02
4.732000000000000028e+01,2.319899834776232780e-02
4.735999999999999943e+01,2.022864600116361031e-02
4.739999999999999858e+01,2.345415415720281116e-02
4.743999999999999773e+01,2.635298022744922072e-02
4.747999999999999687e+01,1.990227412121284636e-02
4.752000000000000313e+01,2.519158479675232681e-02
4.756000000000000227e+01,2.961066444274481485e-02
4.760000000000000142e+01,2.587600731789809622e-02
4.764000000000000057e+01,2.735882183001826090e-02
4.767999999999999972e+01,2.014435190573412443e-02
4.771999999999999886e+01,1.999540443327371339e-02
4.775999999999999801e+01,2.408554356667657118e-02
4.779999999999999716e+01,2.871866128528331383e-02
4.784000000000000341e+01,2.487190749840394177e-02
4.788000000000000256e+01,2.037233050013924004e-02
4.792000000000000171e+01,2.087279814784276377e-02
4.796000000000000085e+01,1.963334980940911051e-02
4.800000000000000000e+01,3.024261193631905958e-02
4.803999999999999915e+01,2.628429094390513296e-02
4.807999999999999829e+01,2.036863208711187090e-02
4.811999999999999744e+01,2.054010170371478247e-02
4.815999999999999659e+01,1.310136176401740724e-02
4.820000000000000284e+01,2.207710481588708029e-02
4.824000000000000199e+01,1.539816813911362367e-02
4.828000000000000114e+01,1.893729765279945562e-02
4.832000000000000028e+01,2.041037261113382018e-02
4.835999999999999943e+01,1.709966618999357243e-02
4.839999999999999858e+01,1.672351766164214409e-02
4.843999999999999773e+01,1.765129042032998960e-02
4.847999999999999687e+01,1.683913057642190403e-02
4.852000000000000313e+01,1.830927065971108686e-02
4.856000000000000227e+01,2.010494699893590476e-02
4.860000000000000142e+01,1.820392450792491373e-02
4.864000000000000057e+01,1.978099734975473714e-02
4.867999999999999972e+01,2.114005750376600143e-02
4.871999999999999886e+01,1.586727140336539887e-02
4.875999999999999801e+01,2.233446246087749526e-02
4.879999999999999716e+01,1.608209948470729067e-02
4.884000000000000341e+01,1.798231338943870328e-02
4.888000000000000256e+01,1.607711049477303020e-02
4.892000000000000171e+01,2.091126464074500452e-02
4.896000000000000085e+01,2.237483551829107242e-02
4.900000000000000000e+01,2.188103913310777623e-02
4.903999999999999915e+01,2.356081703682565143e-02
4.907999999999999829e+01,1.741293794221845936e-02
4.911999999999999744e+01,1.300379449278474264e-02
4.915999999999999659e+01,2.120428759407129438e-02
4.920000000000000284e+01,2.364259127737521754e-02
4.924000000000000199e+01,3.227669666661697051e-02
4.928000000000000114e+01,2.938703192411774856e-02
4.932000000000000028e+01,2.649675208644860711e-02
4.935999999999999943e+01,2.915001598912567854e-02
4.939999999999999858e+01,2.897622767248318396e-02
4.943999999999999773e+01,2.510571368363312406e-02
4.947999999999999687e+01,2.036490731215766931e-02
4.952000000000000313e+01,3.084274251179695489e-02
4.956000000000000227e+01,2.316554830029243783e-02
4.960000000000000142e+01,2.461928788063220963e-02
4.964000000000000057e+01,1.824535256799911243e-02
4.967999999999999972e+01,1.589302446447612635e-02
4.971999999999999886e+01,1.941035566310929730e-02
4.975999999999999801e+01,1.673064346176253783e-02
4.979999999999999716e+01,2.274702257396497493e-02
4.984000000000000341e+01,2.006604822754998879e-02
4.988000000000000256e+01,2.108054763378738178e-02
4.992000000000000171e+01,1.948539624792121686e-02
4.996000000000000085e+01,1.908540855606992437e-02
5.000000000000000000e+01,1.727156675594771623e-02
5.003999999999999915e+01,1.632675902795005518e-02
5.007999999999999829e+01,1.364196756979115313e-02
5.011999999999999744e+01,1.595715045719816455e-02
5.015999999999999659e+01,2.120683499707215827e-02
5.020000000000000284e+01,2.069429816423519128e-02
5.024000000000000199e+01,1.778951835745631524e-02
5.028000000000000114e+01,2.477661376616800346e-02
5.032000000000000028e+01,2.371859450901679309e-02
5.035999999999999943e+01,1.961607431233212614e-02
5.039999999999999858e+01,2.866669615169140442e-02
5.043999999999999773e+01,2.249740404935467522e-02
5.047999999999999687e+01,3.187284990710553823e-02
5.052000000000000313e+01,2.657192437596894719e-02
5.056000000000000227e+01,2.898868467625178441e-02
5.060000000000000142e+01,3.727507615852983236e-02
5.064000000000000057e+01,4.197341264476367462e-02
5.067999999999999972e+01,4.123563948552905201e-02
5.071999999999999886e+01,4.528040345534866534e-02
5.075999999999999801e+01,5.356415816684655107e-02
5.079999999999999716e+01,6.554335723264677338e-02
5.084000000000000341e+01,7.991349111251190573e-02
5.088000000000000256e+01,8.004207818713679479e-02
5.092000000000000171e+01,1.072385454765289597e-01
5.096000000000000085e+01,1.495448993003896665e-01
5.100000000000000000e+01,2.051130850092947322e-01
5.103999999999999915e+01,2.123050859432721038e-01
5.107999999999999829e+01,1.859053277940135862e-01
5.111999999999999744e+01,1.866821524904140051e-01
5.115999999999999659e+01,1.721303312158766474e-01
5.120000000000000284e+01,1.520336746575748355e-01
5.124000000000000199e+01,1.126948447858119595e-01
5.128000000000000114e+01,9.574939568610772722e-02
5.132000000000000028e+01,8.097744801852406471e-02
5.135999999999999943e+01,6.229129528197972776e-02
5.139999999999999858e+01,5.664954360491367830e-02
5.143999999999999773e+01,4.872421963006906553e-02
5.147999999999999687e+01,4.449431828031158442e-02
5.152000000000000313e+01,3.798084207639723653e-02
5.156000000000000227e+01,3.461924083200492580e-02
5.160000000000000142e+01,3.604014859650593594e-02
5.164000000000000057e+01,3.419909647574646133e-02
5.167999999999999972e+01,2.822641101683856513e-02
5.171999999999999886e+01,2.834073899430486834e-02
5.175999999999999801e+01,2.160570553131044985e-02
5.179999999999999716e+01,2.519733479996900602e-02
5.184000000000000341e+01,2.009154670055346426e-02
5.188000000000000256e+01,2.205114812129182686e-02
5.192000000000000171e+01,2.346650625537978832e-02
5.196000000000000085e+01,2.509858297748976050e-02
5.200000000000000000e+01,2.672995896575787109e-02
5.203999999999999915e+01,2.009874728235564248e-02
5.207999999999999829e+01,2.129388188102320639e-02
5.211999999999999744e+01,1.879220516881129066e-02
5.215999999999999659e+01,2.009463837430856131e-02
5.220000000000000284e+01,1.835251184357222440e-02
5.224000000000000199e+01,2.345834528561292071e-02
5.228000000000000114e+01,1.595322251335411223e-02
5.232000000000000028e+01,1.670927444137967552e-02
5.235999999999999943e+01,1.822557728472273125e-02
5.239999999999999858e+01,1.854536737212165304e-02
5.243999999999999773e+01,1.245061037719403033e-02
5.247999999999999687e+01,2.016118308349960225e-02
5.252000000000000313e+01,2.069624299823889096e-02
5.256000000000000227e+01,2.046962113162692151e-02
5.260000000000000142e+01,2.187291468589649956e-02
5.264000000000000057e+01,2.892835619084081419e-02
5.267999999999999972e+01,2.598184522369090255e-02
5.271999999999999886e+01,2.825264356348801409e-02
5.275999999999999801e+01,2.889208155628933752e-02
5.279999999999999716e+01,2.398663313776083425e-02
5.284000000000000341e+01,2.701621573754591638e-02
5.288000000000000256e+01,2.678379882820742727e-02
5.292000000000000171e+01,2.437647134992985271e-02
5.296000000000000085e+01,2.001165006819873721e-02
5.300000000000000000e+01,1.521126001054801981e-02
5.303999999999999915e+01,1.486720588146972846e-02
5.307999999999999829e+01,1.647917890051547180e-02
5.311999999999999744e+01,1.515527180681491490e-02
5.315999999999999659e+01,1.535255321751070705e-02
5.320000000000000284e+01,1.870165718197403654e-02
5.324000000000000199e+01,1.563618850032821514e-02
5.328000000000000114e+01,1.365706840116188807e-02
5.332000000000000028e+01,2.124359930959993786e-02
5.335999999999999943e+01,2.154588156266253052e-02
5.339999999999999858e+01,1.934711084300434758e-02
5.343999999999999773e+01,1.225568739201435622e-02
5.347999999999999687e+01,1.820859853466771580e-02
5.352000000000000313e+01,1.481178449427926307e-02
5.356000000000000227e+01,1.597999878784188421e-02
5.360000000000000142e+01,1.671262513264787364e-02
5.364000000000000057e+01,1.787933442520700175e-02
5.367999999999999972e+01,1.621885473220934654e-02
5.371999999999999886e+01,1.857985315121943315e-02
5.375999999999999801e+01,1.680915176624616508e-02
5.379999999999999716e+01,1.786412669669139655e-02
5.384000000000000341e+01,1.620061655066068473e-02
5.388000000000000256e+01,1.877599744755586303e-02
5.392000000000000171e+01,2.211157941039233396e-02
5.396000000000000085e+01,1.685838528296805874e-02
5.400000000000000000e+01,1.747471369146269202e-02
5.403999999999999915e+01,1.363320628313792297e-02
5.407999999999999829e+01,2.174892407724595203e-02
5.411999999999999744e+01,2.258036893038503287e-02
5.415999999999999659e+01,2.080202750337240697e-02
5.420000000000000284e+01,1.565293536515749429e-02
5.424000000000000199e+01,1.996075581435957300e-02
5.428000000000000114e+01,1.567978994778782345e-02
5.432000000000000028e+01,1.955122585020644538e-02
5.435999999999999943e+01,3.548858702957130573e-02
5.439999999999999858e+01,5.740416698480110130e-02
5.443999999999999773e+01,4.322757298664856723e-02
5.447999999999999687e+01,3.611628542635632322e-02
5.452000000000000313e+01,3.661384813492202239e-02
5.456000000000000227e+01,3.917609972045117683e-02
5.460000000000000142e+01,3.488889911409119582e-02
5.464000000000000057e+01,2.810060591114735273e-02
5.467999999999999972e+01,2.337699775059953744e-02
5.471999999999999886e+01,1.626100345892697238e-02
5.475999999999999801e+01,1.979770437842359385e-02
5.479999999999999716e+01,2.050718052306768277e-02
5.484000000000000341e+01,2.360746366286342948e-02
5.488000000000000256e+01,2.301084729672952731e-02
5.492000000000000171e+01,1.741282188442851500e-02
5.496000000000000085e+01,1.692332517864572616e-02
5.500000000000000000e+01,1.621561383116138996e-02
5.503999999999999915e+01,1.855095721890719432e-02
5.507999999999999829e+01,2.110291949592259242e-02
5.511999999999999744e+01,2.126248285992188639e-02
5.515999999999999659e+01,2.076899038211367510e-02
5.520000000000000284e+01,2.244887535208018106e-02
5.524000000000000199e+01,2.347570192386089216e-02
5.528000000000000114e+01,2.450172295029086691e-02
5.532000000000000028e+01,1.856955975558995456e-02
5.535999999999999943e+01,2.285523651187178554e-02
5.539999999999999858e+01,2.540075953883775758e-02
5.543999999999999773e+01,1.718327874579785031e-02
5.547999999999999687e+01,2.070556037489634446e-02
5.552000000000000313e+01,2.281381150562361571e-02
5.556000000000000227e+01,2.448641205632679299e-02
5.560000000000000142e+01,2.670174194535292547e-02
5.564000000000000057e+01,2.456789391183174937e-02
5.567999999999999972e+01,3.004285907968369876e-02
5.571999999999999886e+01,2.584190169857938230e-02
5.575999999999999801e+01,2.935846398430726895e-02
5.579999999999999716e+01,3.124356878066528870e-02
5.584000000000000341e+01,3.312785013702471137e-02
5.588000000000000256e+01,3.935966764869074791e-02
5.592000000000000171e+01,4.015520807211193921e-02
5.596000000000000085e+01,4.899438883693175290e-02
5.600000000000000000e+01,5.402792528468883249e-02
5.603999999999999915e+01,4.558071319366904101e-02
5.607999999999999829e+01,4.898195337378803693e-02
5.611999999999999744e+01,5.542621377803058635e-02
5.615999999999999659e+01,4.665037745953108661e-02
5.620000000000000284e+01,4.863589935922943419e-02
5.624000000000000199e+01,4.420675274863360149e-02
5.628000000000000114e+01,4.575576483901346719e-02
5.632000000000000028e+01,4.643426597642625470e-02
5.635999999999999943e+01,4.928610749412891401e-02
5.639999999999999858e+01,4.778874680369070427e-02
5.643999999999999773e+01,5.216083067963431935e-02
5.647999999999999687e+01,5.903237816681247696e-02
5.652000000000000313e+01,6.742500679049977241e-02
5.656000000000000227e+01,6.929424765654251805e-02
5.660000000000000142e+01,5.355177925934089672e-02
5.664000000000000057e+01,5.400610611212456474e-02
5.667999999999999972e+01,5.685118116335973609e-02
5.671999999999999886e+01,5.534704378094102567e-02
5.675999999999999801e+01,4.525404083502223423e-02
5.679999999999999716e+01,4.777043030569935733e-02
5.684000000000000341e+01,4.637243959550459843e-02
5.688000000000000256e+01,4.149490351359828855e-02
5.692000000000000171e+01,4.063874328856906942e-02
5.696000000000000085e+01,4.010785089975759526e-02
5.700000000000000000e+01,3.544515517364301566e-02
5.703999999999999915e+01,3.730413897209740315e-02
5.707999999999999829e+01,3.720549731361758733e-02
5.711999999999999744e+01,3.025732293733326625e-02
5.715999999999999659e+01,2.950469718553847681e-02
5.720000000000000284e+01,2.657702409856734643e-02
5.724000000000000199e+01,2.082204826720660679e-02
5.728000000000000114e+01,2.463259690272612615e-02
5.732000000000000028e+01,2.583325828115249495e-02
5.735999999999999943e+01,2.246726873122408680e-02
5.739999999999999858e+01,2.453585698378890276e-02
5.743999999999999773e+01,2.421197218836785778e-02
5.747999999999999687e+01,2.149561306677186256e-02
5.752000000000000313e+01,2.193093845451710849e-02
5.756000000000000227e+01,2.475698392055291838e-02
5.760000000000000142e+01,2.355991589828598798e-02
5.764000000000000057e+01,1.866586017503927761e-02
5.767999999999999972e+01,2.431569733331769706e-02
5.771999999999999886e+01,2.115922020788214841e-02
5.775999999999999801e+01,1.821927633304432775e-02
5.779999999999999716e+01,2.114873356615782837e-02
5.784000000000000341e+01,2.201183203490621881e-02
5.788000000000000256e+01,2.091727948293776659e-02
5.792000000000000171e+01,1.775636561022596316e-02
5.796000000000000085e+01,1.035490870183449277e-02
5.800000000000000000e+01,1.947633065050987516e-02
5.803999999999999915e+01,1.826950178423520851e-02
5.807999999999999829e+01,1.238728996036404274e-02
5.811999999999999744e+01,1.270059608444317097e-02
5.815999999999999659e+01,1.714394746337366895e-02
5.820000000000000284e+01,1.321580530767003415e-02
5.824000000000000199e+01,1.091739834818018784e-02
5.828000000000000114e+01,8.618089979154652108e-03
5.832000000000000028e+01,9.687858599362433529e-03
5.835999999999999943e+01,1.912731793513290646e-02
5.839999999999999858e+01,1.552078940631711895e-02
5.843999999999999773e+01,1.484849794481780602e-02
5.847999999999999687e+01,1.004435585301747223e-02
5.852000000000000313e+01,1.360989936402328543e-02
5.856000000000000227e+01,8.477810771180699714e-03
5.860000000000000142e+01,8.562843591482620365e-03
5.864000000000000057e+01,1.201694317550477432e-02
5.867999999999999972e+01,6.121152690086958427e-03
5.871999999999999886e+01,9.464713591228536213e-03
5.875999999999999801e+01,1.400315698477576538e-02
5.879999999999999716e+01,1.256168615127376854e-02
5.884000000000000341e+01,1.601120199626938911e-02
5.888000000000000256e+01,1.369821910151227708e-02
5.892000000000000171e+01,1.247140456456689861e-02
5.896000000000000085e+01,2.059264276688347814e-02
5.900000000000000000e+01,1.729850925933719766e-02
5.903999999999999915e+01,1.682988462443303634e-02
5.907999999999999829e+01,2.081740291154225708e-02
5.911999999999999744e+01,2.502141099081870573e-02
5.915999999999999659e+01,2.639805497262714615e-02
5.920000000000000284e+01,2.331669825121807788e-02
5.924000000000000199e+01,2.480018836090324211e-02
5.928000000000000114e+01,1.986891281792015074e-02
5.932000000000000028e+01,1.613250187269484742e-02
5.935999999999999943e+01,1.848286022971938267e-02
5.939999999999999858e+01,1.474457616502034690e-02
5.943999999999999773e+01,1.317953406004794548e-02
5.947999999999999687e+01,1.346160557110095447e-02
5.952000000000000313e+01,1.309048191773099466e-02
5.956000000000000227e+01,7.391673882742438688e-03
5.960000000000000142e+01,1.125831617966444563e-02
5.964000000000000057e+01,5.883746752444684279e-03
5.967999999999999972e+01,5.617555205425420368e-03
5.971999999999999886e+01,1.024232221674284057e-02
5.975999999999999801e+01,9.974234542845485801e-03
5.979999999999999716e+01,9.379069822713291885e-03
5.984000000000000341e+01,7.804572647132946260e-03
5.988000000000000256e+01,1.231682815734373194e-02
5.992000000000000171e+01,8.783662236299765586e-03
5.996000000000000085e+01,9.271775029758797318e-03
