2.003999999999999915e+01,1.303690301661926225e-02
2.007999999999999829e+01,1.815129898693463445e-02
2.012000000000000099e+01,8.196566365978664656e-03
2.016000000000000014e+01,1.606428764886561403e-02
2.019999999999999929e+01,1.994748733533403123e-02
2.023999999999999844e+01,1.318090995298126095e-02
2.028000000000000114e+01,1.706439060717386547e-02
2.032000000000000028e+01,1.189195801204175930e-02
2.035999999999999943e+01,1.642775253144400024e-02
2.039999999999999858e+01,1.429843025406338057e-02
2.044000000000000128e+01,1.187945152096476359e-02
2.048000000000000043e+01,1.612586404270049262e-02
2.051999999999999957e+01,7.621490218144358342e-03
2.055999999999999872e+01,1.346203884753723046e-02
2.060000000000000142e+01,1.039156600689853521e-02
2.064000000000000057e+01,1.659462469059986081e-02
2.067999999999999972e+01,8.525477289916942938e-03
2.071999999999999886e+01,1.654001155845747500e-02
2.076000000000000156e+01,1.303537830108509807e-02
2.080000000000000071e+01,1.199412208338748384e-02
2.083999999999999986e+01,1.769069903203746366e-02
2.087999999999999901e+01,2.150374630261235251e-02
2.092000000000000171e+01,1.553638526254886784e-02
2.096000000000000085e+01,1.022118783932398321e-02
2.100000000000000000e+01,1.504889648499754470e-02
2.103999999999999915e+01,1.205230202216198317e-02
2.107999999999999829e+01,1.941595744518875843e-02
2.112000000000000099e+01,1.757878831057968841e-02
2.116000000000000014e+01,2.530493498219389681e-02
2.119999999999999929e+01,2.332311670127680189e-02
2.123999999999999844e+01,1.713941275466222824e-02
2.128000000000000114e+01,2.457613403079205935e-02
2.132000000000000028e+01,2.940483346072095966e-02
2.135999999999999943e+01,3.039388716099111418e-02
2.139999999999999858e+01,3.746872811077800458e-02
2.144000000000000128e+01,7.185674299426229872e-02
2.148000000000000043e+01,1.281967479203881266e-01
2.151999999999999957e+01,1.559921925992651670e-01
2.155999999999999872e+01,1.239453583552745236e-01
2.160000000000000142e+01,8.689969930286853272e-02
2.164000000000000057e+01,4.579704419416726069e-02
2.167999999999999972e+01,3.070348709803481443e-02
2.171999999999999886e+01,2.582527147264145409e-02
2.176000000000000156e+01,2.326551868542377915e-02
2.180000000000000071e+01,2.382116064613008788e-02
2.183999999999999986e+01,1.510351660866935015e-02
2.187999999999999901e+01,1.565938167334272532e-02
2.192000000000000171e+01,1.020213824662193937e-02
2.196000000000000085e+01,1.771327195592384621e-02
2.200000000000000000e+01,1.500928729845376480e-02
2.203999999999999915e+01,1.607272883979917952e-02
2.207999999999999829e+01,1.568730953127625907e-02
2.212000000000000099e+01,1.269385391061315406e-02
2.216000000000000014e+01,1.136681810448265592e-02
2.219999999999999929e+01,5.982776115899422417e-03
2.223999999999999844e+01,1.248037988247118792e-02
2.228000000000000114e+01,1.021182864291077588e-02
2.232000000000000028e+01,1.468108380771032846e-02
2.235999999999999943e+01,1.349946463077874616e-02
2.239999999999999858e+01,1.188325671420619942e-02
2.244000000000000128e+01,1.244060249738905381e-02
2.248000000000000043e+01,9.448075983341958431e-03
2.251999999999999957e+01,1.326580067835592645e-02
2.255999999999999872e+01,1.324385794480225156e-02
2.260000000000000142e+01,1.568525970255990956e-02
2.264000000000000057e+01,1.711248101140730449e-02
2.267999999999999972e+01,1.209188955910262160e-02
2.271999999999999886e+01,1.351930359344459889e-02
2.276000000000000156e+01,1.328049921831200506e-02
2.280000000000000071e+01,1.267954729175466318e-02
2.283999999999999986e+01,6.789954449832339735e-03
2.287999999999999901e+01,7.638157886112452097e-03
2.292000000000000171e+01,1.305070424172023041e-02
2.296000000000000085e+01,1.600009593832334154e-02
2.300000000000000000e+01,1.076290697893640853e-02
2.303999999999999915e+01,8.278848239337945406e-03
2.307999999999999829e+01,8.982609523346549163e-03
2.312000000000000099e+01,5.484451146700370164e-03
2.316000000000000014e+01,7.202667140273399070e-03
2.319999999999999929e+01,8.993418876567634002e-03
2.323999999999999844e+01,1.360974563735137775e-02
2.328000000000000114e+01,8.373172991789934808e-03
2.332000000000000028e+01,9.005007613933246891e-03
2.335999999999999943e+01,6.811438238172636515e-03
2.339999999999999858e+01,9.399548365733841407e-03
2.344000000000000128e+01,6.988800413219351838e-03
2.348000000000000043e+01,1.008421472929202367e-02
2.351999999999999957e+01,7.238940043278005443e-03
2.355999999999999872e+01,9.754929336885362345e-03
2.360000000000000142e+01,7.561851341972895824e-03
2.364000000000000057e+01,9.933103247042685338e-03
2.367999999999999972e+01,1.346360853305902591e-02
2.371999999999999886e+01,8.010587510694763824e-03
2.376000000000000156e+01,6.252513164190649265e-03
2.380000000000000071e+01,4.639412132139229990e-03
2.383999999999999986e+01,8.532466859002330040e-03
2.387999999999999901e+01,4.311373438528076987e-03
2.392000000000000171e+01,5.306640645630745536e-03
2.396000000000000085e+01,1.543048250105358808e-02
2.400000000000000000e+01,9.398399287609920244e-03
2.403999999999999915e+01,7.568396635249220218e-03
2.407999999999999829e+01,2.840528544453361018e-03
2.412000000000000099e+01,8.400406947764709614e-03
2.416000000000000014e+01,4.324715295755443382e-03
2.419999999999999929e+01,1.147859816667652980e-02
2.423999999999999844e+01,1.276422743735143583e-02
2.428000000000000114e+01,7.674463436181705629e-03
2.432000000000000028e+01,2.874560188975957675e-03
2.435999999999999943e+01,8.072605411351935212e-03
2.439999999999999858e+01,1.414009731058539672e-02
2.444000000000000128e+01,7.094489874494822740e-03
2.448000000000000043e+01,1.366924979739156387e-02
2.451999999999999957e+01,1.053598473410915885e-02
2.455999999999999872e+01,3.852809762154577738e-03
2.460000000000000142e+01,1.081911540381781710e-03
2.464000000000000057e+01,1.077220304543359541e-02
2.467999999999999972e+01,1.089936351349009638e-02
2.471999999999999886e+01,1.160617118728475214e-02
2.476000000000000156e+01,8.980410599480275619e-03
2.480000000000000071e+01,8.745506300468199046e-03
2.483999999999999986e+01,1.075656072457967759e-02
2.487999999999999901e+01,1.146360051040722257e-02
2.492000000000000171e+01,8.548275456704029773e-03
2.496000000000000085e+01,8.313597483349140921e-03
2.500000000000000000e+01,6.485109017075621485e-03
2.503999999999999915e+01,4.221984073561483100e-03
2.507999999999999829e+01,7.682337730313761742e-03
2.512000000000000099e+01,1.362207130246505249e-03
2.516000000000000014e+01,7.648153696515115098e-03
2.519999999999999929e+01,7.993380882224484021e-03
2.523999999999999844e+01,9.787626925042584858e-03
2.528000000000000114e+01,5.134013192406015370e-03
2.532000000000000028e+01,9.536501094806946327e-03
2.535999999999999943e+01,6.911540405671789435e-03
2.539999999999999858e+01,7.619254631291718337e-03
2.544000000000000128e+01,9.558638833977757890e-03
2.548000000000000043e+01,9.252168073508249685e-03
2.551999999999999957e+01,1.140898900367174826e-02
2.555999999999999872e+01,9.653639836809384256e-03
2.560000000000000142e+01,4.927949325041335905e-03
2.564000000000000057e+01,8.099179922960103931e-03
2.567999999999999972e+01,1.286431826409289644e-02
2.571999999999999886e+01,7.486719393021980598e-03
2.576000000000000156e+01,7.832586826169074881e-03
2.580000000000000071e+01,8.830530357222227122e-03
2.583999999999999986e+01,9.973410314582851349e-03
2.587999999999999901e+01,5.030661752964045788e-03
2.592000000000000171e+01,1.508477451417448295e-02
2.596000000000000085e+01,1.448290961630532662e-03
2.600000000000000000e+01,7.076630709299427772e-04
2.603999999999999915e+01,4.169079576464133387e-03
2.607999999999999829e+01,1.009377764647383796e-02
2.612000000000000099e+01,3.195139687430743024e-03
2.616000000000000014e+01,9.916838708902508612e-03
2.619999999999999929e+01,9.248831843672380981e-03
2.623999999999999844e+01,1.017472259549868745e-02
2.628000000000000114e+01,9.796573393647308586e-03
2.632000000000000028e+01,2.825648768248397238e-03
2.635999999999999943e+01,6.287326974698525216e-03
2.639999999999999858e+01,9.459240954183096087e-03
2.644000000000000128e+01,1.002304050545536722e-02
2.648000000000000043e+01,1.283276912467574103e-02
2.651999999999999957e+01,1.732428164084739118e-03
2.655999999999999872e+01,7.295250640848045288e-03
2.660000000000000142e+01,6.844880000472402734e-03
2.664000000000000057e+01,7.481260795882157914e-03
2.667999999999999972e+01,1.145029336054409312e-02
2.671999999999999886e+01,2.233736940769150137e-03
2.676000000000000156e+01,9.245649814748095260e-03
2.680000000000000071e+01,1.256271543305310413e-02
2.683999999999999986e+01,8.604673433686245898e-05
2.687999999999999901e+01,8.619440957755014968e-03
2.692000000000000171e+01,1.099473943528673538e-02
2.696000000000000085e+01,9.530290921584758448e-03
2.700000000000000000e+01,1.002196838822667219e-02
2.703999999999999915e+01,1.036876689752343553e-02
2.707999999999999829e+01,8.469681511786139247e-03
2.712000000000000099e+01,6.860406249225379366e-03
2.716000000000000014e+01,5.323595122986389712e-03
2.719999999999999929e+01,6.322493730093844966e-03
2.723999999999999844e+01,1.043668871673821691e-02
2.728000000000000114e+01,4.697911967341029255e-03
2.732000000000000028e+01,5.479505946625584309e-03
2.735999999999999943e+01,7.202941499978248938e-03
2.739999999999999858e+01,6.173348423619630203e-03
2.744000000000000128e+01,7.462115477267865053e-03
2.748000000000000043e+01,8.243753511374756274e-03
2.751999999999999957e+01,4.461150216231200144e-03
2.755999999999999872e+01,1.342947753197758741e-02
2.760000000000000142e+01,2.257151516904586184e-03
2.764000000000000057e+01,3.038822033082408391e-03
2.767999999999999972e+01,5.849054654741570221e-03
2.771999999999999886e+01,7.355221284032353521e-03
2.776000000000000156e+01,9.803222254421635126e-03
2.780000000000000071e+01,2.688035770652504562e-03
2.783999999999999986e+01,6.657461147418212120e-03
2.787999999999999901e+01,6.497329212376380843e-03
2.792000000000000171e+01,2.642329769345672357e-03
2.796000000000000085e+01,5.452586324617113289e-03
2.800000000000000000e+01,1.021895077780828401e-02
2.803999999999999915e+01,3.031325537923590732e-03
2.807999999999999829e+01,1.784469914590862362e-03
2.812000000000000099e+01,4.160033706563390742e-03
2.816000000000000014e+01,1.681550911790329842e-03
2.819999999999999929e+01,7.534633462814031672e-03
2.823999999999999844e+01,3.679623761040959340e-03
2.828000000000000114e+01,9.532697961003359921e-03
2.832000000000000028e+01,5.460333198017245336e-03
2.835999999999999943e+01,3.706311929207831667e-03
2.839999999999999858e+01,3.763494482976643962e-03
2.844000000000000128e+01,1.244203172750416378e-02
2.848000000000000043e+01,5.109459736277151450e-03
2.851999999999999957e+01,6.398240989214953357e-03
2.855999999999999872e+01,1.891138947020404261e-03
2.860000000000000142e+01,1.020739713118067049e-02
2.864000000000000057e+01,1.033697267447904709e-02
2.867999999999999972e+01,7.568599600191423110e-03
2.871999999999999886e+01,6.538976140920399645e-03
2.876000000000000156e+01,1.094297105385142951e-02
2.880000000000000071e+01,1.223166991574780975e-02
2.883999999999999986e+01,4.609198308438176156e-03
2.887999999999999901e+01,1.053456607626388104e-02
2.892000000000000171e+01,1.254770299011881592e-02
2.896000000000000085e+01,5.794564107248634764e-03
2.900000000000000000e+01,5.924007680517385729e-03
2.903999999999999915e+01,1.373296561967330721e-02
2.907999999999999829e+01,1.045729611426346288e-02
2.912000000000000099e+01,1.174585741715186704e-02
2.916000000000000014e+01,1.006401300170479268e-02
2.919999999999999929e+01,9.976012679338890077e-03
2.923999999999999844e+01,1.039512940896822335e-02
2.928000000000000114e+01,1.161115615203960928e-02
2.932000000000000028e+01,1.652202903269325840e-02
2.935999999999999943e+01,1.440538099211447626e-02
2.939999999999999858e+01,8.883632366302839437e-03
2.944000000000000128e+01,1.075159718866504181e-02
2.948000000000000043e+01,1.240219051138141855e-02
2.951999999999999957e+01,9.633403182371019779e-03
2.955999999999999872e+01,1.802164503331193934e-02
2.960000000000000142e+01,1.800584162070599861e-02
2.964000000000000057e+01,1.255637748987934767e-02
2.967999999999999972e+01,1.340989614965584255e-02
2.971999999999999886e+01,1.440828107593431287e-02
2.976000000000000156e+01,1.055259048358871479e-02
2.980000000000000071e+01,2.046206789410610211e-02
2.983999999999999986e+01,1.305633989542544574e-02
2.987999999999999901e+01,2.050250477080281172e-02
2.992000000000000171e+01,2.012420596574505949e-02
2.996000000000000085e+01,2.133973751112614586e-02
3.000000000000000000e+01,2.994497237852357038e-02
3.003999999999999915e+01,2.253906980158487672e-02
3.007999999999999829e+01,2.245042067888262938e-02
3.012000000000000099e+01,2.641884533375303198e-02
3.016000000000000014e+01,3.553106936068804733e-02
3.019999999999999929e+01,3.283416147888304493e-02
3.023999999999999844e+01,3.673001994626735184e-02
3.028000000000000114e+01,4.823292193614702600e-02
3.032000000000000028e+01,6.473472356253158477e-02
3.035999999999999943e+01,7.326715670984258744e-02
3.039999999999999858e+01,9.223211963600934371e-02
3.044000000000000128e+01,1.282224179456545599e-01
3.048000000000000043e+01,1.902216551425365831e-01
3.051999999999999957e+01,3.516200811647058333e-01
3.055999999999999872e+01,7.165260765330472292e-01
3.060000000000000142e+01,1.000000000000000000e+00
3.064000000000000057e+01,9.260858145450585610e-01
3.067999999999999972e+01,7.208225935450287558e-01
3.071999999999999886e+01,4.540506142998501637e-01
3.076000000000000156e+01,2.477730173633324040e-01
3.080000000000000071e+01,1.560363242168826547e-01
3.083999999999999986e+01,1.100145340105700559e-01
3.087999999999999901e+01,7.812013438403214716e-02
3.092000000000000171e+01,7.165507831897699464e-02
3.096000000000000085e+01,5.482984502625812273e-02
3.100000000000000000e+01,4.684326539685004093e-02
3.103999999999999915e+01,4.537698922950612196e-02
3.107999999999999829e+01,4.499738421198455629e-02
3.112000000000000099e+01,4.150244119220442701e-02
3.116000000000000014e+01,3.460236576212506049e-02
3.119999999999999929e+01,3.451238458566566192e-02
3.123999999999999844e+01,3.507438113872517194e-02
3.128000000000000114e+01,2.882616731585586900e-02
3.132000000000000028e+01,2.960539084027340520e-02
3.135999999999999943e+01,3.328249098108283788e-02
3.139999999999999858e+01,3.036672383963028715e-02
3.144000000000000128e+01,3.100086765864909152e-02
3.148000000000000043e+01,3.076556802250046685e-02
3.151999999999999957e+01,2.763226841468148856e-02
3.155999999999999872e+01,3.174374707792535638e-02
3.160000000000000142e+01,3.404395064069385551e-02
3.164000000000000057e+01,3.989406154744888633e-02
3.167999999999999972e+01,4.074516537495365825e-02
3.171999999999999886e+01,3.652481297872531979e-02
3.176000000000000156e+01,3.172480574899455563e-02
3.180000000000000071e+01,3.148898086666547524e-02
3.183999999999999986e+01,3.212246812795865186e-02
3.187999999999999901e+01,3.326302470364747577e-02
3.192000000000000171e+01,3.570758250348024521e-02
3.196000000000000085e+01,2.800929025678296214e-02
3.200000000000000000e+01,3.212001885959556158e-02
3.203999999999999915e+01,2.956542018620888015e-02
3.207999999999999829e+01,2.722809352598929214e-02
3.211999999999999744e+01,2.887535605730823240e-02
3.215999999999999659e+01,2.661032914760230739e-02
3.220000000000000284e+01,2.825744156165507434e-02
3.224000000000000199e+01,2.577491782453128835e-02
3.228000000000000114e+01,2.278517827223049477e-02
3.232000000000000028e+01,2.486675061277234672e-02
3.235999999999999943e+01,2.803497095763371819e-02
3.239999999999999858e+01,3.207249331995988550e-02
3.243999999999999773e+01,2.632939906212210593e-02
3.247999999999999687e+01,3.348204329201960594e-02
3.252000000000000313e+01,2.266739786114909186e-02
3.256000000000000227e+01,3.003722421799284031e-02
3.260000000000000142e+01,2.226524789372596319e-02
3.264000000000000057e+01,2.492576084368489445e-02
3.267999999999999972e+01,2.975964232937655315e-02
3.271999999999999886e+01,3.372405793769499283e-02
3.275999999999999801e+01,3.587717746992611506e-02
3.279999999999999716e+01,4.455056863915492910e-02
3.284000000000000341e+01,7.278494653555192540e-02
3.288000000000000256e+01,2.901820644320829978e-01
3.292000000000000171e+01,7.554251427660545470e-01
3.296000000000000085e+01,7.186730215397912902e-01
3.300000000000000000e+01,5.172455490716876270e-01
3.303999999999999915e+01,4.296344556771628520e-01
3.307999999999999829e+01,2.395087549717317688e-01
3.311999999999999744e+01,9.777850756239044039e-02
3.315999999999999659e+01,3.972609384338986194e-02
3.320000000000000284e+01,3.303951724250823313e-02
3.324000000000000199e+01,3.352524011303105456e-02
3.328000000000000114e+01,2.821499433937985080e-02
3.332000000000000028e+01,2.333934342024767544e-02
3.335999999999999943e+01,2.259315611282003075e-02
3.339999999999999858e+01,2.322339168873457579e-02
3.343999999999999773e+01,2.334639047386014715e-02
3.347999999999999687e+01,2.593253701352296603e-02
3.352000000000000313e+01,2.598288952259685675e-02
3.356000000000000227e+01,2.545355464980495613e-02
3.360000000000000142e+01,2.354759903880506919e-02
3.364000000000000057e+01,1.917829564851131555e-02
3.367999999999999972e+01,2.096700587675240368e-02
3.371999999999999886e+01,2.174133530282428353e-02
3.375999999999999801e+01,2.599308531695765714e-02
3.379999999999999716e+01,2.350702780863940522e-02
3.384000000000000341e+01,2.131065890960780196e-02
3.388000000000000256e+01,2.317129579823424754e-02
3.392000000000000171e+01,2.213388931737245852e-02
3.396000000000000085e+01,1.950251032507224411e-02
3.400000000000000000e+01,2.389852021916234054e-02
3.403999999999999915e+01,2.699034983996376896e-02
3.407999999999999829e+01,2.428619635065195140e-02
3.411999999999999744e+01,2.542169904565859395e-02
3.415999999999999659e+01,2.829585298729474924e-02
3.420000000000000284e+01,2.761992270569061173e-02
3.424000000000000199e+01,3.020405906902660573e-02
3.428000000000000114e+01,2.539834343967403013e-02
3.432000000000000028e+01,2.544655827475814786e-02
3.435999999999999943e+01,2.411813862899196345e-02
3.439999999999999858e+01,2.626712799853588021e-02
3.443999999999999773e+01,3.240066460839441387e-02
3.447999999999999687e+01,2.839130560401421227e-02
3.452000000000000313e+01,2.807669870861101771e-02
3.456000000000000227e+01,2.848645793026467060e-02
3.460000000000000142e+01,2.838895938551743922e-02
3.464000000000000057e+01,2.575564655786628798e-02
3.467999999999999972e+01,2.493342399517008492e-02
3.471999999999999886e+01,2.244476675720721501e-02
3.475999999999999801e+01,1.857946780542441348e-02
3.479999999999999716e+01,2.768231381133891972e-02
3.484000000000000341e+01,2.425145979420632869e-02
3.488000000000000256e+01,3.320916191868968081e-02
3.492000000000000171e+01,2.789440046506967349e-02
3.496000000000000085e+01,2.272441052604944750e-02
3.500000000000000000e+01,2.653789876301557854e-02
3.503999999999999915e+01,3.064105391035940387e-02
3.507999999999999829e+01,3.119410892192973558e-02
3.511999999999999744e+01,3.167458729135418788e-02
3.515999999999999659e+01,3.483552830040118758e-02
3.520000000000000284e+01,3.748920069359285012e-02
3.524000000000000199e+01,4.601106481199406656e-02
3.528000000000000114e+01,4.279615358412676429e-02
3.532000000000000028e+01,5.515752107378978086e-02
3.535999999999999943e+01,7.599522128146489475e-02
3.539999999999999858e+01,1.143653061320965142e-01
3.543999999999999773e+01,2.083031960250010250e-01
3.547999999999999687e+01,2.693493679688606091e-01
3.552000000000000313e+01,2.332420716484580880e-01
3.556000000000000227e+01,1.980040202050602494e-01
3.560000000000000142e+01,1.527679497374805906e-01
3.564000000000000057e+01,9.456347425379890703e-02
3.567999999999999972e+01,6.273008573467847571e-02
3.571999999999999886e+01,5.016783818060111672e-02
3.575999999999999801e+01,5.057371822509395404e-02
3.579999999999999716e+01,3.504080509167380869e-02
3.584000000000000341e+01,3.928616970170738937e-02
3.588000000000000256e+01,3.346106180329443819e-02
3.592000000000000171e+01,3.466330807301749167e-02
3.596000000000000085e+01,3.840110567405201347e-02
3.600000000000000000e+01,3.837144123992500266e-02
3.603999999999999915e+01,3.595083404987222536e-02
3.607999999999999829e+01,3.686270865428520338e-02
3.611999999999999744e+01,3.676015905871114070e-02
3.615999999999999659e+01,4.013498665338077059e-02
3.620000000000000284e+01,4.119131702012270718e-02
3.624000000000000199e+01,4.688419786948925388e-02
3.628000000000000114e+01,1.025663401405758485e-01
3.632000000000000028e+01,1.327464882343461772e-01
3.635999999999999943e+01,1.058371297904376201e-01
3.639999999999999858e+01,9.160609368760415372e-02
3.643999999999999773e+01,7.498410759587521845e-02
3.647999999999999687e+01,4.235086760899905989e-02
3.652000000000000313e+01,3.319076255001064679e-02
3.656000000000000227e+01,2.743557902711036417e-02
3.660000000000000142e+01,2.588224895004645476e-02
3.664000000000000057e+01,1.904002842016510114e-02
3.667999999999999972e+01,2.168839463609910714e-02
3.671999999999999886e+01,1.629482894755640565e-02
3.675999999999999801e+01,2.792648436157189190e-02
3.679999999999999716e+01,1.449082744582310713e-02
3.684000000000000341e+01,1.909466808264162485e-02
3.688000000000000256e+01,1.877185603279055148e-02
3.692000000000000171e+01,1.692746636871166055e-02
3.696000000000000085e+01,1.638698679335927680e-02
3.700000000000000000e+01,1.418003131481329442e-02
3.703999999999999915e+01,1.603002448346522654e-02
3.707999999999999829e+01,1.324315503370651452e-02
3.711999999999999744e+01,1.349895488794873762e-02
3.715999999999999659e+01,1.665252648052314294e-02
3.720000000000000284e+01,1.140191538312759593e-02
3.724000000000000199e+01,1.201945984609341204e-02
3.728000000000000114e+01,1.024603913092757453e-02
3.732000000000000028e+01,1.745605464052417052e-02
3.735999999999999943e+01,9.886423502601125735e-03
3.739999999999999858e+01,1.347367977842449903e-02
3.743999999999999773e+01,1.162713429311929350e-02
3.747999999999999687e+01,7.534516855569459680e-03
3.752000000000000313e+01,1.858344782710134174e-02
3.756000000000000227e+01,1.434558958632722002e-02
3.760000000000000142e+01,1.706260671403076953e-02
3.764000000000000057e+01,2.456104585133707038e-02
3.767999999999999972e+01,4.234698628507987950e-02
3.771999999999999886e+01,5.013486935990177362e-02
3.775999999999999801e+01,4.147678486695796640e-02
3.779999999999999716e+01,2.948589631760489133e-02
3.784000000000000341e+01,2.908657775284721747e-02
3.788000000000000256e+01,2.165958420460390235e-02
3.792000000000000171e+01,1.734769391560820467e-02
3.796000000000000085e+01,1.136931036429179517e-02
3.800000000000000000e+01,1.234579494848338059e-02
3.803999999999999915e+01,1.071395534834322996e-02
3.807999999999999829e+01,1.118293821765982063e-02
3.811999999999999744e+01,1.244867125178945010e-02
3.815999999999999659e+01,1.074383582576678847e-02
3.820000000000000284e+01,1.019799122389290248e-02
3.824000000000000199e+01,1.581007778470001901e-02
3.828000000000000114e+01,6.280258956227636503e-03
3.832000000000000028e+01,7.327723536184092314e-03
3.835999999999999943e+01,6.491342357292380350e-03
3.839999999999999858e+01,5.727222068275657392e-03
3.843999999999999773e+01,1.213530722205814240e-02
3.847999999999999687e+01,9.269805486136702827e-03
3.852000000000000313e+01,5.027594046480731403e-03
3.856000000000000227e+01,7.450446931431584964e-03
3.860000000000000142e+01,1.067004130163189297e-02
3.864000000000000057e+01,6.644601682146487713e-03
3.867999999999999972e+01,5.444457894522662308e-03
3.871999999999999886e+01,8.156335533252439401e-03
3.875999999999999801e+01,3.768073854777437889e-03
3.879999999999999716e+01,1.097136480177069752e-02
3.884000000000000341e+01,1.245103498749795291e-02
3.888000000000000256e+01,9.366258427637101647e-03
3.892000000000000171e+01,9.469015465785712848e-03
3.896000000000000085e+01,1.109299169137044003e-02
3.900000000000000000e+01,1.749836533446115505e-02
3.903999999999999915e+01,2.086070618368047330e-02
3.907999999999999829e+01,7.182145992469667062e-02
3.911999999999999744e+01,1.612521247647855094e-01
3.915999999999999659e+01,1.507762155155233097e-01
3.920000000000000284e+01,9.610656734559341885e-02
3.924000000000000199e+01,9.359957970898616364e-02
3.928000000000000114e+01,5.059372118559973819e-02
3.932000000000000028e+01,1.504984587722303646e-02
3.935999999999999943e+01,8.485134152780383909e-03
3.939999999999999858e+01,6.122225243386663490e-03
3.943999999999999773e+01,6.222356317282577882e-03
3.947999999999999687e+01,9.727356126588274088e-03
3.952000000000000313e+01,6.566893403162453804e-03
3.956000000000000227e+01,7.970472707527376244e-03
3.960000000000000142e+01,9.446291202858371483e-03
3.964000000000000057e+01,7.371927106561985271e-03
3.967999999999999972e+01,1.283198813678857950e-02
3.971999999999999886e+01,1.191637670254257382e-02
3.975999999999999801e+01,1.440562894062758642e-02
3.979999999999999716e+01,1.182327884899282006e-02
3.984000000000000341e+01,1.134171940174839854e-02
3.988000000000000256e+01,8.976286710371225372e-03
3.992000000000000171e+01,9.218782165091960953e-03
3.996000000000000085e+01,1.105492714601067315e-02
4.000000000000000000e+01,9.992918816302662557e-03
4.003999999999999915e+01,6.322550137414744212e-03
4.007999999999999829e+01,9.462115140220859338e-03
4.011999999999999744e+01,5.646413076097288493e-03
4.015999999999999659e+01,1.008961167079243208e-02
4.020000000000000284e+01,4.389811219783061949e-03
4.024000000000000199e+01,6.296874190325098611e-03
4.028000000000000114e+01,2.552738782096328381e-03
4.032000000000000028e+01,4.604254819176822194e-03
4.035999999999999943e+01,5.641269986792125414e-03
4.039999999999999858e+01,4.214815137926675517e-03
4.043999999999999773e+01,7.352386404318769254e-03
4.047999999999999687e+01,8.026486207636168019e-03
4.052000000000000313e+01,3.556522240702520311e-03
4.056000000000000227e+01,5.171999064040048479e-03
4.060000000000000142e+01,6.425006468804006499e-03
4.064000000000000057e+01,8.402270049486354128e-03
4.067999999999999972e+01,4.003843806568962646e-03
4.071999999999999886e+01,9.965312310704778354e-03
4.075999999999999801e+01,7.232740066697191696e-03
4.079999999999999716e+01,6.890734792696532468e-03
4.084000000000000341e+01,4.012803124762600107e-03
4.088000000000000256e+01,7.582548566653800858e-03
4.092000000000000171e+01,3.327631421444863548e-03
4.096000000000000085e+01,4.288766779306327215e-03
4.100000000000000000e+01,6.119048645785350737e-03
4.103999999999999915e+01,5.558297344218155953e-03
4.107999999999999829e+01,4.345274259770099193e-03
4.111999999999999744e+01,3.711601829305001977e-03
4.115999999999999659e+01,8.656220391355126317e-03
4.120000000000000284e+01,5.341480776110799772e-03
4.124000000000000199e+01,1.086520966015462608e-02
4.128000000000000114e+01,4.579606282199512844e-03
4.132000000000000028e+01,6.625331008637074491e-03
4.135999999999999943e+01,7.294294677255724370e-03
4.139999999999999858e+01,4.195698665622796773e-03
4.143999999999999773e+01,5.298868580893643064e-03
4.147999999999999687e+01,8.285454221821569182e-03
4.152000000000000313e+01,8.808549593953737475e-03
4.156000000000000227e+01,9.041606609571149408e-03
4.160000000000000142e+01,9.129521387748647243e-03
4.164000000000000057e+01,1.421613110939037167e-02
4.167999999999999972e+01,1.046378660468663159e-02
4.171999999999999886e+01,1.185503243922503627e-02
4.175999999999999801e+01,8.754227871979871831e-03
4.179999999999999716e+01,2.463466064389561311e-02
4.184000000000000341e+01,3.413938261659967000e-02
4.188000000000000256e+01,3.821022254221219383e-02
4.192000000000000171e+01,2.974723442121503247e-02
4.196000000000000085e+01,2.700741966916566858e-02
4.200000000000000000e+01,2.136941544164142406e-02
4.203999999999999915e+01,1.652809049582780465e-02
4.207999999999999829e+01,1.378751568977456231e-02
4.211999999999999744e+01,8.655888186657084357e-03
4.215999999999999659e+01,8.015807275841738133e-03
4.220000000000000284e+01,8.607093280664744606e-03
4.224000000000000199e+01,1.071953916257285463e-02
4.228000000000000114e+01,9.861342084741400033e-03
4.232000000000000028e+01,8.640644486566918109e-03
4.235999999999999943e+01,8.941104595586642570e-03
4.239999999999999858e+01,6.053574311418155954e-03
4.243999999999999773e+01,4.252509760734336439e-03
4.247999999999999687e+01,6.001156540559892533e-03
4.252000000000000313e+01,8.836267607276189484e-03
4.256000000000000227e+01,3.919134852902820751e-03
4.260000000000000142e+01,7.478203899791162693e-03
4.264000000000000057e+01,4.154408733227059856e-03
4.267999999999999972e+01,3.655837068828192166e-03
4.271999999999999886e+01,1.083653240275491390e-02
4.275999999999999801e+01,4.686451867790500381e-03
4.279999999999999716e+01,1.164926847350251926e-02
4.284000000000000341e+01,8.613935138282289780e-03
4.288000000000000256e+01,3.259983784541412022e-03
4.292000000000000171e+01,6.744470551616217786e-03
4.296000000000000085e+01,7.330750484089005453e-03
4.300000000000000000e+01,7.626966021356328812e-03
4.303999999999999915e+01,5.459663804543290512e-03
4.307999999999999829e+01,6.552268384041440991e-03
4.311999999999999744e+01,5.036456920493476500e-03
4.315999999999999659e+01,7.867277124451704795e-03
4.320000000000000284e+01,8.814164050629179001e-03
4.324000000000000199e+01,7.587323290985192523e-03
4.328000000000000114e+01,5.345928861197705821e-03
4.332000000000000028e+01,5.929746360824032607e-03
4.335999999999999943e+01,5.933699270828500863e-03
4.339999999999999858e+01,8.617965821280978989e-03
4.343999999999999773e+01,0.000000000000000000e+00
4.347999999999999687e+01,5.798990604693821452e-03
4.352000000000000313e+01,9.062006354557805912e-03
4.356000000000000227e+01,7.325800205973349855e-03
4.360000000000000142e+01,7.762765133050594443e-03
4.364000000000000057e+01,5.953546720150843137e-03
4.367999999999999972e+01,6.534843199876650202e-03
4.371999999999999886e+01,7.622994898096872168e-03
4.375999999999999801e+01,7.696584246610009561e-03
4.379999999999999716e+01,1.349331369241058877e-02
4.384000000000000341e+01,1.103063722331716970e-02
4.388000000000000256e+01,1.008909097613329246e-02
4.392000000000000171e+01,8.929912119099735202e-03
4.396000000000000085e+01,1.016124309161299012e-02
4.400000000000000000e+01,4.509685258577016825e-03
4.403999999999999915e+01,6.247576870323130749e-03
4.407999999999999829e+01,3.638272971433645451e-03
4.411999999999999744e+01,8.853107597847919424e-03
4.415999999999999659e+01,7.185050525525098382e-03
4.420000000000000284e+01,7.979947364153265957e-03
4.424000000000000199e+01,5.007233168445402414e-03
4.428000000000000114e+01,3.772987225235297209e-03
4.432000000000000028e+01,6.595558289175728131e-03
4.435999999999999943e+01,8.186210890396840648e-03
4.439999999999999858e+01,2.386828504797569323e-03
4.443999999999999773e+01,7.671757811493196827e-03
4.447999999999999687e+01,7.305412793236841507e-03
4.452000000000000313e+01,8.242841160580872267e-03
4.456000000000000227e+01,1.142587166564541790e-02
4.460000000000000142e+01,6.784173040289168816e-03
4.464000000000000057e+01,8.952325640773112214e-03
4.467999999999999972e+01,9.091621359116779100e-03
4.471999999999999886e+01,7.202059472023228034e-03
4.475999999999999801e+01,3.428536098567317326e-03
4.479999999999999716e+01,2.987336840839077343e-03
4.484000000000000341e+01,7.979465189933540939e-03
4.488000000000000256e+01,5.219307766714423140e-03
4.492000000000000171e+01,7.312889134236625656e-03
4.496000000000000085e+01,4.841913815032239388e-03
4.500000000000000000e+01,7.731814788276766826e-03
4.503999999999999915e+01,7.506126051919403790e-03
4.507999999999999829e+01,4.309743725035024633e-03
4.511999999999999744e+01,6.908926047824244694e-03
4.515999999999999659e+01,8.928211232628231048e-03
4.520000000000000284e+01,6.455383812109784236e-03
4.524000000000000199e+01,8.981186238328831006e-03
4.528000000000000114e+01,8.608739878721951774e-03
4.532000000000000028e+01,9.467604017590263571e-03
4.535999999999999943e+01,7.065975818109106014e-03
4.539999999999999858e+01,1.002521667810721794e-02
4.543999999999999773e+01,1.124538059806645500e-02
4.547999999999999687e+01,1.478357844110197994e-02
4.552000000000000313e+01,1.368476105006750584e-02
4.556000000000000227e+01,1.801925824651035707e-02
4.560000000000000142e+01,2.561361667155570218e-02
4.564000000000000057e+01,3.719231981376584090e-02
4.567999999999999972e+01,5.579820063965290622e-02
4.571999999999999886e+01,6.078345838792981876e-02
4.575999999999999801e+01,4.301959126587234089e-02
4.579999999999999716e+01,4.749706810664628548e-02
4.584000000000000341e+01,3.994778496600959877e-02
4.588000000000000256e+01,2.971758745365039173e-02
4.592000000000000171e+01,2.144317380217120733e-02
4.596000000000000085e+01,1.541433697301877043e-02
4.600000000000000000e+01,1.510860045982082012e-02
4.603999999999999915e+01,1.118011720629534869e-02
4.607999999999999829e+01,1.007679597469321973e-02
4.611999999999999744e+01,8.610905509536515706e-03
4.615999999999999659e+01,1.294056088833234718e-02
4.620000000000000284e+01,8.213835044668061844e-03
4.624000000000000199e+01,8.703066228874943924e-03
4.628000000000000114e+01,7.090963177877080727e-03
4.632000000000000028e+01,6.420358858186576631e-03
4.635999999999999943e+01,5.387180965159722203e-03
4.639999999999999858e+01,7.541401413610134517e-03
4.643999999999999773e+01,8.825907893828749753e-03
4.647999999999999687e+01,6.922350204568859106e-03
4.652000000000000313e+01,9.148018162312431673e-03
4.656000000000000227e+01,1.137335103616448490e-02
4.660000000000000142e+01,9.034097568114450930e-03
4.664000000000000057e+01,9.664892838202114936e-03
4.667999999999999972e+01,9.425969800276214408e-03
4.671999999999999886e+01,6.506117201391526349e-03
4.675999999999999801e+01,8.729763806331542961e-03
4.679999999999999716e+01,1.044593203929674967e-02
4.684000000000000341e+01,7.887303275321813981e-03
4.688000000000000256e+01,9.312996806305817721e-03
4.692000000000000171e+01,9.796519268308523029e-03
4.696000000000000085e+01,7.888901514314388200e-03
4.700000000000000000e+01,1.069008809724760617e-02
4.703999999999999915e+01,8.419541433710625578e-03
4.707999999999999829e+01,8.322102918999502857e-03
4.711999999999999744e+01,1.047022025100321184e-02
4.715999999999999659e+01,1.080678112001268523e-02
4.720000000000000284e+01,9.983820593404362995e-03
4.724000000000000199e+01,9.884996898715425057e-03
4.728000000000000114e+01,6.380749305050901002e-03
4.732000000000000028e+01,1.149751500597826631e-02
4.735999999999999943e+01,9.006846932552152463e-03
4.739999999999999858e+01,6.153586480068641042e-03
4.743999999999999773e+01,1.061726557093937637e-02
4.747999999999999687e+01,7.618405559937596258e-03
4.752000000000000313e+01,1.048751522197752944e-02
4.756000000000000227e+01,9.226711710103837130e-03
4.760000000000000142e+01,1.187776905265779635e-02
4.764000000000000057e+01,1.177543177723688710e-02
4.767999999999999972e+01,1.232477495628283085e-02
4.771999999999999886e+01,8.019717856368001677e-03
4.775999999999999801e+01,6.105101872788427399e-03
4.779999999999999716e+01,1.034824418391555763e-02
4.784000000000000341e+01,9.592087203819141261e-03
4.788000000000000256e+01,8.908019692217329991e-03
4.792000000000000171e+01,9.092973558858401251e-03
4.796000000000000085e+01,8.915324920284579957e-03
4.800000000000000000e+01,1.257708148198286198e-02
4.803999999999999915e+01,7.834459340234054686e-03
4.807999999999999829e+01,9.756729378414692386e-03
4.811999999999999744e+01,7.041937168222702978e-03
4.815999999999999659e+01,9.615515688833547320e-03
4.820000000000000284e+01,9.508137886497958213e-03
4.824000000000000199e+01,1.229833146923560092e-02
4.828000000000000114e+01,1.284225780954843278e-02
4.832000000000000028e+01,1.099501934176765755e-02
4.835999999999999943e+01,1.008924271714907971e-02
4.839999999999999858e+01,7.226990364958559877e-03
4.843999999999999773e+01,1.102962368302481087e-02
4.847999999999999687e+01,9.760497715930169238e-03
4.852000000000000313e+01,1.051955701659884959e-02
4.856000000000000227e+01,9.611931381251421699e-03
4.860000000000000142e+01,1.413756536281210625e-02
4.864000000000000057e+01,8.882289788938577471e-03
4.867999999999999972e+01,1.116127659977121482e-02
4.871999999999999886e+01,1.025215873649535855e-02
4.875999999999999801e+01,1.209570601306033874e-02
4.879999999999999716e+01,5.679757685907784251e-03
4.884000000000000341e+01,7.667449904504700965e-03
4.888000000000000256e+01,1.153842403882039507e-02
4.892000000000000171e+01,9.468249877477427287e-03
4.896000000000000085e+01,8.049733025098511699e-03
4.900000000000000000e+01,7.065527494828871720e-03
4.903999999999999915e+01,1.093498625571330193e-02
4.907999999999999829e+01,1.212347278111808487e-02
4.911999999999999744e+01,1.164526424434928278e-02
4.915999999999999659e+01,1.435440414156725561e-02
4.920000000000000284e+01,1.293360120969607938e-02
4.924000000000000199e+01,1.767053053384090577e-02
4.928000000000000114e+01,2.059586506025243291e-02
4.932000000000000028e+01,2.127491353851811151e-02
4.935999999999999943e+01,1.789646471569271771e-02
4.939999999999999858e+01,2.016860630739394575e-02
4.943999999999999773e+01,2.077404705054589421e-02
4.947999999999999687e+01,2.007502832778122054e-02
4.952000000000000313e+01,1.415933467176275565e-02
4.956000000000000227e+01,1.157587905913328233e-02
4.960000000000000142e+01,9.499172340344563467e-03
4.964000000000000057e+01,1.713016328271280836e-02
4.967999999999999972e+01,8.097625851262389360e-03
4.971999999999999886e+01,8.772784634374992258e-03
4.975999999999999801e+01,1.060672520881386291e-02
4.979999999999999716e+01,1.041171631910112021e-02
4.984000000000000341e+01,8.115308820753864075e-03
4.988000000000000256e+01,1.125213779381186233e-02
4.992000000000000171e+01,1.199777302689772340e-02
4.996000000000000085e+01,1.201852748399085020e-02
5.000000000000000000e+01,1.080726149349276084e-02
5.003999999999999915e+01,9.450700649895461478e-03
5.007999999999999829e+01,1.070188423496734424e-02
5.011999999999999744e+01,1.028635467544154747e-02
5.015999999999999659e+01,1.160918704375982560e-02
5.020000000000000284e+01,1.090306271495684702e-02
5.024000000000000199e+01,1.323937044875078163e-02
5.028000000000000114e+01,1.224264845748277743e-02
5.032000000000000028e+01,1.573732550593635870e-02
5.035999999999999943e+01,1.104492716327675449e-02
5.039999999999999858e+01,1.272758536457897424e-02
5.043999999999999773e+01,1.658329095776213749e-02
5.047999999999999687e+01,1.355599057128795137e-02
5.052000000000000313e+01,1.284663297247262866e-02
5.056000000000000227e+01,1.177462585413976623e-02
5.060000000000000142e+01,1.729501692684172129e-02
5.064000000000000057e+01,1.614974439025627928e-02
5.067999999999999972e+01,1.898872543541822722e-02
5.071999999999999886e+01,2.305891933396526580e-02
5.075999999999999801e+01,2.524504325160540144e-02
5.079999999999999716e+01,3.213990279296135427e-02
5.084000000000000341e+01,3.258644037210289141e-02
5.088000000000000256e+01,4.440696687747187898e-02
5.092000000000000171e+01,6.267498894512810170e-02
5.096000000000000085e+01,9.673635218475963582e-02
5.100000000000000000e+01,1.572409737874012337e-01
5.103999999999999915e+01,2.088340234910219251e-01
5.107999999999999829e+01,1.837762267634800162e-01
5.111999999999999744e+01,1.467640230005142210e-01
5.115999999999999659e+01,1.466276473581445972e-01
5.120000000000000284e+01,1.306246484897169713e-01
5.124000000000000199e+01,8.455513511949198924e-02
5.128000000000000114e+01,5.992993398736917721e-02
5.132000000000000028e+01,4.153487592100614523e-02
5.135999999999999943e+01,2.850057914287481425e-02
5.139999999999999858e+01,2.633312293980890478e-02
5.143999999999999773e+01,2.583155709789829862e-02
5.147999999999999687e+01,1.707044719137362082e-02
5.152000000000000313e+01,1.990065990188276748e-02
5.156000000000000227e+01,2.120903027147539796e-02
5.160000000000000142e+01,1.780782704467364502e-02
5.164000000000000057e+01,1.715923688033132652e-02
5.167999999999999972e+01,1.201841693655847365e-02
5.171999999999999886e+01,1.644036020012859187e-02
5.175999999999999801e+01,1.158847643940284604e-02
5.179999999999999716e+01,1.318407232843113279e-02
5.184000000000000341e+01,1.369251134057976500e-02
5.188000000000000256e+01,1.188216959239093463e-02
5.192000000000000171e+01,1.159281268342199182e-02
5.196000000000000085e+01,1.434585673528051414e-02
5.200000000000000000e+01,1.151993890354385125e-02
5.203999999999999915e+01,1.195376584959849213e-02
5.207999999999999829e+01,9.851463155273080391e-03
5.211999999999999744e+01,1.057421326502949732e-02
5.215999999999999659e+01,1.057204281746017965e-02
5.220000000000000284e+01,1.216330056721793250e-02
5.224000000000000199e+01,1.266739420712638918e-02
5.228000000000000114e+01,1.353329143760717557e-02
5.232000000000000028e+01,8.023288365071809536e-03
5.235999999999999943e+01,1.004748113392195039e-02
5.239999999999999858e+01,1.105695532092087346e-02
5.243999999999999773e+01,9.457844936681116324e-03
5.247999999999999687e+01,9.524606107875623062e-03
5.252000000000000313e+01,6.113400207006389198e-03
5.256000000000000227e+01,1.581491496235445590e-02
5.260000000000000142e+01,1.493851592282368496e-02
5.264000000000000057e+01,1.616267607265490722e-02
5.267999999999999972e+01,1.557517994451091368e-02
5.271999999999999886e+01,2.411573841417020969e-02
5.275999999999999801e+01,2.215082861694874297e-02
5.279999999999999716e+01,1.279573194054456353e-02
5.284000000000000341e+01,1.720538664795229905e-02
5.288000000000000256e+01,1.661565092871907998e-02
5.292000000000000171e+01,1.588056827900527837e-02
5.296000000000000085e+01,1.253689165519226642e-02
5.300000000000000000e+01,9.627454023792185803e-03
5.303999999999999915e+01,9.760397824201554745e-03
5.307999999999999829e+01,9.675543379756533502e-03
5.311999999999999744e+01,1.154634260273807410e-02
5.315999999999999659e+01,1.037385370802004769e-02
5.320000000000000284e+01,1.318557282734068338e-02
5.324000000000000199e+01,1.172237922220698350e-02
5.328000000000000114e+01,1.264952691842759387e-02
5.332000000000000028e+01,1.248949097578087343e-02
5.335999999999999943e+01,6.678020136256243057e-03
5.339999999999999858e+01,8.328277911210144047e-03
5.343999999999999773e+01,1.106480251298374087e-02
5.347999999999999687e+01,1.343862479456144933e-02
5.352000000000000313e+01,7.915108229309566687e-03
5.356000000000000227e+01,1.289615107515743563e-02
5.360000000000000142e+01,1.389206837162200274e-02
5.364000000000000057e+01,9.308994129315862828e-03
5.367999999999999972e+01,1.160805606892205237e-02
5.371999999999999886e+01,1.687703872310339012e-02
5.375999999999999801e+01,1.084360239493462226e-02
5.379999999999999716e+01,8.794363231350077470e-03
5.384000000000000341e+01,1.246808261751515198e-02
5.388000000000000256e+01,1.179442928528852408e-02
5.392000000000000171e+01,1.365600252403663048e-02
5.396000000000000085e+01,6.388605799527739479e-03
5.400000000000000000e+01,1.259614579847512239e-02
5.403999999999999915e+01,1.148592491721982245e-02
5.407999999999999829e+01,6.825260334133266722e-03
5.411999999999999744e+01,9.698759767365807555e-03
5.415999999999999659e+01,1.170240563605258813e-02
5.420000000000000284e+01,1.457495932535895003e-02
5.424000000000000199e+01,1.114402641458085534e-02
5.428000000000000114e+01,1.119014304052191010e-02
5.432000000000000028e+01,1.782859059088014522e-02
5.435999999999999943e+01,2.185841885174547722e-02
5.439999999999999858e+01,6.298136190971070913e-02
5.443999999999999773e+01,1.009160968621016785e-01
5.447999999999999687e+01,6.437337653866596898e-02
5.452000000000000313e+01,3.377094773248928705e-02
5.456000000000000227e+01,4.895544137253629580e-02
5.460000000000000142e+01,5.522829874013265861e-02
5.464000000000000057e+01,3.201416749517723564e-02
5.467999999999999972e+01,1.684132908868492609e-02
5.471999999999999886e+01,1.268016806598194594e-02
5.475999999999999801e+01,1.279298053347977665e-02
5.479999999999999716e+01,1.029716575521808300e-02
5.484000000000000341e+01,8.960040909568285986e-03
5.488000000000000256e+01,1.153464527829878294e-02
5.492000000000000171e+01,8.602683383941645695e-03
5.496000000000000085e+01,1.117631452346132086e-02
5.500000000000000000e+01,9.112759007530621749e-03
5.503999999999999915e+01,1.516293824157632746e-02
5.507999999999999829e+01,1.157698831174850881e-02
5.511999999999999744e+01,1.154052115058953193e-02
5.515999999999999659e+01,1.396680971701352164e-02
5.520000000000000284e+01,7.336554319160547288e-03
5.524000000000000199e+01,1.128327637512075571e-02
5.528000000000000114e+01,1.182442987271265650e-02
5.532000000000000028e+01,9.756946721684509743e-03
5.535999999999999943e+01,1.247056515970424231e-02
5.539999999999999858e+01,9.677608655072795357e-03
5.543999999999999773e+01,1.347696282254357003e-02
5.547999999999999687e+01,1.053811744060840529e-02
5.552000000000000313e+01,9.047743379980467682e-03
5.556000000000000227e+01,1.059970518345329342e-02
5.560000000000000142e+01,1.236851370147859681e-02
5.564000000000000057e+01,1.449906505313129298e-02
5.567999999999999972e+01,1.438321535242093052e-02
5.571999999999999886e+01,1.238320598198017902e-02
5.575999999999999801e+01,1.262859622611010348e-02
5.579999999999999716e+01,1.388776220135293921e-02
5.584000000000000341e+01,1.594335792085393652e-02
5.588000000000000256e+01,1.560765212913518482e-02
5.592000000000000171e+01,2.193669675114100215e-02
5.596000000000000085e+01,3.174276053139351433e-02
5.600000000000000000e+01,3.241981746024386046e-02
5.603999999999999915e+01,2.773518471606347888e-02
5.607999999999999829e+01,2.877347001700273840e-02
5.611999999999999744e+01,2.742044946694044069e-02
5.615999999999999659e+01,2.729854340187617967e-02
5.620000000000000284e+01,2.319146477312603039e-02
5.624000000000000199e+01,2.277874550310157731e-02
5.628000000000000114e+01,1.881554274991285511e-02
5.632000000000000028e+01,1.601100316734838103e-02
5.635999999999999943e+01,1.552430077108607302e-02
5.639999999999999858e+01,1.742788325901488758e-02
5.643999999999999773e+01,1.918605516633029376e-02
5.647999999999999687e+01,3.391198000438874066e-02
5.652000000000000313e+01,5.986689494143090234e-02
5.656000000000000227e+01,5.401643706971724634e-02
5.660000000000000142e+01,2.911152779467454307e-02
5.664000000000000057e+01,2.688245699610166892e-02
5.667999999999999972e+01,3.580992498213873138e-02
5.671999999999999886e+01,3.321757519829259681e-02
5.675999999999999801e+01,1.649726375857283808e-02
5.679999999999999716e+01,1.419366788693897201e-02
5.684000000000000341e+01,1.406300367967183891e-02
5.688000000000000256e+01,1.646751251940415176e-02
5.692000000000000171e+01,1.510418103966296860e-02
5.696000000000000085e+01,1.627602116032728086e-02
5.700000000000000000e+01,1.295553530306490370e-02
5.703999999999999915e+01,9.924318542850247074e-03
5.707999999999999829e+01,1.239865648177333572e-02
5.711999999999999744e+01,1.001842416694917644e-02
5.715999999999999659e+01,1.097029246909095659e-02
5.720000000000000284e+01,8.226763809866423707e-03
5.724000000000000199e+01,1.098878695659177666e-02
5.728000000000000114e+01,9.838066431799139325e-03
5.732000000000000028e+01,9.773542574020712553e-03
5.735999999999999943e+01,9.998282026914304815e-03
5.739999999999999858e+01,1.261328828157493552e-02
5.743999999999999773e+01,1.189513534101715141e-02
5.747999999999999687e+01,9.727481432778163628e-03
5.752000000000000313e+01,8.790917417440454254e-03
5.756000000000000227e+01,1.350479626404876496e-02
5.760000000000000142e+01,1.611713618241162813e-02
5.764000000000000057e+01,1.039737222724206739e-02
5.767999999999999972e+01,1.148722370310253926e-02
5.771999999999999886e+01,1.040308565964072861e-02
5.775999999999999801e+01,1.250614054131851498e-02
5.779999999999999716e+01,1.236275603589417731e-02
5.784000000000000341e+01,7.582133520935026468e-03
5.788000000000000256e+01,8.669293345104000723e-03
5.792000000000000171e+01,9.321222141928204100e-03
5.796000000000000085e+01,8.088950764392068005e-03
5.800000000000000000e+01,8.450002706123277765e-03
5.803999999999999915e+01,9.027857241292186127e-03
5.807999999999999829e+01,6.055195744933491823e-03
5.811999999999999744e+01,1.329721751907694295e-02
5.815999999999999659e+01,1.061326075073697021e-02
5.820000000000000284e+01,8.943036315692104096e-03
5.824000000000000199e+01,8.431440333017200736e-03
5.828000000000000114e+01,6.615225759093697373e-03
5.832000000000000028e+01,9.145368723127191013e-03
5.835999999999999943e+01,5.516847429860801538e-03
5.839999999999999858e+01,8.045892757605751372e-03
5.843999999999999773e+01,8.400935546683068605e-03
5.847999999999999687e+01,4.263625595846029688e-03
5.852000000000000313e+01,7.008364307988711357e-03
5.856000000000000227e+01,5.550542518366823747e-03
5.860000000000000142e+01,8.221727940065426399e-03
5.864000000000000057e+01,4.879140883757251967e-03
5.867999999999999972e+01,6.172698540477113485e-03
5.871999999999999886e+01,6.161629649681777190e-03
5.875999999999999801e+01,6.584695596536583803e-03
5.879999999999999716e+01,6.282720918769709936e-03
5.884000000000000341e+01,9.312816479496258473e-03
5.888000000000000256e+01,7.705655224966977829e-03
5.892000000000000171e+01,8.561181708106022775e-03
5.896000000000000085e+01,7.894732040390293332e-03
5.900000000000000000e+01,1.208176656288468230e-02
5.903999999999999915e+01,1.068971190151826213e-02
5.907999999999999829e+01,1.683173156764747325e-02
5.911999999999999744e+01,2.130687534736219052e-02
5.915999999999999659e+01,2.360800356906392339e-02
5.920000000000000284e+01,1.917086497474210227e-02
5.924000000000000199e+01,1.828313464950189274e-02
5.928000000000000114e+01,1.877135923446839050e-02
5.932000000000000028e+01,1.976615695211348875e-02
5.935999999999999943e+01,1.431247864529091966e-02
5.939999999999999858e+01,1.465410677112592708e-02
5.943999999999999773e+01,9.923777428431989484e-03
5.947999999999999687e+01,9.032645699781589183e-03
5.952000000000000313e+01,6.402182430561137276e-03
5.956000000000000227e+01,3.264010057634469594e-03
5.960000000000000142e+01,4.979311025463469161e-03
5.964000000000000057e+01,5.100175125203379976e-03
5.967999999999999972e+01,1.598045840351175126e-03
5.971999999999999886e+01,4.905495098383860254e-03
5.975999999999999801e+01,6.038917948949125425e-03
5.979999999999999716e+01,4.491174720448496555e-03
5.984000000000000341e+01,6.058138384459405522e-03
5.988000000000000256e+01,5.088831365182363772e-03
5.992000000000000171e+01,4.481189786757596577e-03
5.996000000000000085e+01,6.852402877775557377e-04
