2.003999999999999915e+01,1.779645547836370204e-02
2.007999999999999829e+01,9.956398951384577006e-03
2.012000000000000099e+01,1.504871679762559249e-02
2.016000000000000014e+01,1.556642456151697759e-02
2.019999999999999929e+01,2.030700077890873825e-02
2.023999999999999844e+01,2.539955384931476268e-02
2.028000000000000114e+01,1.676811622909015961e-02
2.032000000000000028e+01,2.590766294835195743e-02
2.035999999999999943e+01,1.754030144361616236e-02
2.039999999999999858e+01,1.577112416547083937e-02
2.044000000000000128e+01,1.787291181740481918e-02
2.048000000000000043e+01,2.270199136994879505e-02
2.051999999999999957e+01,2.198873159194494886e-02
2.055999999999999872e+01,2.532238415276368698e-02
2.060000000000000142e+01,2.258584717636491143e-02
2.064000000000000057e+01,1.817785956792605795e-02
2.067999999999999972e+01,1.904842921841443104e-02
2.071999999999999886e+01,1.587222738531080674e-02
2.076000000000000156e+01,1.841445532321245651e-02
2.080000000000000071e+01,5.561162079399395615e-03
2.083999999999999986e+01,2.129974323509701076e-02
2.087999999999999901e+01,1.328519645981399155e-02
2.092000000000000171e+01,1.609161452513769783e-02
2.096000000000000085e+01,2.092151744422968834e-02
2.100000000000000000e+01,1.651413103707507352e-02
2.103999999999999915e+01,2.028846351564042236e-02
2.107999999999999829e+01,2.318311051524692482e-02
2.112000000000000099e+01,2.220692836154311914e-02
2.116000000000000014e+01,2.079093324095858744e-02
2.119999999999999929e+01,1.884714963538542537e-02
2.123999999999999844e+01,2.068634165738756150e-02
2.128000000000000114e+01,1.953444955023572044e-02
2.132000000000000028e+01,2.550857373898093167e-02
2.135999999999999943e+01,2.805173838451586674e-02
2.139999999999999858e+01,4.836586778118495689e-02
2.144000000000000128e+01,6.656865807285643200e-02
2.148000000000000043e+01,1.258557317072346582e-01
2.151999999999999957e+01,1.482814217033172899e-01
2.155999999999999872e+01,1.388602905145759348e-01
2.160000000000000142e+01,8.967460608030640434e-02
2.164000000000000057e+01,5.579658785102765278e-02
2.167999999999999972e+01,4.523194122906820658e-02
2.171999999999999886e+01,4.056165655147242477e-02
2.176000000000000156e+01,2.163950558426793597e-02
2.180000000000000071e+01,2.488705174392453340e-02
2.183999999999999986e+01,1.872134375672261306e-02
2.187999999999999901e+01,1.994556628633473855e-02
2.192000000000000171e+01,2.108186123512395191e-02
2.196000000000000085e+01,1.579604280942801739e-02
2.200000000000000000e+01,1.103811890021431409e-02
2.203999999999999915e+01,1.666126555469346626e-02
2.207999999999999829e+01,1.137558223491855376e-02
2.212000000000000099e+01,1.075260650797391256e-02
2.216000000000000014e+01,1.391258972223049020e-02
2.219999999999999929e+01,2.094350594480744177e-02
2.223999999999999844e+01,2.621496772294988620e-02
2.228000000000000114e+01,1.925797401016397445e-02
2.232000000000000028e+01,9.749751268433656456e-03
2.235999999999999943e+01,1.598905563585988759e-02
2.239999999999999858e+01,1.756573450063004735e-02
2.244000000000000128e+01,2.503676225086243906e-02
2.248000000000000043e+01,1.464894415543373588e-02
2.251999999999999957e+01,1.332256602856200095e-02
2.255999999999999872e+01,1.173229912772816991e-02
2.260000000000000142e+01,1.506865549163062534e-02
2.264000000000000057e+01,8.375919650489976886e-03
2.267999999999999972e+01,1.373576382478530755e-02
2.271999999999999886e+01,1.065006061009037171e-02
2.276000000000000156e+01,1.231502817292680872e-02
2.280000000000000071e+01,7.733816711120025840e-03
2.283999999999999986e+01,9.574795635510882294e-03
2.287999999999999901e+01,1.519872044220160583e-02
2.292000000000000171e+01,1.492836321821932981e-02
2.296000000000000085e+01,1.140296701647268429e-02
2.300000000000000000e+01,6.470001756349388032e-03
2.303999999999999915e+01,9.454794729379678922e-03
2.307999999999999829e+01,1.375923576406083010e-02
2.312000000000000099e+01,1.445673574854583823e-02
2.316000000000000014e+01,1.911312612209594211e-02
2.319999999999999929e+01,1.602775874162910147e-02
2.323999999999999844e+01,4.848733711197047470e-03
2.328000000000000114e+01,4.050756754127628374e-03
2.332000000000000028e+01,1.389775152276673947e-02
2.335999999999999943e+01,7.645380337133995431e-03
2.339999999999999858e+01,1.309367693758196026e-02
2.344000000000000128e+01,1.124008539411301515e-02
2.348000000000000043e+01,1.783209285903847655e-02
2.351999999999999957e+01,1.703423593644453476e-02
2.355999999999999872e+01,1.535664855423126036e-02
2.360000000000000142e+01,5.409447407375254577e-03
2.364000000000000057e+01,9.098355131128421300e-03
2.367999999999999972e+01,1.129170667048462820e-02
2.371999999999999886e+01,9.174307936319280390e-03
2.376000000000000156e+01,1.752592336219572014e-02
2.380000000000000071e+01,8.047360067897133375e-04
2.383999999999999986e+01,3.789914584847632693e-03
2.387999999999999901e+01,7.830802336825778628e-03
2.392000000000000171e+01,4.041944483272121545e-03
2.396000000000000085e+01,1.107399633274140996e-02
2.400000000000000000e+01,1.300351969670652044e-02
2.403999999999999915e+01,1.730837122181526008e-02
2.407999999999999829e+01,1.061638170533025886e-02
2.412000000000000099e+01,1.694466880522618388e-02
2.416000000000000014e+01,1.245206299776616468e-02
2.419999999999999929e+01,1.605314396934531818e-02
2.423999999999999844e+01,9.273204545646810890e-03
2.428000000000000114e+01,1.049897565738490239e-02
2.432000000000000028e+01,1.198867482908247059e-02
2.435999999999999943e+01,9.343561704572974844e-03
2.439999999999999858e+01,1.408833339072245068e-02
2.444000000000000128e+01,1.038752649161732086e-02
2.448000000000000043e+01,1.117343479593866165e-02
2.451999999999999957e+01,1.917327614920853393e-02
2.455999999999999872e+01,1.459272148790852555e-02
2.460000000000000142e+01,2.021724137342500657e-02
2.464000000000000057e+01,2.337846494392809005e-02
2.467999999999999972e+01,1.739030723530184813e-02
2.471999999999999886e+01,1.298569222089136603e-02
2.476000000000000156e+01,8.669047700773738555e-03
2.480000000000000071e+01,1.517329764829404570e-02
2.483999999999999986e+01,1.657500387492516145e-02
2.487999999999999901e+01,7.683652890979641645e-03
2.492000000000000171e+01,7.325849590239015378e-03
2.496000000000000085e+01,8.199685460293308636e-03
2.500000000000000000e+01,6.610218485883505475e-03
2.503999999999999915e+01,1.135492720285910355e-02
2.507999999999999829e+01,8.709743238028894163e-03
2.512000000000000099e+01,1.222278392836815761e-02
2.516000000000000014e+01,7.994031315458787965e-03
2.519999999999999929e+01,1.194692213683899891e-02
2.523999999999999844e+01,9.213715715342792739e-03
2.528000000000000114e+01,1.140708395044982663e-02
2.532000000000000028e+01,1.562385796042203671e-02
2.535999999999999943e+01,1.728934780386594608e-02
2.539999999999999858e+01,9.453544138825297968e-03
2.544000000000000128e+01,8.919631628972732318e-03
2.548000000000000043e+01,1.595153392665386860e-02
2.551999999999999957e+01,1.181061947971158085e-02
2.555999999999999872e+01,5.470316409222185025e-03
2.560000000000000142e+01,8.983170577732414383e-03
2.564000000000000057e+01,9.768785916025850974e-03
2.567999999999999972e+01,6.155640638952607387e-03
2.571999999999999886e+01,5.885515771000863865e-03
2.576000000000000156e+01,7.374864319634241890e-03
2.580000000000000071e+01,1.150343348549253200e-02
2.583999999999999986e+01,1.888704609137535281e-02
2.587999999999999901e+01,7.619978051041569750e-03
2.592000000000000171e+01,1.174847338039796719e-02
2.596000000000000085e+01,7.431362555707790932e-03
2.600000000000000000e+01,7.073090609971532244e-03
2.603999999999999915e+01,1.489644686313984501e-02
2.607999999999999829e+01,1.128305183692102087e-02
2.612000000000000099e+01,6.965829504660221369e-03
2.616000000000000014e+01,8.454913794257480630e-03
2.619999999999999929e+01,6.952824718874316655e-03
2.623999999999999844e+01,9.321595376864522456e-03
2.628000000000000114e+01,9.315014767179326943e-03
2.632000000000000028e+01,1.423498995123968075e-02
2.635999999999999943e+01,1.088530131153511021e-02
2.639999999999999858e+01,1.105457033277197978e-02
2.644000000000000128e+01,6.297216198565603641e-03
2.648000000000000043e+01,1.060123020895841796e-02
2.651999999999999957e+01,1.165014067257429294e-02
2.655999999999999872e+01,7.948375389490166393e-03
2.660000000000000142e+01,1.401177441542917138e-02
2.664000000000000057e+01,1.294917684311625711e-02
2.667999999999999972e+01,6.432103006712356144e-03
2.671999999999999886e+01,8.096645035806029553e-03
2.676000000000000156e+01,1.011304566230667931e-02
2.680000000000000071e+01,1.098573268629124584e-02
2.683999999999999986e+01,1.221027685669368382e-02
2.687999999999999901e+01,7.628441965078734503e-03
2.692000000000000171e+01,9.820622629673749979e-03
2.696000000000000085e+01,5.766548818195042780e-03
2.700000000000000000e+01,9.718136208525456066e-03
2.703999999999999915e+01,1.129435854678444498e-02
2.707999999999999829e+01,1.463003036030930890e-02
2.712000000000000099e+01,2.746015949211447812e-03
2.716000000000000014e+01,8.544887025423046623e-03
2.719999999999999929e+01,1.267218848849261184e-02
2.723999999999999844e+01,1.961463403621120302e-02
2.728000000000000114e+01,1.292093672437103630e-02
2.732000000000000028e+01,7.370860986535341178e-03
2.735999999999999943e+01,1.132201139548654097e-02
2.739999999999999858e+01,1.069842040757959002e-02
2.744000000000000128e+01,1.165832278026091712e-02
2.748000000000000043e+01,8.219431890322002887e-03
2.751999999999999957e+01,1.243429360030954417e-02
2.755999999999999872e+01,7.323772210335174719e-03
2.760000000000000142e+01,1.584928786701219824e-02
2.764000000000000057e+01,8.627259111957087667e-03
2.767999999999999972e+01,1.398556844120306224e-02
2.771999999999999886e+01,1.406533222872725919e-02
2.776000000000000156e+01,8.608436212120670547e-04
2.780000000000000071e+01,1.220126271694223739e-02
2.783999999999999986e+01,4.802990824610723491e-03
2.787999999999999901e+01,6.905935647637239175e-03
2.792000000000000171e+01,1.296768452588053372e-02
2.796000000000000085e+01,1.005594221967042769e-02
2.800000000000000000e+01,3.537170352932265515e-03
2.803999999999999915e+01,1.593291510921210352e-02
2.807999999999999829e+01,8.446292220488368224e-03
2.812000000000000099e+01,8.613411049273272599e-03
2.816000000000000014e+01,2.446278844535413905e-03
2.819999999999999929e+01,7.187954233014403650e-03
2.823999999999999844e+01,8.058671330157850601e-03
2.828000000000000114e+01,4.970454617857768438e-03
2.832000000000000028e+01,5.049261572308305981e-03
2.835999999999999943e+01,1.278180589130034454e-02
2.839999999999999858e+01,1.294844772721422468e-02
2.844000000000000128e+01,7.924505755118362027e-03
2.848000000000000043e+01,9.850500630172884242e-03
2.851999999999999957e+01,7.201733794522709002e-03
2.855999999999999872e+01,1.563771760786554499e-02
2.860000000000000142e+01,1.184513130214536261e-02
2.864000000000000057e+01,1.359488225978242731e-02
2.867999999999999972e+01,9.538221508148503683e-03
2.871999999999999886e+01,7.856804034798978154e-03
2.876000000000000156e+01,1.567658731592799781e-02
2.880000000000000071e+01,5.901334501101456603e-03
2.883999999999999986e+01,5.539306197150963874e-03
2.887999999999999901e+01,1.036771163313682242e-02
2.892000000000000171e+01,8.685902665977072654e-03
2.896000000000000085e+01,1.193060160992429931e-02
2.900000000000000000e+01,1.139230327075344516e-02
2.903999999999999915e+01,9.006452360465702286e-03
2.907999999999999829e+01,1.920091414217071565e-02
2.912000000000000099e+01,1.144843485351024030e-02
2.916000000000000014e+01,1.372499782006364466e-02
2.919999999999999929e+01,9.491341305009750456e-03
2.923999999999999844e+01,1.027216241521463139e-02
2.928000000000000114e+01,2.213772111551118998e-02
2.932000000000000028e+01,1.324114175433951587e-02
2.935999999999999943e+01,9.622962219783407281e-03
2.939999999999999858e+01,1.594584579486062886e-02
2.944000000000000128e+01,1.021609360071667680e-02
2.948000000000000043e+01,1.689069725839329253e-02
2.951999999999999957e+01,1.670317646005266624e-02
2.955999999999999872e+01,1.238074905121690043e-02
2.960000000000000142e+01,1.747153236886117914e-02
2.964000000000000057e+01,1.490841592048366450e-02
2.967999999999999972e+01,1.181735718227844810e-02
2.971999999999999886e+01,1.611608676396062215e-02
2.976000000000000156e+01,1.803940195994385362e-02
2.980000000000000071e+01,2.348161314983402900e-02
2.983999999999999986e+01,1.792687882691906473e-02
2.987999999999999901e+01,2.196129973724941092e-02
2.992000000000000171e+01,2.221270667808764379e-02
2.996000000000000085e+01,1.630577952337633474e-02
3.000000000000000000e+01,2.544244256746002603e-02
3.003999999999999915e+01,2.032708914456867952e-02
3.007999999999999829e+01,2.515278649790380489e-02
3.012000000000000099e+01,3.296952528550902567e-02
3.016000000000000014e+01,2.961336317112606489e-02
3.019999999999999929e+01,3.892546822750262564e-02
3.023999999999999844e+01,5.509950341665709184e-02
3.028000000000000114e+01,4.752024018361786922e-02
3.032000000000000028e+01,5.744785553859375199e-02
3.035999999999999943e+01,6.922283567089793088e-02
3.039999999999999858e+01,9.067493639763206381e-02
3.044000000000000128e+01,1.159978206808145312e-01
3.048000000000000043e+01,1.839003965448644806e-01
3.051999999999999957e+01,2.971098818353039572e-01
3.055999999999999872e+01,6.211068607325190838e-01
3.060000000000000142e+01,1.000000000000000000e+00
3.064000000000000057e+01,9.976982519274294470e-01
3.067999999999999972e+01,8.189189582007879720e-01
3.071999999999999886e+01,5.671204742079867245e-01
3.076000000000000156e+01,2.978148933626116879e-01
3.080000000000000071e+01,1.873916741291156429e-01
3.083999999999999986e+01,1.352956278248420574e-01
3.087999999999999901e+01,9.956277764768563243e-02
3.092000000000000171e+01,7.764185388636192509e-02
3.096000000000000085e+01,6.179107406539382369e-02
3.100000000000000000e+01,5.843259732006788471e-02
3.103999999999999915e+01,4.909171647606715844e-02
3.107999999999999829e+01,4.494122946980397271e-02
3.112000000000000099e+01,3.718365631443990016e-02
3.116000000000000014e+01,4.200635812535329777e-02
3.119999999999999929e+01,4.058272855777349947e-02
3.123999999999999844e+01,3.607985942028983650e-02
3.128000000000000114e+01,3.096104418058406860e-02
3.132000000000000028e+01,3.358388741143853579e-02
3.135999999999999943e+01,3.497495954078777558e-02
3.139999999999999858e+01,3.504628505052388016e-02
3.144000000000000128e+01,3.731685491968986940e-02
3.148000000000000043e+01,3.888350026654769503e-02
3.151999999999999957e+01,3.473165718663682316e-02
3.155999999999999872e+01,3.119551002263033085e-02
3.160000000000000142e+01,3.293772205754606081e-02
3.164000000000000057e+01,4.215766238122551496e-02
3.167999999999999972e+01,3.906100193015008687e-02
3.171999999999999886e+01,4.889650545888261923e-02
3.176000000000000156e+01,5.266161703742550104e-02
3.180000000000000071e+01,4.930063842892293963e-02
3.183999999999999986e+01,5.244966176296357585e-02
3.187999999999999901e+01,4.512955133965904087e-02
3.192000000000000171e+01,4.836628186812689384e-02
3.196000000000000085e+01,3.004905331896706722e-02
3.200000000000000000e+01,4.155514385293397617e-02
3.203999999999999915e+01,3.361866888100668860e-02
3.207999999999999829e+01,3.272004025433610658e-02
3.211999999999999744e+01,3.674786222470520503e-02
3.215999999999999659e+01,3.347363789335125461e-02
3.220000000000000284e+01,2.967142556601462533e-02
3.224000000000000199e+01,3.009186331832655603e-02
3.228000000000000114e+01,3.253558060945649366e-02
3.232000000000000028e+01,3.216396312017077291e-02
3.235999999999999943e+01,3.513524560791556756e-02
3.239999999999999858e+01,3.476334310857505383e-02
3.243999999999999773e+01,3.403939784551154868e-02
3.247999999999999687e+01,2.970834176653330133e-02
3.252000000000000313e+01,2.845625838476724748e-02
3.256000000000000227e+01,2.931542425597096282e-02
3.260000000000000142e+01,2.955862008363334056e-02
3.264000000000000057e+01,3.420040832122590163e-02
3.267999999999999972e+01,2.749330036544839206e-02
3.271999999999999886e+01,3.363036345950225214e-02
3.275999999999999801e+01,3.932740319326352707e-02
3.279999999999999716e+01,4.889518367929632930e-02
3.284000000000000341e+01,6.206977981426568119e-02
3.288000000000000256e+01,2.171475648610048659e-01
3.292000000000000171e+01,7.339775448350059905e-01
3.296000000000000085e+01,8.397891406943174264e-01
3.300000000000000000e+01,5.897425466820711559e-01
3.303999999999999915e+01,4.956751054977672766e-01
3.307999999999999829e+01,2.943662369164982695e-01
3.311999999999999744e+01,1.542876680675075163e-01
3.315999999999999659e+01,6.426659956339350610e-02
3.320000000000000284e+01,4.656065320986206568e-02
3.324000000000000199e+01,4.636153248324553777e-02
3.328000000000000114e+01,3.974009306719370610e-02
3.332000000000000028e+01,3.153494782995123341e-02
3.335999999999999943e+01,2.526508775056121592e-02
3.339999999999999858e+01,3.139951242452850011e-02
3.343999999999999773e+01,2.873629610651948912e-02
3.347999999999999687e+01,2.853621152556003529e-02
3.352000000000000313e+01,2.332140058401312166e-02
3.356000000000000227e+01,2.452858559613148998e-02
3.360000000000000142e+01,2.547168159779917770e-02
3.364000000000000057e+01,2.474309118170661334e-02
3.367999999999999972e+01,2.507003219337589767e-02
3.371999999999999886e+01,2.143794072834643780e-02
3.375999999999999801e+01,2.669113578268597631e-02
3.379999999999999716e+01,2.578592709400169547e-02
3.384000000000000341e+01,2.646409568678182930e-02
3.388000000000000256e+01,2.098385908554911694e-02
3.392000000000000171e+01,3.010726762158090833e-02
3.396000000000000085e+01,2.550643734785492181e-02
3.400000000000000000e+01,2.723962025474106416e-02
3.403999999999999915e+01,2.439794133267814830e-02
3.407999999999999829e+01,3.264091294136404336e-02
3.411999999999999744e+01,3.516534896613714156e-02
3.415999999999999659e+01,3.205922347411641060e-02
3.420000000000000284e+01,3.264786375683189495e-02
3.424000000000000199e+01,3.077303360584832115e-02
3.428000000000000114e+01,3.338474091213290001e-02
3.432000000000000028e+01,3.933931264621639418e-02
3.435999999999999943e+01,3.895952089512591532e-02
3.439999999999999858e+01,3.418081037086255491e-02
3.443999999999999773e+01,3.336078564620865300e-02
3.447999999999999687e+01,3.412412659510676016e-02
3.452000000000000313e+01,3.963792502614619379e-02
3.456000000000000227e+01,3.494646546954768840e-02
3.460000000000000142e+01,3.465356277364767951e-02
3.464000000000000057e+01,3.251300593739745587e-02
3.467999999999999972e+01,3.142796239154600768e-02
3.471999999999999886e+01,3.632501979695142852e-02
3.475999999999999801e+01,3.647125272927954909e-02
3.479999999999999716e+01,3.547362696018684786e-02
3.484000000000000341e+01,3.122074674145624423e-02
3.488000000000000256e+01,2.793540139303836781e-02
3.492000000000000171e+01,3.133595170931228330e-02
3.496000000000000085e+01,3.693568254149803137e-02
3.500000000000000000e+01,2.845925653061463431e-02
3.503999999999999915e+01,3.036366529770397754e-02
3.507999999999999829e+01,2.461407563151625510e-02
3.511999999999999744e+01,2.810164698833747532e-02
3.515999999999999659e+01,3.792321048642958992e-02
3.520000000000000284e+01,4.413761383497932789e-02
3.524000000000000199e+01,4.243409147043361584e-02
3.528000000000000114e+01,4.037847483205377064e-02
3.532000000000000028e+01,6.198788157781442293e-02
3.535999999999999943e+01,6.503441052776980091e-02
3.539999999999999858e+01,1.023029365244894351e-01
3.543999999999999773e+01,1.954352578253850392e-01
3.547999999999999687e+01,2.798578759266970306e-01
3.552000000000000313e+01,2.577428207167856700e-01
3.556000000000000227e+01,2.205838757881340151e-01
3.560000000000000142e+01,1.767386457135243505e-01
3.564000000000000057e+01,1.160020538243031751e-01
3.567999999999999972e+01,7.453173915909970526e-02
3.571999999999999886e+01,5.760618854922589654e-02
3.575999999999999801e+01,5.528424970386844328e-02
3.579999999999999716e+01,4.961906420439114729e-02
3.584000000000000341e+01,3.885113547303061660e-02
3.588000000000000256e+01,3.951972379561902865e-02
3.592000000000000171e+01,4.133177771088943769e-02
3.596000000000000085e+01,3.971260727744844315e-02
3.600000000000000000e+01,4.425146416466641669e-02
3.603999999999999915e+01,4.122427999935225629e-02
3.607999999999999829e+01,3.494181889406994257e-02
3.611999999999999744e+01,4.836550099543283909e-02
3.615999999999999659e+01,5.026427420017522824e-02
3.620000000000000284e+01,5.664955003844859838e-02
3.624000000000000199e+01,5.995549562000267174e-02
3.628000000000000114e+01,1.057530527931047765e-01
3.632000000000000028e+01,1.331636643437599798e-01
3.635999999999999943e+01,1.244164214385588135e-01
3.639999999999999858e+01,1.058157863434253249e-01
3.643999999999999773e+01,8.360796860841919476e-02
3.647999999999999687e+01,4.767586635750040158e-02
3.652000000000000313e+01,4.042332890485243746e-02
3.656000000000000227e+01,3.396234626652028243e-02
3.660000000000000142e+01,3.137203545847985775e-02
3.664000000000000057e+01,3.590746308193391856e-02
3.667999999999999972e+01,2.979772030347301037e-02
3.671999999999999886e+01,2.447952943734985759e-02
3.675999999999999801e+01,2.646302441146445791e-02
3.679999999999999716e+01,2.563110334977673418e-02
3.684000000000000341e+01,2.620655557223725701e-02
3.688000000000000256e+01,2.097544735904940255e-02
3.692000000000000171e+01,1.495234116368475939e-02
3.696000000000000085e+01,1.966193409300943593e-02
3.700000000000000000e+01,1.750926689884087922e-02
3.703999999999999915e+01,1.834751562838990435e-02
3.707999999999999829e+01,1.971338536298562066e-02
3.711999999999999744e+01,2.231067371804105332e-02
3.715999999999999659e+01,1.373493420956660438e-02
3.720000000000000284e+01,1.527606592452026603e-02
3.724000000000000199e+01,1.514544592720653421e-02
3.728000000000000114e+01,1.835763667109692812e-02
3.732000000000000028e+01,1.840250277730245271e-02
3.735999999999999943e+01,1.378447204590003451e-02
3.739999999999999858e+01,1.409279614626014927e-02
3.743999999999999773e+01,1.994329790118233234e-02
3.747999999999999687e+01,1.479671557384533084e-02
3.752000000000000313e+01,1.730370447280391716e-02
3.756000000000000227e+01,2.464907050893349119e-02
3.760000000000000142e+01,2.645178742835358615e-02
3.764000000000000057e+01,3.062958584077932547e-02
3.767999999999999972e+01,3.929386004343869004e-02
3.771999999999999886e+01,5.869081958639143365e-02
3.775999999999999801e+01,5.195902563911164451e-02
3.779999999999999716e+01,5.235294908398512720e-02
3.784000000000000341e+01,3.761496666431707325e-02
3.788000000000000256e+01,2.384446470287242270e-02
3.792000000000000171e+01,2.265411509913077548e-02
3.796000000000000085e+01,1.495338713048108281e-02
3.800000000000000000e+01,1.165115435549542687e-02
3.803999999999999915e+01,1.389108835265400604e-02
3.807999999999999829e+01,1.085228890500914388e-02
3.811999999999999744e+01,1.757844482396457575e-02
3.815999999999999659e+01,1.189990764543888413e-02
3.820000000000000284e+01,9.828088899583633728e-03
3.824000000000000199e+01,1.092311389783709973e-02
3.828000000000000114e+01,1.069826749141933493e-02
3.832000000000000028e+01,1.196874231846586922e-02
3.835999999999999943e+01,1.649403350575099486e-02
3.839999999999999858e+01,8.966526413041594687e-03
3.843999999999999773e+01,8.124851141505915267e-03
3.847999999999999687e+01,1.247343549122094560e-02
3.852000000000000313e+01,8.552135466835811967e-03
3.856000000000000227e+01,5.686278359880648191e-03
3.860000000000000142e+01,7.746754319852288545e-03
3.864000000000000057e+01,4.968360641164358375e-03
3.867999999999999972e+01,1.371440802442222377e-02
3.871999999999999886e+01,9.439928604981511276e-03
3.875999999999999801e+01,1.422659460332120762e-02
3.879999999999999716e+01,1.267881658659478737e-02
3.884000000000000341e+01,5.764316548055531744e-03
3.888000000000000256e+01,1.626856504908990447e-02
3.892000000000000171e+01,1.172886288984398458e-02
3.896000000000000085e+01,1.264333602375481043e-02
3.900000000000000000e+01,1.417337013158867683e-02
3.903999999999999915e+01,2.450062020090091122e-02
3.907999999999999829e+01,7.230486789817849869e-02
3.911999999999999744e+01,1.758848693615223668e-01
3.915999999999999659e+01,1.645695261953644684e-01
3.920000000000000284e+01,1.090025961428025270e-01
3.924000000000000199e+01,1.091234428872098483e-01
3.928000000000000114e+01,6.481675170899726945e-02
3.932000000000000028e+01,2.121359049336492969e-02
3.935999999999999943e+01,1.095260657440459695e-02
3.939999999999999858e+01,7.729336235203113775e-03
3.943999999999999773e+01,1.312732501730796628e-02
3.947999999999999687e+01,8.583890953788711475e-03
3.952000000000000313e+01,1.442121041285550874e-02
3.956000000000000227e+01,7.589887004292538569e-03
3.960000000000000142e+01,5.860828110520150541e-03
3.964000000000000057e+01,1.389669701455616656e-02
3.967999999999999972e+01,9.791769630159475463e-03
3.971999999999999886e+01,1.096505416929666882e-02
3.975999999999999801e+01,1.117033963091901283e-02
3.979999999999999716e+01,1.339876823838895975e-02
3.984000000000000341e+01,2.539212101619464645e-02
3.988000000000000256e+01,1.811871567640638628e-02
3.992000000000000171e+01,1.260452692814179564e-02
3.996000000000000085e+01,1.553563828452779808e-02
4.000000000000000000e+01,5.798098792844288280e-03
4.003999999999999915e+01,9.432446341174988147e-03
4.007999999999999829e+01,1.772917573529476584e-02
4.011999999999999744e+01,1.300535293440769138e-02
4.015999999999999659e+01,1.294391052832068872e-02
4.020000000000000284e+01,1.068281396769089550e-02
4.024000000000000199e+01,1.026890298724204148e-02
4.028000000000000114e+01,3.872420318883415882e-03
4.032000000000000028e+01,8.296550626287556296e-03
4.035999999999999943e+01,9.465326365809573206e-03
4.039999999999999858e+01,1.151356206478654741e-02
4.043999999999999773e+01,9.778592989211690872e-03
4.047999999999999687e+01,1.050662868914470707e-02
4.052000000000000313e+01,6.835634615242737119e-03
4.056000000000000227e+01,3.956122806204243406e-03
4.060000000000000142e+01,6.442781752433577973e-03
4.064000000000000057e+01,8.313324830722262221e-03
4.067999999999999972e+01,9.919650486029560690e-03
4.071999999999999886e+01,1.460480011217168798e-02
4.075999999999999801e+01,8.908629713797761723e-03
4.079999999999999716e+01,9.898248332420651885e-03
4.084000000000000341e+01,3.145789253941648055e-03
4.088000000000000256e+01,0.000000000000000000e+00
4.092000000000000171e+01,9.170384313831736814e-03
4.096000000000000085e+01,3.296780967162499850e-03
4.100000000000000000e+01,7.803904299781920170e-03
4.103999999999999915e+01,1.063920699815419819e-02
4.107999999999999829e+01,9.251419350995047572e-03
4.111999999999999744e+01,8.743078604389484254e-03
4.115999999999999659e+01,7.706587351027929800e-03
4.120000000000000284e+01,3.238776709172320328e-03
4.124000000000000199e+01,1.047131028283986021e-02
4.128000000000000114e+01,6.266816889201240123e-03
4.132000000000000028e+01,8.748103081130628386e-03
4.135999999999999943e+01,7.270218226907228416e-03
4.139999999999999858e+01,1.318190984817033118e-02
4.143999999999999773e+01,7.480622014922300514e-03
4.147999999999999687e+01,6.177766257314743631e-03
4.152000000000000313e+01,9.449291435079987950e-03
4.156000000000000227e+01,1.236860843637089570e-02
4.160000000000000142e+01,7.193934785710200813e-03
4.164000000000000057e+01,8.265160953594101814e-03
4.167999999999999972e+01,1.435063911793994090e-02
4.171999999999999886e+01,1.058262860158180017e-02
4.175999999999999801e+01,1.306051572728469425e-02
4.179999999999999716e+01,2.116847622126002276e-02
4.184000000000000341e+01,3.605018166198797891e-02
4.188000000000000256e+01,4.318979054275642881e-02
4.192000000000000171e+01,3.282210015797900476e-02
4.196000000000000085e+01,3.688195950083991703e-02
4.200000000000000000e+01,2.994465278056048646e-02
4.203999999999999915e+01,1.948803664378857825e-02
4.207999999999999829e+01,1.105452229967637985e-02
4.211999999999999744e+01,1.220994118748524281e-02
4.215999999999999659e+01,1.160554433458683282e-02
4.220000000000000284e+01,7.041961200150682713e-03
4.224000000000000199e+01,9.516040135362224817e-03
4.228000000000000114e+01,8.470805301114152364e-03
4.232000000000000028e+01,3.818281179298483805e-03
4.235999999999999943e+01,1.148190450745335475e-02
4.239999999999999858e+01,1.140342184421994608e-02
4.243999999999999773e+01,8.861320020910093756e-03
4.247999999999999687e+01,7.902438772247489390e-03
4.252000000000000313e+01,6.767281520468897138e-03
4.256000000000000227e+01,1.038243592643234986e-02
4.260000000000000142e+01,1.382131287829073060e-02
4.264000000000000057e+01,1.180542409374311583e-02
4.267999999999999972e+01,1.093287829330293580e-02
4.271999999999999886e+01,7.420758669097781042e-03
4.275999999999999801e+01,1.077034209788466784e-02
4.279999999999999716e+01,6.377812280337988998e-03
4.284000000000000341e+01,3.216597337534140254e-03
4.288000000000000256e+01,9.908226220095680409e-03
4.292000000000000171e+01,8.945714472453564561e-03
4.296000000000000085e+01,9.390465008297542090e-03
4.300000000000000000e+01,4.644367656125120321e-03
4.303999999999999915e+01,9.575161642113154750e-03
4.307999999999999829e+01,7.555610436826942604e-03
4.311999999999999744e+01,1.143003303633418656e-02
4.315999999999999659e+01,1.064145360152754169e-02
4.320000000000000284e+01,6.861392466567906717e-03
4.324000000000000199e+01,7.919605448556887514e-03
4.328000000000000114e+01,8.273679887353214274e-03
4.332000000000000028e+01,1.047488404325216775e-02
4.335999999999999943e+01,1.030042714531407069e-02
4.339999999999999858e+01,7.926258053271309501e-03
4.343999999999999773e+01,4.671997930830932080e-03
4.347999999999999687e+01,9.159175728615548406e-03
4.352000000000000313e+01,8.631445792181847640e-03
4.356000000000000227e+01,9.950841219883576824e-03
4.360000000000000142e+01,6.167352669764522566e-03
4.364000000000000057e+01,7.310105774262266182e-03
4.367999999999999972e+01,1.258732667436134392e-02
4.371999999999999886e+01,1.496103123549205258e-02
4.375999999999999801e+01,1.355147080602541951e-02
4.379999999999999716e+01,1.768397267749160368e-02
4.384000000000000341e+01,1.785725852214454026e-02
4.388000000000000256e+01,1.486310074801066444e-02
4.392000000000000171e+01,9.493271763116435669e-03
4.396000000000000085e+01,1.529588890443708132e-02
4.400000000000000000e+01,1.344434582720188155e-02
4.403999999999999915e+01,8.865230192268990644e-03
4.407999999999999829e+01,1.176361721730294699e-02
4.411999999999999744e+01,9.735060418314116226e-03
4.415999999999999659e+01,9.553618101042918656e-03
4.420000000000000284e+01,7.348398665003440244e-03
4.424000000000000199e+01,9.013712489801643801e-03
4.428000000000000114e+01,1.023879401188442298e-02
4.432000000000000028e+01,1.225528960234548333e-02
4.435999999999999943e+01,9.696736186270376798e-03
4.439999999999999858e+01,8.985292898945750062e-03
4.443999999999999773e+01,7.657664821700744563e-03
4.447999999999999687e+01,6.065750399494588413e-03
4.452000000000000313e+01,1.274310379033647030e-02
4.456000000000000227e+01,1.132641284263199641e-02
4.460000000000000142e+01,7.358088765533361136e-03
4.464000000000000057e+01,9.635610094890062136e-03
4.467999999999999972e+01,7.602000991594752739e-03
4.471999999999999886e+01,1.067056353979100279e-02
4.475999999999999801e+01,1.118749005661500914e-02
4.479999999999999716e+01,8.536956268278160162e-03
4.484000000000000341e+01,4.918331264621951700e-03
4.488000000000000256e+01,1.159238777467214848e-02
4.492000000000000171e+01,1.184391447638063512e-02
4.496000000000000085e+01,9.719751104471182138e-03
4.500000000000000000e+01,1.243382992775125991e-02
4.503999999999999915e+01,1.039689782586143176e-02
4.507999999999999829e+01,1.636529900225596953e-02
4.511999999999999744e+01,1.028078001557602462e-02
4.515999999999999659e+01,8.154752395973175610e-03
4.520000000000000284e+01,1.174671127022166271e-02
4.524000000000000199e+01,1.102752955489481705e-02
4.528000000000000114e+01,1.840165228299315767e-02
4.532000000000000028e+01,1.222727974611592661e-02
4.535999999999999943e+01,1.071519328975066750e-02
4.539999999999999858e+01,1.245779550658783832e-02
4.543999999999999773e+01,1.701521170806568131e-02
4.547999999999999687e+01,1.453426439598441353e-02
4.552000000000000313e+01,1.636370109198326608e-02
4.556000000000000227e+01,2.179972272966020433e-02
4.560000000000000142e+01,2.204484932217670376e-02
4.564000000000000057e+01,2.827187880594509914e-02
4.567999999999999972e+01,5.288525621396594767e-02
4.571999999999999886e+01,6.667734967308261429e-02
4.575999999999999801e+01,5.495636809135607398e-02
4.579999999999999716e+01,5.115273193639904153e-02
4.584000000000000341e+01,4.673288559921331964e-02
4.588000000000000256e+01,3.773796268669955128e-02
4.592000000000000171e+01,2.539960956995139518e-02
4.596000000000000085e+01,2.265012003764997964e-02
4.600000000000000000e+01,2.192366119954498524e-02
4.603999999999999915e+01,1.723794643242794467e-02
4.607999999999999829e+01,1.369551298238385825e-02
4.611999999999999744e+01,1.393560390232139769e-02
4.615999999999999659e+01,1.276770570255307199e-02
4.620000000000000284e+01,9.312069731449979654e-03
4.624000000000000199e+01,1.289402328054221024e-02
4.628000000000000114e+01,1.269266613288214281e-02
4.632000000000000028e+01,1.451433387546228505e-02
4.635999999999999943e+01,1.440016011518329905e-02
4.639999999999999858e+01,1.041469868905501792e-02
4.643999999999999773e+01,1.170732730338063139e-02
4.647999999999999687e+01,7.721070119052852662e-03
4.652000000000000313e+01,1.517113700713073991e-02
4.656000000000000227e+01,1.100813157739850140e-02
4.660000000000000142e+01,1.441055789409151008e-02
4.664000000000000057e+01,1.350181822890086578e-02
4.667999999999999972e+01,1.206482793870996932e-02
4.671999999999999886e+01,1.133123339461243259e-02
4.675999999999999801e+01,1.015736156713901994e-02
4.679999999999999716e+01,6.607766293299525452e-03
4.684000000000000341e+01,1.141537154643913927e-02
4.688000000000000256e+01,1.085610895336665271e-02
4.692000000000000171e+01,7.745171152217636412e-03
4.696000000000000085e+01,9.384465204413085238e-03
4.700000000000000000e+01,1.190309950946714240e-02
4.703999999999999915e+01,1.169410684473421065e-02
4.707999999999999829e+01,1.095685630005576762e-02
4.711999999999999744e+01,9.339447979483543605e-03
4.715999999999999659e+01,1.220834350694284878e-02
4.720000000000000284e+01,1.278948312570429499e-02
4.724000000000000199e+01,1.486578219265124144e-02
4.728000000000000114e+01,1.192710532889464971e-02
4.732000000000000028e+01,1.356270420380493655e-02
4.735999999999999943e+01,1.255864509758547985e-02
4.739999999999999858e+01,1.243391898927938277e-02
4.743999999999999773e+01,1.846701271019850904e-02
4.747999999999999687e+01,1.658195871669791710e-02
4.752000000000000313e+01,1.680788264121528888e-02
4.756000000000000227e+01,1.351439703099590814e-02
4.760000000000000142e+01,1.400340894746077841e-02
4.764000000000000057e+01,1.167680821910736452e-02
4.767999999999999972e+01,1.022953541020563996e-02
4.771999999999999886e+01,1.537995131513468852e-02
4.775999999999999801e+01,1.463563465729147105e-02
4.779999999999999716e+01,1.688203876513893684e-02
4.784000000000000341e+01,1.648877618592238525e-02
4.788000000000000256e+01,1.108052679358441719e-02
4.792000000000000171e+01,1.279781124328524186e-02
4.796000000000000085e+01,1.169947724421158824e-02
4.800000000000000000e+01,1.447160830949040418e-02
4.803999999999999915e+01,1.328444717103097715e-02
4.807999999999999829e+01,1.385635462321239963e-02
4.811999999999999744e+01,1.777087620758206060e-02
4.815999999999999659e+01,1.499888484071327903e-02
4.820000000000000284e+01,1.398595988800177894e-02
4.824000000000000199e+01,1.130108371202887159e-02
4.828000000000000114e+01,9.847423743543540220e-03
4.832000000000000028e+01,1.279207179113512650e-02
4.835999999999999943e+01,1.098564869751131497e-02
4.839999999999999858e+01,1.208196069454690012e-02
4.843999999999999773e+01,1.572910788629357237e-02
4.847999999999999687e+01,1.497708093079503852e-02
4.852000000000000313e+01,1.475246748890945113e-02
4.856000000000000227e+01,1.311982139764657565e-02
4.860000000000000142e+01,7.175973775268375959e-03
4.864000000000000057e+01,1.240448739624576760e-02
4.867999999999999972e+01,7.163562552177981345e-03
4.871999999999999886e+01,1.406272021922460105e-02
4.875999999999999801e+01,1.163611027421171916e-02
4.879999999999999716e+01,1.167235420184576690e-02
4.884000000000000341e+01,1.056448477948119559e-02
4.888000000000000256e+01,1.517453510547180084e-02
4.892000000000000171e+01,8.435394687315691045e-03
4.896000000000000085e+01,1.603570224264282140e-02
4.900000000000000000e+01,1.290264115112827251e-02
4.903999999999999915e+01,1.284825312758760586e-02
4.907999999999999829e+01,7.602906940862927052e-03
4.911999999999999744e+01,1.238624098758484351e-02
4.915999999999999659e+01,1.145076666445306313e-02
4.920000000000000284e+01,1.544143315219929750e-02
4.924000000000000199e+01,2.427026493271560934e-02
4.928000000000000114e+01,2.509294155894520317e-02
4.932000000000000028e+01,2.397972299572092431e-02
4.935999999999999943e+01,2.497744897776649209e-02
4.939999999999999858e+01,2.351142956368850942e-02
4.943999999999999773e+01,2.046141195412684577e-02
4.947999999999999687e+01,1.978626109119177925e-02
4.952000000000000313e+01,1.814293413007806582e-02
4.956000000000000227e+01,1.957827080550942830e-02
4.960000000000000142e+01,1.511884154542043196e-02
4.964000000000000057e+01,1.505769636008908591e-02
4.967999999999999972e+01,1.306064945585313879e-02
4.971999999999999886e+01,1.475808683447825398e-02
4.975999999999999801e+01,1.196835205741997137e-02
4.979999999999999716e+01,1.348892366052777819e-02
4.984000000000000341e+01,1.324954022797978324e-02
4.988000000000000256e+01,1.063437748598740178e-02
4.992000000000000171e+01,1.576053585960168410e-02
4.996000000000000085e+01,1.164887964893420932e-02
5.000000000000000000e+01,1.369499683584241879e-02
5.003999999999999915e+01,1.679634872325231829e-02
5.007999999999999829e+01,1.611432099193014361e-02
5.011999999999999744e+01,1.261663563512923497e-02
5.015999999999999659e+01,1.580456952960657135e-02
5.020000000000000284e+01,1.256987785046507697e-02
5.024000000000000199e+01,1.734042586081440199e-02
5.028000000000000114e+01,1.076175846020319300e-02
5.032000000000000028e+01,1.693896809921951324e-02
5.035999999999999943e+01,1.502202820298353773e-02
5.039999999999999858e+01,1.284069458859692266e-02
5.043999999999999773e+01,1.488168095385056754e-02
5.047999999999999687e+01,1.525067546814947578e-02
5.052000000000000313e+01,1.412362699122601123e-02
5.056000000000000227e+01,1.440370295382915888e-02
5.060000000000000142e+01,1.934596995716167736e-02
5.064000000000000057e+01,2.208839345188073205e-02
5.067999999999999972e+01,2.210312395681113609e-02
5.071999999999999886e+01,2.062180784304656553e-02
5.075999999999999801e+01,2.723369677995741631e-02
5.079999999999999716e+01,2.856662156480630280e-02
5.084000000000000341e+01,3.456173303741741365e-02
5.088000000000000256e+01,4.477915650922904139e-02
5.092000000000000171e+01,5.789926936554505577e-02
5.096000000000000085e+01,9.125310502571860882e-02
5.100000000000000000e+01,1.585647304119518208e-01
5.103999999999999915e+01,2.206853620857693599e-01
5.107999999999999829e+01,1.959743917764044108e-01
5.111999999999999744e+01,1.496211400849213891e-01
5.115999999999999659e+01,1.481345495015865821e-01
5.120000000000000284e+01,1.366183487101187422e-01
5.124000000000000199e+01,1.031959399822090090e-01
5.128000000000000114e+01,6.713380217470624189e-02
5.132000000000000028e+01,4.470727119560229806e-02
5.135999999999999943e+01,3.618027069724299299e-02
5.139999999999999858e+01,3.249139631494946806e-02
5.143999999999999773e+01,2.774633621812669024e-02
5.147999999999999687e+01,2.863117391990164032e-02
5.152000000000000313e+01,2.186171501015030105e-02
5.156000000000000227e+01,2.028227848494038726e-02
5.160000000000000142e+01,2.116564504776079214e-02
5.164000000000000057e+01,1.932130120892396746e-02
5.167999999999999972e+01,1.677266647304452921e-02
5.171999999999999886e+01,1.642290827087150573e-02
5.175999999999999801e+01,1.563278209850713432e-02
5.179999999999999716e+01,1.352253930432249784e-02
5.184000000000000341e+01,1.484281796394885944e-02
5.188000000000000256e+01,1.809804587746316820e-02
5.192000000000000171e+01,1.299517158359845409e-02
5.196000000000000085e+01,1.352218638239714547e-02
5.200000000000000000e+01,1.528034991769272946e-02
5.203999999999999915e+01,1.527851851513370440e-02
5.207999999999999829e+01,1.378061582706586324e-02
5.211999999999999744e+01,1.157841426151568626e-02
5.215999999999999659e+01,1.175103083445899407e-02
5.220000000000000284e+01,1.737758256187168712e-02
5.224000000000000199e+01,1.068716061034437163e-02
5.228000000000000114e+01,1.446523554126347144e-02
5.232000000000000028e+01,1.384406667746309640e-02
5.235999999999999943e+01,1.348631730196103891e-02
5.239999999999999858e+01,1.312806231142249654e-02
5.243999999999999773e+01,1.672816664795769015e-02
5.247999999999999687e+01,1.197015862019053072e-02
5.252000000000000313e+01,1.363380266168441601e-02
5.256000000000000227e+01,1.160199689639919082e-02
5.260000000000000142e+01,1.106525336303332448e-02
5.264000000000000057e+01,1.835775640425996863e-02
5.267999999999999972e+01,2.072316036563578642e-02
5.271999999999999886e+01,2.282412853017857721e-02
5.275999999999999801e+01,2.483660975762069442e-02
5.279999999999999716e+01,2.332958641054348400e-02
5.284000000000000341e+01,1.971065444526742469e-02
5.288000000000000256e+01,2.145767050844039903e-02
5.292000000000000171e+01,2.056492774674486754e-02
5.296000000000000085e+01,1.069824036651858927e-02
5.300000000000000000e+01,1.763422187800499363e-02
5.303999999999999915e+01,1.735575317224042485e-02
5.307999999999999829e+01,9.422959560663140763e-03
5.311999999999999744e+01,1.477384095977736685e-02
5.315999999999999659e+01,1.352609351345114390e-02
5.320000000000000284e+01,1.139807801606351582e-02
5.324000000000000199e+01,1.164486106881726379e-02
5.328000000000000114e+01,1.153922337520121161e-02
5.332000000000000028e+01,9.761542320519244614e-03
5.335999999999999943e+01,1.783651501163747641e-02
5.339999999999999858e+01,1.394639215492824227e-02
5.343999999999999773e+01,1.436650965838346360e-02
5.347999999999999687e+01,1.197090859481992654e-02
5.352000000000000313e+01,1.177415141770921624e-02
5.356000000000000227e+01,1.043319528224609383e-02
5.360000000000000142e+01,1.173095554531393241e-02
5.364000000000000057e+01,1.074084309506559247e-02
5.367999999999999972e+01,1.564451291905646219e-02
5.371999999999999886e+01,1.588498917817921310e-02
5.375999999999999801e+01,1.216606948784685303e-02
5.379999999999999716e+01,1.398903072481635403e-02
5.384000000000000341e+01,1.405196437667770130e-02
5.388000000000000256e+01,1.411436557020512815e-02
5.392000000000000171e+01,1.558383026171918963e-02
5.396000000000000085e+01,1.564516436209529779e-02
5.400000000000000000e+01,1.526608986458672691e-02
5.403999999999999915e+01,1.497445479937959019e-02
5.407999999999999829e+01,1.195506507734932222e-02
5.411999999999999744e+01,1.034273522583306452e-02
5.415999999999999659e+01,1.312860746819324853e-02
5.420000000000000284e+01,1.705761375223806969e-02
5.424000000000000199e+01,1.649936662521286207e-02
5.428000000000000114e+01,1.857982356331169815e-02
5.432000000000000028e+01,1.494137854276328219e-02
5.435999999999999943e+01,2.256316581246703076e-02
5.439999999999999858e+01,4.417240321794503599e-02
5.443999999999999773e+01,8.944631722118118189e-02
5.447999999999999687e+01,7.586455162527419582e-02
5.452000000000000313e+01,4.292778758816415824e-02
5.456000000000000227e+01,4.210127806321891514e-02
5.460000000000000142e+01,5.385461836476027747e-02
5.464000000000000057e+01,4.203016800316988072e-02
5.467999999999999972e+01,2.255136371598582060e-02
5.471999999999999886e+01,1.450873477483010515e-02
5.475999999999999801e+01,1.702253252807376868e-02
5.479999999999999716e+01,1.698451215081972498e-02
5.484000000000000341e+01,1.571429480677506013e-02
5.488000000000000256e+01,1.453150165964685846e-02
5.492000000000000171e+01,1.185258571689865557e-02
5.496000000000000085e+01,1.445160528427081800e-02
5.500000000000000000e+01,1.608234936071460328e-02
5.503999999999999915e+01,1.199417841960970753e-02
5.507999999999999829e+01,1.520736104225072806e-02
5.511999999999999744e+01,1.666049286395880277e-02
5.515999999999999659e+01,1.459407730697065593e-02
5.520000000000000284e+01,9.975836364539577422e-03
5.524000000000000199e+01,1.538616465489293060e-02
5.528000000000000114e+01,1.279022896678104829e-02
5.532000000000000028e+01,1.089753304343992965e-02
5.535999999999999943e+01,7.420731551425626370e-03
5.539999999999999858e+01,1.370857201237736349e-02
5.543999999999999773e+01,1.243001955595295256e-02
5.547999999999999687e+01,1.238255271800184527e-02
5.552000000000000313e+01,1.233452367644139423e-02
5.556000000000000227e+01,1.905999073701194688e-02
5.560000000000000142e+01,1.276462483619493493e-02
5.564000000000000057e+01,1.632187132799029286e-02
5.567999999999999972e+01,1.477601474261868233e-02
5.571999999999999886e+01,1.754035716422363070e-02
5.575999999999999801e+01,1.388197316847093916e-02
5.579999999999999716e+01,1.875657677415092789e-02
5.584000000000000341e+01,1.905592315636648118e-02
5.588000000000000256e+01,1.891482684245474055e-02
5.592000000000000171e+01,2.264405194497975948e-02
5.596000000000000085e+01,3.024359773844702975e-02
5.600000000000000000e+01,3.801852220759751461e-02
5.603999999999999915e+01,3.294855532014760030e-02
5.607999999999999829e+01,3.183688173976979841e-02
5.611999999999999744e+01,3.169235779211260207e-02
5.615999999999999659e+01,3.119536086247989837e-02
5.620000000000000284e+01,2.885031875094870579e-02
5.624000000000000199e+01,2.527305428031855275e-02
5.628000000000000114e+01,2.239901216259060704e-02
5.632000000000000028e+01,1.811679664954777419e-02
5.635999999999999943e+01,2.060806272874548400e-02
5.639999999999999858e+01,1.685254036790003948e-02
5.643999999999999773e+01,2.189391837841519681e-02
5.647999999999999687e+01,3.423662456036796753e-02
5.652000000000000313e+01,4.895406980191113061e-02
5.656000000000000227e+01,5.267408490030733165e-02
5.660000000000000142e+01,3.580741673519705764e-02
5.664000000000000057e+01,3.108068743328547962e-02
5.667999999999999972e+01,3.084008931170879181e-02
5.671999999999999886e+01,3.781284021598911582e-02
5.675999999999999801e+01,2.604637559966711466e-02
5.679999999999999716e+01,1.436730035652442408e-02
5.684000000000000341e+01,1.799525288319165847e-02
5.688000000000000256e+01,1.739982849399061143e-02
5.692000000000000171e+01,1.944306028727505603e-02
5.696000000000000085e+01,1.576734223927367742e-02
5.700000000000000000e+01,1.710559832333166316e-02
5.703999999999999915e+01,1.633186961226581330e-02
5.707999999999999829e+01,1.247843266183376598e-02
5.711999999999999744e+01,1.671808540844789068e-02
5.715999999999999659e+01,1.699828053857239604e-02
5.720000000000000284e+01,1.103167271876328952e-02
5.724000000000000199e+01,1.007903467804637139e-02
5.728000000000000114e+01,1.519606320228843177e-02
5.732000000000000028e+01,1.230679074784449788e-02
5.735999999999999943e+01,1.548718340737046534e-02
5.739999999999999858e+01,1.567583681618751890e-02
5.743999999999999773e+01,1.744743946469998544e-02
5.747999999999999687e+01,1.288425929220372683e-02
5.752000000000000313e+01,1.412681695385898870e-02
5.756000000000000227e+01,1.422510310770943795e-02
5.760000000000000142e+01,1.581836080666377403e-02
5.764000000000000057e+01,1.477177407239579389e-02
5.767999999999999972e+01,1.258091365383946954e-02
5.771999999999999886e+01,1.470021596753350902e-02
5.775999999999999801e+01,1.629106669424422449e-02
5.779999999999999716e+01,1.198700275905726156e-02
5.784000000000000341e+01,1.199309937963709445e-02
5.788000000000000256e+01,1.630935583048922707e-02
5.792000000000000171e+01,1.235537604239724321e-02
5.796000000000000085e+01,1.288750421881536615e-02
5.800000000000000000e+01,1.588231940413997040e-02
5.803999999999999915e+01,8.671450736541184631e-03
5.807999999999999829e+01,1.052137707286785080e-02
5.811999999999999744e+01,8.411828380836301397e-03
5.815999999999999659e+01,1.298775384117825671e-02
5.820000000000000284e+01,4.366849597761787022e-03
5.824000000000000199e+01,7.270031649468961833e-03
5.828000000000000114e+01,1.078842498673871463e-02
5.832000000000000028e+01,1.166696155737926774e-02
5.835999999999999943e+01,1.316070796259331474e-02
5.839999999999999858e+01,9.551301957012800492e-03
5.843999999999999773e+01,1.007609603955435945e-02
5.847999999999999687e+01,1.332749280290845134e-02
5.852000000000000313e+01,1.420295355000101255e-02
5.856000000000000227e+01,6.808166450237038668e-03
5.860000000000000142e+01,1.014568598262510085e-02
5.864000000000000057e+01,8.819922714318599935e-03
5.867999999999999972e+01,8.461262647083196697e-03
5.871999999999999886e+01,1.294059593041574363e-02
5.875999999999999801e+01,8.533854191125064131e-03
5.879999999999999716e+01,8.525230388346067070e-03
5.884000000000000341e+01,1.089130356647513044e-02
5.888000000000000256e+01,8.770039176169409229e-03
5.892000000000000171e+01,9.991193034530514508e-03
5.896000000000000085e+01,8.572478518350004975e-03
5.900000000000000000e+01,1.419112208961178720e-02
5.903999999999999915e+01,1.268318141205748185e-02
5.907999999999999829e+01,1.548537879993975262e-02
5.911999999999999744e+01,2.162999080901627930e-02
5.915999999999999659e+01,2.425498288994414747e-02
5.920000000000000284e+01,2.283250556154824140e-02
5.924000000000000199e+01,1.815433123185500666e-02
5.928000000000000114e+01,1.840211488841979326e-02
5.932000000000000028e+01,1.891319179723579061e-02
5.935999999999999943e+01,1.704831745440527416e-02
5.939999999999999858e+01,1.236761717136652082e-02
5.943999999999999773e+01,1.287679635044801547e-02
5.947999999999999687e+01,8.546727908223123935e-03
5.952000000000000313e+01,9.846411440196654527e-03
5.956000000000000227e+01,6.922669448168795696e-03
5.960000000000000142e+01,8.221081297535301827e-03
5.964000000000000057e+01,5.735940134978571858e-03
5.967999999999999972e+01,3.426110902608867428e-03
5.971999999999999886e+01,8.153626698780034460e-03
5.975999999999999801e+01,1.006531002529223624e-02
5.979999999999999716e+01,7.049765133928418206e-03
5.984000000000000341e+01,7.992445353151449855e-03
5.988000000000000256e+01,5.943341341005086570e-03
5.992000000000000171e+01,5.301192002666803120e-03
5.996000000000000085e+01,1.178435813251565469e-02
