2.003999999999999915e+01,2.400552689623400293e-02
2.007999999999999829e+01,3.318299574078131808e-02
2.012000000000000099e+01,2.653235358071124109e-02
2.016000000000000014e+01,2.822772334577692763e-02
2.019999999999999929e+01,3.841299737056801805e-02
2.023999999999999844e+01,3.406519897277603820e-02
2.028000000000000114e+01,3.662447275096918087e-02
2.032000000000000028e+01,3.429154254034222360e-02
2.035999999999999943e+01,2.116676962759745512e-02
2.039999999999999858e+01,3.782814692960929925e-02
2.044000000000000128e+01,2.628655384415697419e-02
2.048000000000000043e+01,3.575359907080922356e-02
2.051999999999999957e+01,2.665854234376027754e-02
2.055999999999999872e+01,1.655640115936578977e-02
2.060000000000000142e+01,3.077244721840650954e-02
2.064000000000000057e+01,2.959204665869818660e-02
2.067999999999999972e+01,3.431145048243114393e-02
2.071999999999999886e+01,2.579280910950951591e-02
2.076000000000000156e+01,3.929005239081270057e-02
2.080000000000000071e+01,4.213933268669035892e-02
2.083999999999999986e+01,2.628260733817145214e-02
2.087999999999999901e+01,2.711769979251335561e-02
2.092000000000000171e+01,3.471595063782818152e-02
2.096000000000000085e+01,3.411242458898895713e-02
2.100000000000000000e+01,4.041594800392143971e-02
2.103999999999999915e+01,2.974018262204796217e-02
2.107999999999999829e+01,2.625925137312347390e-02
2.112000000000000099e+01,4.637702298247764476e-02
2.116000000000000014e+01,3.383110000442870330e-02
2.119999999999999929e+01,3.884034631319310815e-02
2.123999999999999844e+01,3.521612610614125588e-02
2.128000000000000114e+01,4.698866871665000056e-02
2.132000000000000028e+01,4.336474325798592849e-02
2.135999999999999943e+01,5.657651405708533782e-02
2.139999999999999858e+01,7.597585372016896210e-02
2.144000000000000128e+01,1.089013344007372097e-01
2.148000000000000043e+01,1.495972109818709816e-01
2.151999999999999957e+01,1.665507845949458776e-01
2.155999999999999872e+01,1.360196105757624785e-01
2.160000000000000142e+01,1.007400857868687855e-01
2.164000000000000057e+01,6.761910159263058440e-02
2.167999999999999972e+01,5.507503706767307577e-02
2.171999999999999886e+01,5.015746727616501172e-02
2.176000000000000156e+01,5.229081657080368595e-02
2.180000000000000071e+01,3.413530037793376104e-02
2.183999999999999986e+01,3.929067713837251785e-02
2.187999999999999901e+01,3.221522728490498755e-02
2.192000000000000171e+01,3.348573383782973978e-02
2.196000000000000085e+01,3.259796299974584977e-02
2.200000000000000000e+01,2.609846719578566218e-02
2.203999999999999915e+01,3.916862453035177549e-02
2.207999999999999829e+01,2.475522772596976465e-02
2.212000000000000099e+01,2.818475837999592087e-02
2.216000000000000014e+01,2.096628314774880500e-02
2.219999999999999929e+01,2.799339294087455424e-02
2.223999999999999844e+01,2.048736722193520918e-02
2.228000000000000114e+01,2.636356242652014570e-02
2.232000000000000028e+01,4.216853097976158010e-02
2.235999999999999943e+01,1.250323701424747858e-02
2.239999999999999858e+01,1.809198683638107638e-02
2.244000000000000128e+01,1.677395544554835527e-02
2.248000000000000043e+01,1.444877903146736184e-02
2.251999999999999957e+01,3.226881499995001151e-02
2.255999999999999872e+01,3.195836545259442274e-02
2.260000000000000142e+01,3.366253262056499718e-02
2.264000000000000057e+01,3.953971918774536187e-02
2.267999999999999972e+01,2.081120461669794253e-02
2.271999999999999886e+01,2.409851287218299151e-02
2.276000000000000156e+01,4.925774909603272689e-02
2.280000000000000071e+01,2.664441137938895060e-02
2.283999999999999986e+01,1.798885130672717506e-02
2.287999999999999901e+01,2.386664200177094144e-02
2.292000000000000171e+01,2.715444423371983149e-02
2.296000000000000085e+01,2.367934244581520326e-02
2.300000000000000000e+01,2.452114229739207896e-02
2.303999999999999915e+01,2.507524744255701724e-02
2.307999999999999829e+01,2.735616696881573370e-02
2.312000000000000099e+01,1.898905032584999666e-02
2.316000000000000014e+01,2.889650912389650494e-02
2.319999999999999929e+01,2.973875878929973030e-02
2.323999999999999844e+01,2.554481875886105771e-02
2.328000000000000114e+01,2.365326118608084005e-02
2.332000000000000028e+01,2.722974392949110631e-02
2.335999999999999943e+01,2.692118196271608976e-02
2.339999999999999858e+01,2.200810604207524557e-02
2.344000000000000128e+01,2.198749226674287169e-02
2.348000000000000043e+01,2.498872262201204744e-02
2.351999999999999957e+01,3.043622146058018452e-02
2.355999999999999872e+01,2.840132937055907594e-02
2.360000000000000142e+01,2.694208648734064751e-02
2.364000000000000057e+01,1.843213094108833716e-02
2.367999999999999972e+01,3.668645661889919501e-02
2.371999999999999886e+01,1.465064634672336510e-02
2.376000000000000156e+01,1.707681723297954646e-02
2.380000000000000071e+01,2.511490689032849777e-02
2.383999999999999986e+01,1.387132188354502950e-02
2.387999999999999901e+01,1.672937531059131427e-02
2.392000000000000171e+01,2.591881170525269645e-02
2.396000000000000085e+01,2.892088692083260443e-02
2.400000000000000000e+01,2.271383417159843557e-02
2.403999999999999915e+01,2.657939411044461103e-02
2.407999999999999829e+01,3.835916152990814093e-02
2.412000000000000099e+01,1.215107792354039665e-02
2.416000000000000014e+01,1.860689785126792145e-02
2.419999999999999929e+01,1.930702981831092929e-02
2.423999999999999844e+01,2.792136421881255895e-02
2.428000000000000114e+01,3.394566725537163238e-02
2.432000000000000028e+01,1.507643022757126049e-02
2.435999999999999943e+01,1.592066675087636454e-02
2.439999999999999858e+01,1.273593216108755491e-02
2.444000000000000128e+01,2.408449912920825053e-02
2.448000000000000043e+01,2.464109343087852316e-02
2.451999999999999957e+01,1.785916011738647446e-02
2.455999999999999872e+01,3.280520439534700960e-02
2.460000000000000142e+01,3.393750669754523608e-02
2.464000000000000057e+01,2.586066084629503117e-02
2.467999999999999972e+01,3.044649222929938018e-02
2.471999999999999886e+01,1.977964188738998846e-02
2.476000000000000156e+01,2.119989187064294511e-02
2.480000000000000071e+01,1.484992461707137709e-02
2.483999999999999986e+01,2.950845814053375260e-02
2.487999999999999901e+01,3.020934725932799755e-02
2.492000000000000171e+01,2.803239763278907865e-02
2.496000000000000085e+01,2.470433115566601084e-02
2.500000000000000000e+01,2.727593278870320964e-02
2.503999999999999915e+01,1.948722487936974460e-02
2.507999999999999829e+01,2.810241509222867473e-02
2.512000000000000099e+01,2.218437894416867145e-02
2.516000000000000014e+01,2.504387778667501591e-02
2.519999999999999929e+01,1.394572213019628325e-02
2.523999999999999844e+01,1.349571569362164811e-02
2.528000000000000114e+01,2.297438923327050145e-02
2.532000000000000028e+01,2.943131781331151733e-02
2.535999999999999943e+01,2.898137306974243876e-02
2.539999999999999858e+01,2.148066014439548380e-02
2.544000000000000128e+01,2.664260047930000139e-02
2.548000000000000043e+01,2.633659966900800398e-02
2.551999999999999957e+01,2.703786828875069312e-02
2.555999999999999872e+01,1.953721490853103926e-02
2.560000000000000142e+01,1.822399790438337247e-02
2.564000000000000057e+01,2.439325838192235238e-02
2.567999999999999972e+01,3.329650639887630353e-02
2.571999999999999886e+01,1.903289334537226762e-02
2.576000000000000156e+01,2.016590178898915522e-02
2.580000000000000071e+01,2.561572354681281721e-02
2.583999999999999986e+01,1.797123219528646426e-02
2.587999999999999901e+01,3.320582556718062323e-02
2.592000000000000171e+01,2.311514761399501711e-02
2.596000000000000085e+01,2.021914985542239834e-02
2.600000000000000000e+01,1.329413051217034208e-02
2.603999999999999915e+01,1.356378883995203524e-02
2.607999999999999829e+01,3.498580242566713683e-02
2.612000000000000099e+01,2.863634723892423059e-02
2.616000000000000014e+01,2.199909892617757726e-02
2.619999999999999929e+01,2.370767200833205635e-02
2.623999999999999844e+01,2.728685338657711387e-02
2.628000000000000114e+01,1.834728216129911244e-02
2.632000000000000028e+01,2.163865564776578168e-02
2.635999999999999943e+01,2.809567601235831921e-02
2.639999999999999858e+01,1.814881288584636182e-02
2.644000000000000128e+01,0.000000000000000000e+00
2.648000000000000043e+01,1.696120860288012622e-02
2.651999999999999957e+01,1.564791317636959889e-02
2.655999999999999872e+01,1.778804551179329410e-02
2.660000000000000142e+01,1.719417970309709484e-02
2.664000000000000057e+01,3.444309877057982749e-02
2.667999999999999972e+01,2.507168017157556522e-02
2.671999999999999886e+01,1.555634437789091620e-02
2.676000000000000156e+01,2.129370494020797755e-02
2.680000000000000071e+01,1.739016842330142962e-02
2.683999999999999986e+01,2.283968828730950293e-02
2.687999999999999901e+01,2.843307310223503609e-02
2.692000000000000171e+01,2.093211073949032691e-02
2.696000000000000085e+01,1.674066992440517015e-02
2.700000000000000000e+01,2.593130114166676894e-02
2.703999999999999915e+01,9.796625703738758018e-03
2.707999999999999829e+01,1.610931634640731802e-02
2.712000000000000099e+01,2.573152348957689212e-02
2.716000000000000014e+01,1.938150395677357141e-02
2.719999999999999929e+01,2.396735900893863860e-02
2.723999999999999844e+01,2.078291985511133977e-02
2.728000000000000114e+01,1.572782268500978395e-02
2.732000000000000028e+01,2.060134113986006321e-02
2.735999999999999943e+01,2.446756063312625906e-02
2.739999999999999858e+01,1.768560894567673333e-02
2.744000000000000128e+01,1.464484445354575538e-02
2.748000000000000043e+01,2.009375457542562915e-02
2.751999999999999957e+01,2.266474393564576681e-02
2.755999999999999872e+01,3.099142705511099757e-02
2.760000000000000142e+01,1.485614743260104363e-02
2.764000000000000057e+01,1.641972754515087785e-02
2.767999999999999972e+01,1.611263702353013527e-02
2.771999999999999886e+01,3.451165888803751913e-02
2.776000000000000156e+01,1.923952279520389774e-02
2.780000000000000071e+01,1.461545516773755070e-02
2.783999999999999986e+01,1.862494439455371353e-02
2.787999999999999901e+01,1.241792808831302004e-02
2.792000000000000171e+01,1.297384935985835576e-02
2.796000000000000085e+01,2.058049414015655082e-02
2.800000000000000000e+01,1.494886407808593103e-02
2.803999999999999915e+01,1.377787026638063045e-02
2.807999999999999829e+01,1.764308582876386589e-02
2.812000000000000099e+01,2.193991441934225323e-02
2.816000000000000014e+01,1.889810057190126694e-02
2.819999999999999929e+01,2.851885292122663743e-02
2.823999999999999844e+01,3.756395933873060700e-02
2.828000000000000114e+01,1.595965691957130367e-02
2.832000000000000028e+01,2.572408444098077396e-02
2.835999999999999943e+01,2.340137453494065337e-02
2.839999999999999858e+01,1.949575847527288547e-02
2.844000000000000128e+01,1.328776701829672592e-02
2.848000000000000043e+01,2.521028958793251895e-02
2.851999999999999957e+01,3.008194555619869009e-02
2.855999999999999872e+01,2.401760655909303960e-02
2.860000000000000142e+01,3.219865070101803062e-02
2.864000000000000057e+01,1.433486973427663611e-02
2.867999999999999972e+01,2.323521226789360822e-02
2.871999999999999886e+01,2.148734198173660875e-02
2.876000000000000156e+01,2.621459558302673826e-02
2.880000000000000071e+01,1.914248506993773344e-02
2.883999999999999986e+01,1.077524171629168706e-02
2.887999999999999901e+01,2.154575494600891386e-02
2.892000000000000171e+01,2.742379290213366877e-02
2.896000000000000085e+01,2.452422722066384744e-02
2.900000000000000000e+01,1.716386453115699082e-02
2.903999999999999915e+01,1.685419128208280604e-02
2.907999999999999829e+01,3.654562988569318160e-02
2.912000000000000099e+01,1.321278386652910593e-02
2.916000000000000014e+01,2.110474769397316375e-02
2.919999999999999929e+01,3.029165205956165993e-02
2.923999999999999844e+01,2.969368878038038465e-02
2.928000000000000114e+01,1.931085659463972412e-02
2.932000000000000028e+01,2.849744790171107253e-02
2.935999999999999943e+01,2.387014708005311819e-02
2.939999999999999858e+01,2.456680118618202388e-02
2.944000000000000128e+01,2.281715475388336120e-02
2.948000000000000043e+01,2.063571687066268964e-02
2.951999999999999957e+01,3.039733556325915909e-02
2.955999999999999872e+01,2.375497108336970323e-02
2.960000000000000142e+01,3.567476608911722413e-02
2.964000000000000057e+01,2.183749163421379660e-02
2.967999999999999972e+01,4.066394658643560783e-02
2.971999999999999886e+01,3.315775516891432406e-02
2.976000000000000156e+01,3.457284723252927044e-02
2.980000000000000071e+01,2.908092591388443393e-02
2.983999999999999986e+01,2.992020081798812958e-02
2.987999999999999901e+01,5.148003032087484360e-02
2.992000000000000171e+01,4.138314407907547898e-02
2.996000000000000085e+01,5.718697938209649223e-02
3.000000000000000000e+01,4.075852203133913804e-02
3.003999999999999915e+01,4.174106151550667498e-02
3.007999999999999829e+01,4.329904579655542707e-02
3.012000000000000099e+01,6.212413079257154275e-02
3.016000000000000014e+01,5.073142843694614795e-02
3.019999999999999929e+01,5.617414348357417653e-02
3.023999999999999844e+01,8.219350817650022956e-02
3.028000000000000114e+01,8.777984628613616502e-02
3.032000000000000028e+01,1.037263861756357874e-01
3.035999999999999943e+01,1.334865728962872089e-01
3.039999999999999858e+01,1.442526652120620090e-01
3.044000000000000128e+01,2.262459467903273624e-01
3.048000000000000043e+01,2.954325560844011100e-01
3.051999999999999957e+01,5.041958103970505256e-01
3.055999999999999872e+01,8.487944749606514128e-01
3.060000000000000142e+01,1.000000000000000000e+00
3.064000000000000057e+01,9.062984767498962757e-01
3.067999999999999972e+01,7.107201387485219124e-01
3.071999999999999886e+01,4.752831247731087450e-01
3.076000000000000156e+01,2.867552721779464964e-01
3.080000000000000071e+01,2.070108261438887987e-01
3.083999999999999986e+01,1.651102423946734510e-01
3.087999999999999901e+01,1.565928181807854092e-01
3.092000000000000171e+01,1.205915609724391574e-01
3.096000000000000085e+01,1.169662056011932239e-01
3.100000000000000000e+01,9.405894970546960221e-02
3.103999999999999915e+01,9.590123251522018888e-02
3.107999999999999829e+01,8.551239849944765326e-02
3.112000000000000099e+01,8.850550655168901160e-02
3.116000000000000014e+01,8.286483516428395923e-02
3.119999999999999929e+01,7.592895649073304332e-02
3.123999999999999844e+01,7.949714417226240448e-02
3.128000000000000114e+01,8.551135554990084431e-02
3.132000000000000028e+01,8.418682480813849400e-02
3.135999999999999943e+01,9.696369654554352902e-02
3.139999999999999858e+01,9.635829259208224251e-02
3.144000000000000128e+01,9.920616246221924950e-02
3.148000000000000043e+01,1.034927945448695791e-01
3.151999999999999957e+01,1.136788890659689577e-01
3.155999999999999872e+01,1.317789551130231218e-01
3.160000000000000142e+01,1.307409953051333062e-01
3.164000000000000057e+01,1.492723858062564302e-01
3.167999999999999972e+01,1.714009361566183054e-01
3.171999999999999886e+01,1.628799691564079277e-01
3.176000000000000156e+01,1.641435841261213446e-01
3.180000000000000071e+01,1.911639690019535653e-01
3.183999999999999986e+01,1.758794514352070848e-01
3.187999999999999901e+01,1.803081702031140987e-01
3.192000000000000171e+01,1.664622146000294678e-01
3.196000000000000085e+01,1.506015597549045515e-01
3.200000000000000000e+01,1.288410773037374224e-01
3.203999999999999915e+01,1.128361472913757269e-01
3.207999999999999829e+01,1.142421497626675414e-01
3.211999999999999744e+01,1.136334479447605600e-01
3.215999999999999659e+01,1.206509115332074361e-01
3.220000000000000284e+01,1.055085648159225231e-01
3.224000000000000199e+01,9.338778589730840907e-02
3.228000000000000114e+01,8.918095579243563720e-02
3.232000000000000028e+01,7.648420325239516093e-02
3.235999999999999943e+01,8.681022462223196567e-02
3.239999999999999858e+01,8.159553481078793413e-02
3.243999999999999773e+01,7.019321632085913365e-02
3.247999999999999687e+01,9.735417636428871091e-02
3.252000000000000313e+01,7.055483120807831687e-02
3.256000000000000227e+01,7.670691180289564148e-02
3.260000000000000142e+01,8.832673997870713056e-02
3.264000000000000057e+01,7.778674396910086053e-02
3.267999999999999972e+01,8.278704476338628881e-02
3.271999999999999886e+01,8.793102628730203874e-02
3.275999999999999801e+01,1.063130045494783404e-01
3.279999999999999716e+01,1.232558314575450259e-01
3.284000000000000341e+01,1.884027965002055272e-01
3.288000000000000256e+01,4.809014259065796382e-01
3.292000000000000171e+01,9.394530463577476231e-01
3.296000000000000085e+01,8.155231682323114129e-01
3.300000000000000000e+01,6.902980260401957446e-01
3.303999999999999915e+01,7.246506592704837768e-01
3.307999999999999829e+01,5.176935071516077791e-01
3.311999999999999744e+01,1.943262100780907276e-01
3.315999999999999659e+01,9.514490941543871094e-02
3.320000000000000284e+01,8.474572970993744792e-02
3.324000000000000199e+01,8.369940449900871438e-02
3.328000000000000114e+01,7.373144578082610479e-02
3.332000000000000028e+01,6.218042570889037446e-02
3.335999999999999943e+01,7.365214800209091139e-02
3.339999999999999858e+01,7.102206353305220987e-02
3.343999999999999773e+01,6.594555234662194398e-02
3.347999999999999687e+01,6.302720826511420960e-02
3.352000000000000313e+01,6.140366844846996408e-02
3.356000000000000227e+01,7.344978092342828446e-02
3.360000000000000142e+01,7.168186751995543615e-02
3.364000000000000057e+01,6.646026591549521190e-02
3.367999999999999972e+01,6.526744185992652825e-02
3.371999999999999886e+01,7.270798917556339780e-02
3.375999999999999801e+01,7.381697257727906636e-02
3.379999999999999716e+01,6.988943317068817274e-02
3.384000000000000341e+01,7.617809091009462852e-02
3.388000000000000256e+01,6.980386270956838446e-02
3.392000000000000171e+01,8.026493456485921107e-02
3.396000000000000085e+01,7.763143716750343926e-02
3.400000000000000000e+01,8.895536537482068296e-02
3.403999999999999915e+01,9.553055039584996966e-02
3.407999999999999829e+01,1.041199899985789795e-01
3.411999999999999744e+01,1.027805144218240929e-01
3.415999999999999659e+01,9.899458941546422641e-02
3.420000000000000284e+01,1.097416580903420313e-01
3.424000000000000199e+01,1.144449349025796620e-01
3.428000000000000114e+01,1.257670550716724622e-01
3.432000000000000028e+01,1.415496133901572029e-01
3.435999999999999943e+01,1.416475051032907162e-01
3.439999999999999858e+01,1.269240905275526576e-01
3.443999999999999773e+01,1.373817881943042996e-01
3.447999999999999687e+01,1.236650932840195199e-01
3.452000000000000313e+01,1.477921445739303896e-01
3.456000000000000227e+01,1.224195278006550980e-01
3.460000000000000142e+01,1.098531689341823714e-01
3.464000000000000057e+01,1.077907691706706250e-01
3.467999999999999972e+01,1.093254346221746581e-01
3.471999999999999886e+01,1.023701019311326205e-01
3.475999999999999801e+01,9.642174719671876837e-02
3.479999999999999716e+01,8.730745486217456053e-02
3.484000000000000341e+01,9.531622075504217473e-02
3.488000000000000256e+01,9.339604749442280418e-02
3.492000000000000171e+01,8.687099688452162849e-02
3.496000000000000085e+01,7.718000362733157260e-02
3.500000000000000000e+01,9.065559459828081978e-02
3.503999999999999915e+01,8.283464725470356116e-02
3.507999999999999829e+01,7.443783821327676353e-02
3.511999999999999744e+01,8.445912093413851518e-02
3.515999999999999659e+01,9.462400741546263261e-02
3.520000000000000284e+01,8.780915842644877733e-02
3.524000000000000199e+01,8.905205847512134842e-02
3.528000000000000114e+01,1.055473861186025236e-01
3.532000000000000028e+01,1.321149706254862444e-01
3.535999999999999943e+01,1.444367929460599331e-01
3.539999999999999858e+01,2.042432046647994215e-01
3.543999999999999773e+01,2.716756783231422667e-01
3.547999999999999687e+01,3.278841515337493906e-01
3.552000000000000313e+01,3.052386327370580910e-01
3.556000000000000227e+01,2.663328350958131807e-01
3.560000000000000142e+01,2.136129484866553796e-01
3.564000000000000057e+01,1.680874367190180740e-01
3.567999999999999972e+01,1.559449330719513971e-01
3.571999999999999886e+01,1.321467406172764092e-01
3.575999999999999801e+01,1.382781074465150306e-01
3.579999999999999716e+01,1.192277848850114980e-01
3.584000000000000341e+01,1.439208043361532852e-01
3.588000000000000256e+01,1.349424096866574663e-01
3.592000000000000171e+01,1.427992520034967738e-01
3.596000000000000085e+01,1.500802048631145191e-01
3.600000000000000000e+01,1.644116276117677244e-01
3.603999999999999915e+01,1.550002893627233092e-01
3.607999999999999829e+01,1.835765417004568689e-01
3.611999999999999744e+01,2.013604541909551904e-01
3.615999999999999659e+01,2.070569832050244419e-01
3.620000000000000284e+01,2.170699974679944910e-01
3.624000000000000199e+01,2.653583844633403133e-01
3.628000000000000114e+01,3.421373783755521369e-01
3.632000000000000028e+01,3.809281364160931327e-01
3.635999999999999943e+01,3.387064720060794509e-01
3.639999999999999858e+01,3.051180944273654827e-01
3.643999999999999773e+01,2.436140289380887558e-01
3.647999999999999687e+01,1.813901639919467956e-01
3.652000000000000313e+01,1.754283624929332819e-01
3.656000000000000227e+01,1.373779550030189145e-01
3.660000000000000142e+01,1.145799334688552273e-01
3.664000000000000057e+01,1.001274040024969225e-01
3.667999999999999972e+01,8.682568552324249067e-02
3.671999999999999886e+01,1.010073049065201706e-01
3.675999999999999801e+01,9.504348048934281590e-02
3.679999999999999716e+01,7.612889082883274317e-02
3.684000000000000341e+01,7.361782832436138124e-02
3.688000000000000256e+01,6.650182664291602597e-02
3.692000000000000171e+01,6.312671311264493601e-02
3.696000000000000085e+01,6.320469927900199125e-02
3.700000000000000000e+01,5.177084985686059015e-02
3.703999999999999915e+01,5.343096856511021786e-02
3.707999999999999829e+01,5.465905608240656521e-02
3.711999999999999744e+01,5.214555843026053017e-02
3.715999999999999659e+01,4.761719750342130464e-02
3.720000000000000284e+01,4.280069519663817768e-02
3.724000000000000199e+01,4.143728375395574343e-02
3.728000000000000114e+01,5.158500331076583401e-02
3.732000000000000028e+01,4.446513332963071552e-02
3.735999999999999943e+01,4.914417901716534171e-02
3.739999999999999858e+01,3.410944150474534697e-02
3.743999999999999773e+01,4.080227528751448340e-02
3.747999999999999687e+01,3.569547114755292072e-02
3.752000000000000313e+01,4.152421605083314593e-02
3.756000000000000227e+01,4.217242594120251126e-02
3.760000000000000142e+01,4.756875770696996492e-02
3.764000000000000057e+01,4.303606325576538744e-02
3.767999999999999972e+01,5.764084779420370480e-02
3.771999999999999886e+01,6.433111394138606165e-02
3.775999999999999801e+01,6.138013727898392752e-02
3.779999999999999716e+01,5.094632049088126946e-02
3.784000000000000341e+01,5.389423379013330573e-02
3.788000000000000256e+01,3.468215760952501892e-02
3.792000000000000171e+01,3.374419126955240100e-02
3.796000000000000085e+01,2.258940142553407526e-02
3.800000000000000000e+01,2.021174153760825487e-02
3.803999999999999915e+01,1.884095613956026163e-02
3.807999999999999829e+01,3.272251001104629214e-02
3.811999999999999744e+01,2.473185402469065333e-02
3.815999999999999659e+01,2.163319584505640075e-02
3.820000000000000284e+01,2.198759824657154152e-02
3.824000000000000199e+01,2.521948558193349774e-02
3.828000000000000114e+01,1.924179449358036018e-02
3.832000000000000028e+01,2.535077598370208060e-02
3.835999999999999943e+01,2.268185731566420976e-02
3.839999999999999858e+01,3.411411905181732651e-02
3.843999999999999773e+01,3.389060617866673092e-02
3.847999999999999687e+01,2.201131743442277799e-02
3.852000000000000313e+01,3.157177872429119125e-02
3.856000000000000227e+01,2.242567539695312223e-02
3.860000000000000142e+01,2.766853335761440200e-02
3.864000000000000057e+01,2.672356706239686561e-02
3.867999999999999972e+01,3.124615655614844389e-02
3.871999999999999886e+01,2.612747295736419367e-02
3.875999999999999801e+01,2.100838596159660537e-02
3.879999999999999716e+01,2.524197807164166654e-02
3.884000000000000341e+01,2.818012189371996851e-02
3.888000000000000256e+01,2.766441222036827158e-02
3.892000000000000171e+01,3.491854830729966552e-02
3.896000000000000085e+01,4.490625301948606568e-02
3.900000000000000000e+01,7.662147981706571298e-02
3.903999999999999915e+01,8.272323422980765173e-02
3.907999999999999829e+01,1.688294147375509757e-01
3.911999999999999744e+01,2.041407409706852694e-01
3.915999999999999659e+01,1.578639820424773965e-01
3.920000000000000284e+01,1.369120788001705336e-01
3.924000000000000199e+01,1.093406515860056022e-01
3.928000000000000114e+01,6.291874344604250768e-02
3.932000000000000028e+01,3.865602808629018533e-02
3.935999999999999943e+01,2.604827170934751260e-02
3.939999999999999858e+01,1.545460209608258764e-02
3.943999999999999773e+01,2.299110077906882030e-02
3.947999999999999687e+01,1.944736643173364254e-02
3.952000000000000313e+01,1.806160865908567476e-02
3.956000000000000227e+01,1.480480550074446573e-02
3.960000000000000142e+01,2.147623059793610234e-02
3.964000000000000057e+01,1.836245998505200289e-02
3.967999999999999972e+01,2.244293677293492453e-02
3.971999999999999886e+01,1.213362024305909836e-02
3.975999999999999801e+01,1.837163235495665667e-02
3.979999999999999716e+01,2.331416589593612518e-02
3.984000000000000341e+01,1.832760382151344195e-02
3.988000000000000256e+01,1.665015573669707122e-02
3.992000000000000171e+01,1.439669327748487916e-02
3.996000000000000085e+01,1.559623588067795240e-02
4.000000000000000000e+01,1.348578325470940927e-02
4.003999999999999915e+01,1.353329080016271377e-02
4.007999999999999829e+01,1.660211883351762549e-02
4.011999999999999744e+01,1.549758627407252232e-02
4.015999999999999659e+01,1.611932931154564166e-02
4.020000000000000284e+01,1.717230431674317617e-02
4.024000000000000199e+01,4.554937582807854282e-03
4.028000000000000114e+01,1.683071167731860912e-02
4.032000000000000028e+01,1.730675826203438225e-02
4.035999999999999943e+01,1.562394703250766931e-02
4.039999999999999858e+01,1.840138216034789553e-02
4.043999999999999773e+01,1.312031949885853963e-02
4.047999999999999687e+01,1.330675584580448892e-02
4.052000000000000313e+01,1.090264854221473928e-02
4.056000000000000227e+01,1.482939930175043546e-02
4.060000000000000142e+01,2.177745414592256734e-02
4.064000000000000057e+01,6.133751657614535530e-03
4.067999999999999972e+01,1.610264536174735306e-02
4.071999999999999886e+01,8.372161486680953710e-03
4.075999999999999801e+01,2.280082496739836012e-02
4.079999999999999716e+01,1.434993887572064142e-02
4.084000000000000341e+01,1.712228429150109560e-02
4.088000000000000256e+01,1.442620277307430504e-02
4.092000000000000171e+01,1.662203199788382310e-02
4.096000000000000085e+01,1.680287807798457392e-02
4.100000000000000000e+01,1.914165404655580535e-02
4.103999999999999915e+01,1.385359408808756188e-02
4.107999999999999829e+01,1.532805657861429846e-02
4.111999999999999744e+01,8.743999829387517561e-03
4.115999999999999659e+01,2.705305614923475196e-02
4.120000000000000284e+01,1.025159458663999976e-02
4.124000000000000199e+01,1.575315883473162731e-02
4.128000000000000114e+01,2.125424019309267790e-02
4.132000000000000028e+01,2.171856152669512929e-02
4.135999999999999943e+01,1.599497280272340130e-02
4.139999999999999858e+01,1.501938608413410509e-02
4.143999999999999773e+01,1.979905528378539045e-02
4.147999999999999687e+01,1.522515152017224482e-02
4.152000000000000313e+01,2.101109623532405185e-02
4.156000000000000227e+01,1.514116792158030911e-02
4.160000000000000142e+01,1.588985205718801766e-02
4.164000000000000057e+01,1.850865869987550552e-02
4.167999999999999972e+01,1.738573632910184533e-02
4.171999999999999886e+01,2.619097533901017238e-02
4.175999999999999801e+01,2.909607886620445283e-02
4.179999999999999716e+01,3.257625748591581882e-02
4.184000000000000341e+01,3.965327546029769751e-02
4.188000000000000256e+01,3.464272952233223707e-02
4.192000000000000171e+01,3.912865786696587134e-02
4.196000000000000085e+01,3.095144539015996440e-02
4.200000000000000000e+01,2.349319529330118339e-02
4.203999999999999915e+01,2.078292701319067737e-02
4.207999999999999829e+01,1.994276736047394943e-02
4.211999999999999744e+01,1.550475841098826468e-02
4.215999999999999659e+01,1.451968512547772115e-02
4.220000000000000284e+01,1.871426939869161657e-02
4.224000000000000199e+01,1.556976708393341055e-02
4.228000000000000114e+01,2.479959962323231848e-02
4.232000000000000028e+01,1.359602578055992342e-02
4.235999999999999943e+01,1.764465619593022158e-02
4.239999999999999858e+01,1.996604523492121613e-02
4.243999999999999773e+01,1.019985269650995445e-02
4.247999999999999687e+01,8.635074408238650745e-03
4.252000000000000313e+01,1.512781551193949359e-02
4.256000000000000227e+01,1.471314072248579297e-02
4.260000000000000142e+01,2.336323797607263789e-02
4.264000000000000057e+01,1.042876998234514713e-02
4.267999999999999972e+01,1.950949518212056685e-02
4.271999999999999886e+01,1.175414129148424566e-02
4.275999999999999801e+01,1.076125685467807860e-02
4.279999999999999716e+01,2.458888200709389779e-02
4.284000000000000341e+01,1.755140358513837540e-02
4.288000000000000256e+01,1.353515732580979659e-02
4.292000000000000171e+01,1.944703459347406349e-02
4.296000000000000085e+01,1.730033457906154579e-02
4.300000000000000000e+01,1.673592697812464197e-02
4.303999999999999915e+01,2.005610807092555320e-02
4.307999999999999829e+01,2.855591896307887664e-02
4.311999999999999744e+01,2.237804209259773580e-02
4.315999999999999659e+01,5.361195808661559786e-02
4.320000000000000284e+01,1.275817287493377084e-01
4.324000000000000199e+01,1.426984737759365851e-01
4.328000000000000114e+01,8.644344901971558193e-02
4.332000000000000028e+01,8.285293329692854092e-02
4.335999999999999943e+01,7.710346512567621546e-02
4.339999999999999858e+01,3.437279292063456781e-02
4.343999999999999773e+01,2.142754413951772699e-02
4.347999999999999687e+01,1.725925244931288474e-02
4.352000000000000313e+01,2.417021413028228038e-02
4.356000000000000227e+01,2.201532442768257963e-02
4.360000000000000142e+01,1.626253874209725864e-02
4.364000000000000057e+01,2.389130018436910405e-02
4.367999999999999972e+01,2.029580251202930605e-02
4.371999999999999886e+01,2.000929769749055370e-02
4.375999999999999801e+01,2.303178447896319508e-02
4.379999999999999716e+01,1.857124186628953538e-02
4.384000000000000341e+01,1.914641148258688572e-02
4.388000000000000256e+01,2.590844083709152243e-02
4.392000000000000171e+01,2.360460745192030640e-02
4.396000000000000085e+01,1.827844111316973344e-02
4.400000000000000000e+01,1.208834450472374283e-02
4.403999999999999915e+01,2.014314398450794963e-02
4.407999999999999829e+01,2.301720277967024900e-02
4.411999999999999744e+01,2.013494524290802487e-02
4.415999999999999659e+01,1.897883712410018339e-02
4.420000000000000284e+01,1.278587813167976657e-02
4.424000000000000199e+01,1.983055374389365577e-02
4.428000000000000114e+01,1.406812175449070369e-02
4.432000000000000028e+01,1.765819474393036728e-02
4.435999999999999943e+01,1.779424137275948531e-02
4.439999999999999858e+01,2.008811063793984608e-02
4.443999999999999773e+01,1.590618549498745357e-02
4.447999999999999687e+01,1.762331397064122868e-02
4.452000000000000313e+01,8.835624815992189005e-03
4.456000000000000227e+01,2.220696314711130201e-02
4.460000000000000142e+01,1.500092957787147602e-02
4.464000000000000057e+01,1.642792291126587284e-02
4.467999999999999972e+01,2.260281478329241589e-02
4.471999999999999886e+01,1.827288271606787237e-02
4.475999999999999801e+01,2.027367622405687464e-02
4.479999999999999716e+01,1.479140879315863841e-02
4.484000000000000341e+01,1.808605555232465842e-02
4.488000000000000256e+01,2.727974331220057655e-02
4.492000000000000171e+01,2.035675056512584527e-02
4.496000000000000085e+01,2.321792339739421271e-02
4.500000000000000000e+01,2.104222012025718652e-02
4.503999999999999915e+01,1.454910745381642230e-02
4.507999999999999829e+01,1.884741175599747784e-02
4.511999999999999744e+01,2.156228247648202256e-02
4.515999999999999659e+01,1.348452818527307896e-02
4.520000000000000284e+01,1.850048461936888364e-02
4.524000000000000199e+01,2.365972684293819739e-02
4.528000000000000114e+01,1.370953237809778395e-02
4.532000000000000028e+01,1.037783301617245697e-02
4.535999999999999943e+01,1.467188267002017370e-02
4.539999999999999858e+01,2.184319139736941653e-02
4.543999999999999773e+01,3.059671556902630873e-02
4.547999999999999687e+01,2.481637112883835344e-02
4.552000000000000313e+01,2.824460021742555144e-02
4.556000000000000227e+01,3.771574245267698272e-02
4.560000000000000142e+01,3.970379851324840753e-02
4.564000000000000057e+01,5.651227457597746140e-02
4.567999999999999972e+01,6.382315159115183045e-02
4.571999999999999886e+01,6.782385294124626540e-02
4.575999999999999801e+01,4.923263544978685041e-02
4.579999999999999716e+01,6.172180930406771793e-02
4.584000000000000341e+01,5.348967854613261713e-02
4.588000000000000256e+01,4.799089812384511877e-02
4.592000000000000171e+01,3.515291502893868464e-02
4.596000000000000085e+01,3.109181079398669681e-02
4.600000000000000000e+01,2.760564916363979909e-02
4.603999999999999915e+01,2.440664168335183667e-02
4.607999999999999829e+01,1.501957525431238047e-02
4.611999999999999744e+01,2.002123289682013543e-02
4.615999999999999659e+01,2.574172169315266587e-02
4.620000000000000284e+01,1.908672311110045511e-02
4.624000000000000199e+01,2.379867929128348311e-02
4.628000000000000114e+01,2.937335643630060653e-02
4.632000000000000028e+01,3.336456214593210706e-02
4.635999999999999943e+01,3.145548726704110176e-02
4.639999999999999858e+01,2.551674729075507908e-02
4.643999999999999773e+01,1.871400007560568984e-02
4.647999999999999687e+01,2.730722075054448778e-02
4.652000000000000313e+01,2.654670947672446019e-02
4.656000000000000227e+01,2.765616550985873154e-02
4.660000000000000142e+01,3.020390679902294762e-02
4.664000000000000057e+01,2.483684831784181007e-02
4.667999999999999972e+01,3.213177308661412795e-02
4.671999999999999886e+01,2.791455565200581107e-02
4.675999999999999801e+01,2.369668246248644861e-02
4.679999999999999716e+01,2.163655620194004231e-02
4.684000000000000341e+01,3.209451454781029472e-02
4.688000000000000256e+01,2.873802810108947586e-02
4.692000000000000171e+01,2.940990155088983940e-02
4.696000000000000085e+01,3.108836811147866475e-02
4.700000000000000000e+01,3.017608661161031228e-02
4.703999999999999915e+01,2.451465184382153537e-02
4.707999999999999829e+01,3.583199559943702622e-02
4.711999999999999744e+01,3.160816383518474243e-02
4.715999999999999659e+01,2.752755729450329092e-02
4.720000000000000284e+01,2.747530181781555891e-02
4.724000000000000199e+01,3.706324640208325666e-02
4.728000000000000114e+01,3.024664884105518481e-02
4.732000000000000028e+01,3.393361039567271975e-02
4.735999999999999943e+01,3.862715244318237762e-02
4.739999999999999858e+01,3.785206188477362177e-02
4.743999999999999773e+01,3.376674140433046090e-02
4.747999999999999687e+01,3.673152867929657672e-02
4.752000000000000313e+01,3.106202044265411050e-02
4.756000000000000227e+01,3.258651103421987549e-02
4.760000000000000142e+01,3.813934007188295866e-02
4.764000000000000057e+01,3.851131612564633044e-02
4.767999999999999972e+01,3.183182118080315343e-02
4.771999999999999886e+01,3.407304317354860335e-02
4.775999999999999801e+01,3.242845076442954499e-02
4.779999999999999716e+01,3.193431856489480775e-02
4.784000000000000341e+01,3.935364434293205094e-02
4.788000000000000256e+01,2.633938835023820479e-02
4.792000000000000171e+01,3.145503315439215214e-02
4.796000000000000085e+01,2.951919812741211901e-02
4.800000000000000000e+01,2.930939138658116352e-02
4.803999999999999915e+01,2.665269737514071660e-02
4.807999999999999829e+01,2.903158184296953520e-02
4.811999999999999744e+01,2.666127897455772278e-02
4.815999999999999659e+01,2.486585057411049016e-02
4.820000000000000284e+01,3.472510230096273465e-02
4.824000000000000199e+01,3.076986633437626614e-02
4.828000000000000114e+01,3.041126657432851113e-02
4.832000000000000028e+01,2.861302588579144046e-02
4.835999999999999943e+01,3.616716273534342774e-02
4.839999999999999858e+01,2.889955166965046951e-02
4.843999999999999773e+01,2.580414614885061936e-02
4.847999999999999687e+01,3.076607201336677144e-02
4.852000000000000313e+01,2.248907573742970484e-02
4.856000000000000227e+01,2.313276990149878629e-02
4.860000000000000142e+01,2.521468623211587864e-02
4.864000000000000057e+01,2.499358996165711166e-02
4.867999999999999972e+01,2.074275667179391672e-02
4.871999999999999886e+01,2.224694965445704956e-02
4.875999999999999801e+01,2.432599817824022265e-02
4.879999999999999716e+01,3.043334729443153072e-02
4.884000000000000341e+01,2.143114742293536490e-02
4.888000000000000256e+01,2.264467026453239815e-02
4.892000000000000171e+01,2.126738447976962015e-02
4.896000000000000085e+01,2.765962774609071265e-02
4.900000000000000000e+01,2.685646477836898735e-02
4.903999999999999915e+01,2.274302141702732455e-02
4.907999999999999829e+01,3.071591121274781788e-02
4.911999999999999744e+01,3.149339098905658968e-02
4.915999999999999659e+01,2.579492746605520359e-02
4.920000000000000284e+01,3.304615489301649528e-02
4.924000000000000199e+01,3.698709561740966267e-02
4.928000000000000114e+01,3.531545083539318342e-02
4.932000000000000028e+01,3.349917594755062039e-02
4.935999999999999943e+01,3.686233275808718096e-02
4.939999999999999858e+01,3.446900668046696398e-02
4.943999999999999773e+01,3.524059942835124776e-02
4.947999999999999687e+01,2.968013237898647558e-02
4.952000000000000313e+01,3.246475110116363305e-02
4.956000000000000227e+01,3.409747697212912876e-02
4.960000000000000142e+01,2.824699048945075383e-02
4.964000000000000057e+01,2.584920371608519923e-02
4.967999999999999972e+01,2.474571144456914201e-02
4.971999999999999886e+01,2.666323556965190245e-02
4.975999999999999801e+01,2.124143589031047413e-02
4.979999999999999716e+01,2.632311709565705871e-02
4.984000000000000341e+01,2.622387591867380435e-02
4.988000000000000256e+01,2.669945495270069705e-02
4.992000000000000171e+01,2.400861943011384225e-02
4.996000000000000085e+01,2.433879273338794905e-02
5.000000000000000000e+01,2.006361299268661844e-02
5.003999999999999915e+01,1.909722674702345538e-02
5.007999999999999829e+01,2.590033422233424185e-02
5.011999999999999744e+01,2.435685136246644109e-02
5.015999999999999659e+01,2.856834935069798437e-02
5.020000000000000284e+01,2.472104167292810128e-02
5.024000000000000199e+01,2.720428670519128844e-02
5.028000000000000114e+01,3.875206151688440070e-02
5.032000000000000028e+01,2.252760417338821666e-02
5.035999999999999943e+01,2.874977854891911169e-02
5.039999999999999858e+01,2.648146016036567046e-02
5.043999999999999773e+01,2.737802905257579605e-02
5.047999999999999687e+01,3.000054799997739149e-02
5.052000000000000313e+01,3.060778223494658307e-02
5.056000000000000227e+01,2.761690093553309869e-02
5.060000000000000142e+01,3.397832651398893095e-02
5.064000000000000057e+01,2.983474140832725885e-02
5.067999999999999972e+01,3.662629021711628213e-02
5.071999999999999886e+01,3.550291055301685317e-02
5.075999999999999801e+01,3.898334403914623103e-02
5.079999999999999716e+01,5.224775888333148960e-02
5.084000000000000341e+01,6.033121980044593713e-02
5.088000000000000256e+01,6.956504376934252720e-02
5.092000000000000171e+01,7.879808075720573513e-02
5.096000000000000085e+01,1.360907906925782340e-01
5.100000000000000000e+01,1.886342224428560199e-01
5.103999999999999915e+01,2.016061244227153881e-01
5.107999999999999829e+01,1.823450687856568719e-01
5.111999999999999744e+01,1.564641144252176819e-01
5.115999999999999659e+01,1.418060660305100196e-01
5.120000000000000284e+01,1.255643922620807429e-01
5.124000000000000199e+01,9.953715686458065870e-02
5.128000000000000114e+01,7.710646303939640289e-02
5.132000000000000028e+01,6.374026618711146897e-02
5.135999999999999943e+01,4.778318373929880958e-02
5.139999999999999858e+01,4.966810511987888171e-02
5.143999999999999773e+01,3.442888514714960435e-02
5.147999999999999687e+01,3.602441130458614721e-02
5.152000000000000313e+01,3.028055813885438541e-02
5.156000000000000227e+01,2.698208894188509552e-02
5.160000000000000142e+01,2.569732166275393720e-02
5.164000000000000057e+01,3.261367968393552585e-02
5.167999999999999972e+01,3.391737649132921945e-02
5.171999999999999886e+01,2.745000687747174359e-02
5.175999999999999801e+01,2.515473807996737587e-02
5.179999999999999716e+01,3.336288707766913580e-02
5.184000000000000341e+01,2.142511658022212481e-02
5.188000000000000256e+01,2.790490915520514592e-02
5.192000000000000171e+01,3.064264969857950771e-02
5.196000000000000085e+01,2.863108177390793693e-02
5.200000000000000000e+01,2.676258639626096641e-02
5.203999999999999915e+01,2.647609826763132682e-02
5.207999999999999829e+01,2.834719051174235463e-02
5.211999999999999744e+01,1.870597021087158293e-02
5.215999999999999659e+01,2.402885783682561990e-02
5.220000000000000284e+01,3.007038608636898591e-02
5.224000000000000199e+01,2.992366107155654958e-02
5.228000000000000114e+01,2.848106380745885069e-02
5.232000000000000028e+01,1.581393488218755736e-02
5.235999999999999943e+01,2.516169379732670006e-02
5.239999999999999858e+01,2.817730080457322983e-02
5.243999999999999773e+01,2.932145612986292865e-02
5.247999999999999687e+01,2.442124421643722745e-02
5.252000000000000313e+01,2.297364116347033053e-02
5.256000000000000227e+01,2.584200728744206338e-02
5.260000000000000142e+01,2.194653440543822484e-02
5.264000000000000057e+01,1.833800747820303959e-02
5.267999999999999972e+01,3.530542233327872009e-02
5.271999999999999886e+01,3.658759142155903338e-02
5.275999999999999801e+01,3.124981005308347104e-02
5.279999999999999716e+01,2.547950161032684971e-02
5.284000000000000341e+01,3.093204613813685736e-02
5.288000000000000256e+01,3.336197633327809414e-02
5.292000000000000171e+01,3.262539733758274690e-02
5.296000000000000085e+01,2.584443596169631527e-02
5.300000000000000000e+01,3.129357768386567540e-02
5.303999999999999915e+01,2.479869705075684119e-02
5.307999999999999829e+01,2.362702436596900851e-02
5.311999999999999744e+01,2.662740959668660062e-02
5.315999999999999659e+01,2.933914999339457680e-02
5.320000000000000284e+01,3.133056350516850996e-02
5.324000000000000199e+01,2.598254343681972653e-02
5.328000000000000114e+01,2.408710825492663826e-02
5.332000000000000028e+01,2.291027836651305175e-02
5.335999999999999943e+01,1.842303181119853139e-02
5.339999999999999858e+01,2.832427968171707944e-02
5.343999999999999773e+01,2.700096056095225780e-02
5.347999999999999687e+01,2.654013528288654347e-02
5.352000000000000313e+01,2.478339864005676962e-02
5.356000000000000227e+01,2.460862129823811542e-02
5.360000000000000142e+01,2.644748278477559306e-02
5.364000000000000057e+01,2.756600350669305075e-02
5.367999999999999972e+01,2.264011913620591829e-02
5.371999999999999886e+01,2.044733779059727460e-02
5.375999999999999801e+01,2.890180600888070037e-02
5.379999999999999716e+01,2.713895105442161448e-02
5.384000000000000341e+01,2.681415297206794779e-02
5.388000000000000256e+01,2.476175137970870396e-02
5.392000000000000171e+01,2.573023369603621296e-02
5.396000000000000085e+01,2.223713164759234806e-02
5.400000000000000000e+01,2.147712379149945353e-02
5.403999999999999915e+01,2.719144237180216514e-02
5.407999999999999829e+01,2.196896096494373521e-02
5.411999999999999744e+01,2.365248426003637924e-02
5.415999999999999659e+01,2.907635187496915297e-02
5.420000000000000284e+01,1.867103344051164807e-02
5.424000000000000199e+01,2.236639574154838245e-02
5.428000000000000114e+01,4.318420304023264794e-02
5.432000000000000028e+01,4.788503331140128022e-02
5.435999999999999943e+01,5.560673361157068145e-02
5.439999999999999858e+01,8.750166134655248951e-02
5.443999999999999773e+01,1.100426072984271170e-01
5.447999999999999687e+01,8.293936321949742230e-02
5.452000000000000313e+01,6.000813289343590040e-02
5.456000000000000227e+01,6.686197521377960917e-02
5.460000000000000142e+01,6.148395877629272976e-02
5.464000000000000057e+01,5.653671880047080739e-02
5.467999999999999972e+01,3.835036236859126757e-02
5.471999999999999886e+01,2.908450206111361930e-02
5.475999999999999801e+01,2.931471100176114356e-02
5.479999999999999716e+01,2.436384109816363067e-02
5.484000000000000341e+01,2.703842116619489117e-02
5.488000000000000256e+01,3.215828047444865140e-02
5.492000000000000171e+01,2.763635566536299173e-02
5.496000000000000085e+01,2.383298441638161125e-02
5.500000000000000000e+01,2.175542064036259382e-02
5.503999999999999915e+01,2.888613008718485253e-02
5.507999999999999829e+01,2.205824247816189770e-02
5.511999999999999744e+01,2.630924232131803125e-02
5.515999999999999659e+01,2.595472634963539443e-02
5.520000000000000284e+01,2.588707557818450272e-02
5.524000000000000199e+01,3.661052128078728235e-02
5.528000000000000114e+01,2.085662073368977840e-02
5.532000000000000028e+01,3.013928017851247657e-02
5.535999999999999943e+01,3.467252390316995919e-02
5.539999999999999858e+01,3.085901073641654849e-02
5.543999999999999773e+01,3.366367343979968785e-02
5.547999999999999687e+01,2.740210874630143179e-02
5.552000000000000313e+01,2.531252626093031394e-02
5.556000000000000227e+01,2.552430796897959750e-02
5.560000000000000142e+01,2.890081418692903165e-02
5.564000000000000057e+01,2.968629979785938205e-02
5.567999999999999972e+01,3.219757143132828681e-02
5.571999999999999886e+01,3.974418054224549551e-02
5.575999999999999801e+01,3.764897903824097197e-02
5.579999999999999716e+01,3.771124056054070417e-02
5.584000000000000341e+01,3.734087911254681258e-02
5.588000000000000256e+01,3.653789343246958282e-02
5.592000000000000171e+01,4.681376996877865265e-02
5.596000000000000085e+01,5.737648773131637236e-02
5.600000000000000000e+01,5.815349371181621069e-02
5.603999999999999915e+01,4.583523393178902394e-02
5.607999999999999829e+01,4.862485201958033354e-02
5.611999999999999744e+01,5.457917821400650599e-02
5.615999999999999659e+01,5.362565950680105858e-02
5.620000000000000284e+01,5.382233603335591365e-02
5.624000000000000199e+01,5.603256811015073363e-02
5.628000000000000114e+01,5.536397219853580326e-02
5.632000000000000028e+01,4.951424949466956549e-02
5.635999999999999943e+01,5.603841749490783702e-02
5.639999999999999858e+01,5.939596652861087178e-02
5.643999999999999773e+01,5.857964015934141039e-02
5.647999999999999687e+01,7.675630614220663173e-02
5.652000000000000313e+01,9.320528533695005002e-02
5.656000000000000227e+01,8.317687790472486076e-02
5.660000000000000142e+01,7.329139791371575008e-02
5.664000000000000057e+01,6.930458795726282539e-02
5.667999999999999972e+01,8.546191281502225900e-02
5.671999999999999886e+01,6.693991100509467940e-02
5.675999999999999801e+01,6.841814788942195136e-02
5.679999999999999716e+01,5.219649995511532747e-02
5.684000000000000341e+01,5.352889705305415025e-02
5.688000000000000256e+01,5.701872310897707075e-02
5.692000000000000171e+01,5.834916896974713663e-02
5.696000000000000085e+01,4.816714960898916403e-02
5.700000000000000000e+01,5.323687269126625016e-02
5.703999999999999915e+01,4.650634083567949106e-02
5.707999999999999829e+01,4.035040206896794296e-02
5.711999999999999744e+01,4.786337239976188457e-02
5.715999999999999659e+01,3.451078743549397532e-02
5.720000000000000284e+01,3.497100264153044091e-02
5.724000000000000199e+01,3.471076352187942721e-02
5.728000000000000114e+01,3.574457916404667757e-02
5.732000000000000028e+01,3.289227883662584895e-02
5.735999999999999943e+01,3.162181794020044179e-02
5.739999999999999858e+01,2.876753609265957079e-02
5.743999999999999773e+01,3.526534535695984018e-02
5.747999999999999687e+01,2.895563062906256549e-02
5.752000000000000313e+01,2.940791975461887198e-02
5.756000000000000227e+01,2.885195726741404329e-02
5.760000000000000142e+01,3.174844339338398630e-02
5.764000000000000057e+01,2.917597389528812923e-02
5.767999999999999972e+01,2.962426969765300649e-02
5.771999999999999886e+01,2.417192656323802202e-02
5.775999999999999801e+01,3.224457874131609475e-02
5.779999999999999716e+01,2.750969683287952938e-02
5.784000000000000341e+01,2.378106482844975431e-02
5.788000000000000256e+01,2.479991497207141224e-02
5.792000000000000171e+01,1.775971592429148940e-02
5.796000000000000085e+01,1.474752851909249401e-02
5.800000000000000000e+01,1.849732982587139543e-02
5.803999999999999915e+01,2.267780034219591886e-02
5.807999999999999829e+01,1.721638705979967529e-02
5.811999999999999744e+01,2.484827694465498518e-02
5.815999999999999659e+01,2.139934454342778611e-02
5.820000000000000284e+01,2.442460735247377682e-02
5.824000000000000199e+01,1.867134289390985982e-02
5.828000000000000114e+01,2.097510068220051482e-02
5.832000000000000028e+01,2.514845481129178439e-02
5.835999999999999943e+01,2.111885227291717196e-02
5.839999999999999858e+01,1.708822679884672638e-02
5.843999999999999773e+01,2.097072492809409078e-02
5.847999999999999687e+01,2.010370891758444037e-02
5.852000000000000313e+01,2.139407013168365471e-02
5.856000000000000227e+01,1.548872354401647361e-02
5.860000000000000142e+01,1.677702753061739022e-02
5.864000000000000057e+01,2.396393846229244451e-02
5.867999999999999972e+01,2.093337228288919341e-02
5.871999999999999886e+01,2.092353859741609076e-02
5.875999999999999801e+01,1.803479869257557794e-02
5.879999999999999716e+01,1.715953358343825716e-02
5.884000000000000341e+01,1.872942279734921694e-02
5.888000000000000256e+01,1.785208279565863448e-02
5.892000000000000171e+01,1.711759705138514442e-02
5.896000000000000085e+01,1.954772982668221901e-02
5.900000000000000000e+01,1.406267293863567962e-02
5.903999999999999915e+01,2.325371975683966294e-02
5.907999999999999829e+01,2.927806306860269298e-02
5.911999999999999744e+01,3.040897845559627916e-02
5.915999999999999659e+01,3.038769816186496706e-02
5.920000000000000284e+01,3.079705048577978388e-02
5.924000000000000199e+01,2.775190706333865998e-02
5.928000000000000114e+01,2.672022329512501251e-02
5.932000000000000028e+01,2.655084914832333068e-02
5.935999999999999943e+01,2.709988976476573538e-02
5.939999999999999858e+01,2.074098327461583458e-02
5.943999999999999773e+01,1.567606340964364936e-02
5.947999999999999687e+01,2.183378705815822510e-02
5.952000000000000313e+01,2.295417656762866951e-02
5.956000000000000227e+01,2.508076172415149574e-02
5.960000000000000142e+01,1.770930873032550493e-02
5.964000000000000057e+01,1.508528236580685029e-02
5.967999999999999972e+01,2.037434048912716358e-02
5.971999999999999886e+01,1.861154781515981724e-02
5.975999999999999801e+01,1.727937009378368097e-02
5.979999999999999716e+01,1.292435975013135965e-02
5.984000000000000341e+01,1.288508893770342820e-02
5.988000000000000256e+01,1.428368446714551980e-02
5.992000000000000171e+01,1.870297463682860095e-02
5.996000000000000085e+01,1.535093845659494215e-02
