2.003999999999999915e+01,3.626832592367661839e-02
2.007999999999999829e+01,4.617175101165065659e-02
2.012000000000000099e+01,6.678707336800815408e-02
2.016000000000000014e+01,3.343109247256634969e-02
2.019999999999999929e+01,4.786654694388787351e-02
2.023999999999999844e+01,3.634634848690775077e-02
2.028000000000000114e+01,4.295394988002897152e-02
2.032000000000000028e+01,3.905570425316844813e-02
2.035999999999999943e+01,3.330350308291720601e-02
2.039999999999999858e+01,4.135315112645686353e-02
2.044000000000000128e+01,5.105079746803548729e-02
2.048000000000000043e+01,4.179669576530645886e-02
2.051999999999999957e+01,3.851653599976273545e-02
2.055999999999999872e+01,3.667837288453032474e-02
2.060000000000000142e+01,4.617008259277532306e-02
2.064000000000000057e+01,4.350795449014283750e-02
2.067999999999999972e+01,2.910398207605858351e-02
2.071999999999999886e+01,5.466352375780340889e-02
2.076000000000000156e+01,2.213179220767439587e-02
2.080000000000000071e+01,5.222329139171426327e-02
2.083999999999999986e+01,6.047906564454315348e-02
2.087999999999999901e+01,4.463314162300772991e-02
2.092000000000000171e+01,5.371291089181041284e-02
2.096000000000000085e+01,5.311080054742283590e-02
2.100000000000000000e+01,5.724663065045199756e-02
2.103999999999999915e+01,7.703826462120939855e-02
2.107999999999999829e+01,4.327055805207171563e-02
2.112000000000000099e+01,8.922385932425885846e-02
2.116000000000000014e+01,5.422015648360976880e-02
2.119999999999999929e+01,7.339377495620666436e-02
2.123999999999999844e+01,9.215538924389496400e-02
2.128000000000000114e+01,9.237722239747744868e-02
2.132000000000000028e+01,1.072248623756131003e-01
2.135999999999999943e+01,1.158925653865258143e-01
2.139999999999999858e+01,1.148783733904874677e-01
2.144000000000000128e+01,1.356998947507233877e-01
2.148000000000000043e+01,1.470455157545717817e-01
2.151999999999999957e+01,1.585971151257693501e-01
2.155999999999999872e+01,1.429570306908077293e-01
2.160000000000000142e+01,1.293768988691920419e-01
2.164000000000000057e+01,1.225946595983593568e-01
2.167999999999999972e+01,1.232283038271646397e-01
2.171999999999999886e+01,1.018201948878078578e-01
2.176000000000000156e+01,9.709785187353450753e-02
2.180000000000000071e+01,7.733766617282433753e-02
2.183999999999999986e+01,7.220326910404067933e-02
2.187999999999999901e+01,9.693847052550685905e-02
2.192000000000000171e+01,7.532421274900875929e-02
2.196000000000000085e+01,5.885985673239819971e-02
2.200000000000000000e+01,4.527942913252194085e-02
2.203999999999999915e+01,5.065072960541992103e-02
2.207999999999999829e+01,5.725797610075341465e-02
2.212000000000000099e+01,4.965135851190418531e-02
2.216000000000000014e+01,5.193257702264871684e-02
2.219999999999999929e+01,4.700384193093563867e-02
2.223999999999999844e+01,6.164482026312013974e-02
2.228000000000000114e+01,5.053607174535906799e-02
2.232000000000000028e+01,5.096313332489346010e-02
2.235999999999999943e+01,5.324412347912124699e-02
2.239999999999999858e+01,2.833340043910074352e-02
2.244000000000000128e+01,3.349825374670002687e-02
2.248000000000000043e+01,3.227713345352860308e-02
2.251999999999999957e+01,4.320980860877616375e-02
2.255999999999999872e+01,3.498466549978085371e-02
2.260000000000000142e+01,2.634747062516130944e-02
2.264000000000000057e+01,3.110005169723728882e-02
2.267999999999999972e+01,4.017851954169360945e-02
2.271999999999999886e+01,3.154114567017973075e-02
2.276000000000000156e+01,3.052561496304685359e-02
2.280000000000000071e+01,2.971601784141335995e-02
2.283999999999999986e+01,2.622838861383828754e-02
2.287999999999999901e+01,5.034435094697235075e-02
2.292000000000000171e+01,1.060103589484510424e-02
2.296000000000000085e+01,2.647696272692410049e-02
2.300000000000000000e+01,3.081696152987746171e-02
2.303999999999999915e+01,1.538113292710674256e-02
2.307999999999999829e+01,4.032073075248774480e-02
2.312000000000000099e+01,2.529674832922340286e-02
2.316000000000000014e+01,2.901845734518552003e-02
2.319999999999999929e+01,3.171010125574412475e-02
2.323999999999999844e+01,3.584364805461582454e-02
2.328000000000000114e+01,3.565116775835185797e-02
2.332000000000000028e+01,2.824869467551179361e-02
2.335999999999999943e+01,3.485396469786386509e-02
2.339999999999999858e+01,3.280725698877010044e-02
2.344000000000000128e+01,3.879436355255806712e-02
2.348000000000000043e+01,3.303952784459724540e-02
2.351999999999999957e+01,3.737847810494384498e-02
2.355999999999999872e+01,2.400155726123134881e-02
2.360000000000000142e+01,2.895831756412609384e-02
2.364000000000000057e+01,2.423310449183235446e-02
2.367999999999999972e+01,2.651171004867761138e-02
2.371999999999999886e+01,2.096231647633131981e-02
2.376000000000000156e+01,3.601257039658142117e-02
2.380000000000000071e+01,1.789713610899006796e-02
2.383999999999999986e+01,1.935135926798405362e-02
2.387999999999999901e+01,3.007536600267348564e-02
2.392000000000000171e+01,2.658544567870374867e-02
2.396000000000000085e+01,2.185943621067785655e-02
2.400000000000000000e+01,4.567476480560436931e-03
2.403999999999999915e+01,2.600292999677400116e-02
2.407999999999999829e+01,1.756864469998267730e-02
2.412000000000000099e+01,2.437806061573511915e-02
2.416000000000000014e+01,2.047549771652685049e-02
2.419999999999999929e+01,2.192875565839810109e-02
2.423999999999999844e+01,2.667785854762445494e-02
2.428000000000000114e+01,3.204483814219443588e-02
2.432000000000000028e+01,3.040778741379695366e-02
2.435999999999999943e+01,3.392055447931854872e-02
2.439999999999999858e+01,1.971742105269195383e-02
2.444000000000000128e+01,3.270582971003652833e-02
2.448000000000000043e+01,1.706047025662307814e-02
2.451999999999999957e+01,3.643455316662247423e-02
2.455999999999999872e+01,2.367290852670275725e-02
2.460000000000000142e+01,4.036877231674362854e-02
2.464000000000000057e+01,3.625876547660222132e-02
2.467999999999999972e+01,2.802868001060611000e-02
2.471999999999999886e+01,4.781411663026823716e-02
2.476000000000000156e+01,2.166198959109479766e-02
2.480000000000000071e+01,1.940543285013114974e-02
2.483999999999999986e+01,1.735473832359347643e-02
2.487999999999999901e+01,5.622027039450212989e-03
2.492000000000000171e+01,2.087484359665560049e-02
2.496000000000000085e+01,2.912360743996843943e-02
2.500000000000000000e+01,1.327052886733763072e-02
2.503999999999999915e+01,2.296099179175303470e-02
2.507999999999999829e+01,2.090945646710740125e-02
2.512000000000000099e+01,2.750966898745267272e-02
2.516000000000000014e+01,2.792981159445830780e-02
2.519999999999999929e+01,2.484784973126994562e-02
2.523999999999999844e+01,2.423770803190009385e-02
2.528000000000000114e+01,3.227930857979001422e-02
2.532000000000000028e+01,2.590093563944340441e-02
2.535999999999999943e+01,1.540246028288413775e-02
2.539999999999999858e+01,2.694555718818041068e-02
2.544000000000000128e+01,2.489266620465809335e-02
2.548000000000000043e+01,8.213798685738913155e-03
2.551999999999999957e+01,1.996242016267989888e-02
2.555999999999999872e+01,1.667306740650012845e-02
2.560000000000000142e+01,3.274731307243265027e-02
2.564000000000000057e+01,0.000000000000000000e+00
2.567999999999999972e+01,1.654096359141586344e-03
2.571999999999999886e+01,4.491951148044406872e-02
2.576000000000000156e+01,3.256544783392117948e-02
2.580000000000000071e+01,3.215906743289792535e-02
2.583999999999999986e+01,3.978641733878757192e-02
2.587999999999999901e+01,2.598986088379067610e-02
2.592000000000000171e+01,1.363511355510856927e-02
2.596000000000000085e+01,6.224130593604180160e-03
2.600000000000000000e+01,2.044270400360461912e-02
2.603999999999999915e+01,2.765718691502690174e-02
2.607999999999999829e+01,1.612572331097723161e-02
2.612000000000000099e+01,7.890038880940851776e-03
2.616000000000000014e+01,1.942992817981584533e-02
2.619999999999999929e+01,2.396572138238154542e-02
2.623999999999999844e+01,2.829533292036647343e-02
2.628000000000000114e+01,1.552697054114855757e-02
2.632000000000000028e+01,2.892009722541422426e-02
2.635999999999999943e+01,3.180716557534393751e-02
2.639999999999999858e+01,2.624814868579626245e-02
2.644000000000000128e+01,2.522088447137394232e-02
2.648000000000000043e+01,1.059759598288020736e-02
2.651999999999999957e+01,2.398976660556818505e-02
2.655999999999999872e+01,2.708186934618522779e-02
2.660000000000000142e+01,2.934978547903900267e-02
2.664000000000000057e+01,3.862141668300379804e-02
2.667999999999999972e+01,3.615099366059531388e-02
2.671999999999999886e+01,2.338049715838466311e-02
2.676000000000000156e+01,2.544161460729411212e-02
2.680000000000000071e+01,3.697841092273302516e-02
2.683999999999999986e+01,2.832725198747274367e-02
2.687999999999999901e+01,2.853377677158891804e-02
2.692000000000000171e+01,3.018207569619993369e-02
2.696000000000000085e+01,1.535036926153758759e-02
2.700000000000000000e+01,1.864622757226477856e-02
2.703999999999999915e+01,4.789755230725578627e-02
2.707999999999999829e+01,2.873926282315856368e-02
2.712000000000000099e+01,4.377633494162506966e-02
2.716000000000000014e+01,3.924343296221737692e-02
2.719999999999999929e+01,4.315620860786536367e-02
2.723999999999999844e+01,2.131908387389925760e-02
2.728000000000000114e+01,2.234745542616325270e-02
2.732000000000000028e+01,3.037951825918040055e-02
2.735999999999999943e+01,2.090157449145049751e-02
2.739999999999999858e+01,3.161115596907346226e-02
2.744000000000000128e+01,3.634658521511552332e-02
2.748000000000000043e+01,1.595009803323405029e-02
2.751999999999999957e+01,3.469289724588763696e-02
2.755999999999999872e+01,4.478357318608309351e-02
2.760000000000000142e+01,2.376840246661155939e-02
2.764000000000000057e+01,3.035665677534502352e-02
2.767999999999999972e+01,1.840490604072304165e-02
2.771999999999999886e+01,4.435645000689741185e-02
2.776000000000000156e+01,3.714216722138213161e-02
2.780000000000000071e+01,2.848566349683163967e-02
2.783999999999999986e+01,2.971679715241611411e-02
2.787999999999999901e+01,2.270779123893832546e-02
2.792000000000000171e+01,2.373244286186743449e-02
2.796000000000000085e+01,2.455085264460516933e-02
2.800000000000000000e+01,5.194268761350663566e-02
2.803999999999999915e+01,2.783491303549549822e-02
2.807999999999999829e+01,2.638660930562894066e-02
2.812000000000000099e+01,2.246608619411914406e-02
2.816000000000000014e+01,2.740320202013591527e-02
2.819999999999999929e+01,3.893198344052609811e-02
2.823999999999999844e+01,4.160262034867125147e-02
2.828000000000000114e+01,2.861719551397712280e-02
2.832000000000000028e+01,2.572538871565312191e-02
2.835999999999999943e+01,2.798325976796731118e-02
2.839999999999999858e+01,4.651466954066029585e-02
2.844000000000000128e+01,4.485806808534155421e-02
2.848000000000000043e+01,3.846326270976388462e-02
2.851999999999999957e+01,3.680613468823466794e-02
2.855999999999999872e+01,2.175890707155704942e-02
2.860000000000000142e+01,3.719903518870480014e-02
2.864000000000000057e+01,4.213302520384631239e-02
2.867999999999999972e+01,2.378903385294238101e-02
2.871999999999999886e+01,5.282418489075466767e-02
2.876000000000000156e+01,4.436752775304508845e-02
2.880000000000000071e+01,5.300838513910283850e-02
2.883999999999999986e+01,3.857725301081277314e-02
2.887999999999999901e+01,5.916541070775960948e-02
2.892000000000000171e+01,6.059552763064664227e-02
2.896000000000000085e+01,5.502145189636059586e-02
2.900000000000000000e+01,6.922285053125638854e-02
2.903999999999999915e+01,4.552043629574251127e-02
2.907999999999999829e+01,6.754917225861659102e-02
2.912000000000000099e+01,5.888400328223514224e-02
2.916000000000000014e+01,6.484436684157593445e-02
2.919999999999999929e+01,5.370665432511879250e-02
2.923999999999999844e+01,8.253215782530248790e-02
2.928000000000000114e+01,9.322959520367689323e-02
2.932000000000000028e+01,5.757731448901728250e-02
2.935999999999999943e+01,5.982827109840852670e-02
2.939999999999999858e+01,7.917672124007489598e-02
2.944000000000000128e+01,8.080909456105900279e-02
2.948000000000000043e+01,8.161718051511762662e-02
2.951999999999999957e+01,8.201297260167600411e-02
2.955999999999999872e+01,9.518030618476640281e-02
2.960000000000000142e+01,1.011374272703294275e-01
2.964000000000000057e+01,1.167761253121216702e-01
2.967999999999999972e+01,1.091368070020480863e-01
2.971999999999999886e+01,1.293068383991023973e-01
2.976000000000000156e+01,1.251688633982795673e-01
2.980000000000000071e+01,1.428663092722739503e-01
2.983999999999999986e+01,1.459376260726950869e-01
2.987999999999999901e+01,1.797022512745207468e-01
2.992000000000000171e+01,1.965747726601871914e-01
2.996000000000000085e+01,2.023231174142772482e-01
3.000000000000000000e+01,2.179590239791303619e-01
3.003999999999999915e+01,2.403925292138768544e-01
3.007999999999999829e+01,2.661216750787882557e-01
3.012000000000000099e+01,2.955584550732901494e-01
3.016000000000000014e+01,3.291148626968079527e-01
3.019999999999999929e+01,3.583450011233142996e-01
3.023999999999999844e+01,4.155904685137510879e-01
3.028000000000000114e+01,4.683036664588816622e-01
3.032000000000000028e+01,4.857909735943312657e-01
3.035999999999999943e+01,5.679611514937996652e-01
3.039999999999999858e+01,6.350931858287774956e-01
3.044000000000000128e+01,7.098467946370367043e-01
3.048000000000000043e+01,8.006678719457396287e-01
3.051999999999999957e+01,8.838667096711022575e-01
3.055999999999999872e+01,9.415215283133567814e-01
3.060000000000000142e+01,1.000000000000000000e+00
3.064000000000000057e+01,9.769031435599434543e-01
3.067999999999999972e+01,9.218763429061773707e-01
3.071999999999999886e+01,8.689091757950763162e-01
3.076000000000000156e+01,7.860720361656913235e-01
3.080000000000000071e+01,7.162123920998501037e-01
3.083999999999999986e+01,6.529443212658169182e-01
3.087999999999999901e+01,6.059497023873283705e-01
3.092000000000000171e+01,5.568947610657579705e-01
3.096000000000000085e+01,5.119594193845476982e-01
3.100000000000000000e+01,4.528099029450707302e-01
3.103999999999999915e+01,4.220876823797265476e-01
3.107999999999999829e+01,3.851851847849865340e-01
3.112000000000000099e+01,3.898938170289784622e-01
3.116000000000000014e+01,3.587585367269131575e-01
3.119999999999999929e+01,3.366867864549101252e-01
3.123999999999999844e+01,3.043148045671974500e-01
3.128000000000000114e+01,2.954261713707211912e-01
3.132000000000000028e+01,2.953950665565795441e-01
3.135999999999999943e+01,2.772358228501226041e-01
3.139999999999999858e+01,2.625781710419771153e-01
3.144000000000000128e+01,2.639879541478877267e-01
3.148000000000000043e+01,2.827011554649965785e-01
3.151999999999999957e+01,3.084179011224137956e-01
3.155999999999999872e+01,3.104445697557648431e-01
3.160000000000000142e+01,3.087629125602434077e-01
3.164000000000000057e+01,3.252086577759054076e-01
3.167999999999999972e+01,3.259982222969394217e-01
3.171999999999999886e+01,3.607769900363348992e-01
3.176000000000000156e+01,3.671277324176300261e-01
3.180000000000000071e+01,3.835719710846409169e-01
3.183999999999999986e+01,3.530484111460632235e-01
3.187999999999999901e+01,3.130485869985675795e-01
3.192000000000000171e+01,3.173378315437264674e-01
3.196000000000000085e+01,2.894910896438963599e-01
3.200000000000000000e+01,2.962515335146855278e-01
3.203999999999999915e+01,2.471862814572691747e-01
3.207999999999999829e+01,2.623918450894025534e-01
3.211999999999999744e+01,2.269216462301932580e-01
3.215999999999999659e+01,2.342985255210375817e-01
3.220000000000000284e+01,1.994455349482682771e-01
3.224000000000000199e+01,1.759220099640287083e-01
3.228000000000000114e+01,1.705258650000477383e-01
3.232000000000000028e+01,1.752231981291559881e-01
3.235999999999999943e+01,1.504624976615260012e-01
3.239999999999999858e+01,1.592789817230415572e-01
3.243999999999999773e+01,1.507912789052725244e-01
3.247999999999999687e+01,1.530150409311489268e-01
3.252000000000000313e+01,1.638902919069466502e-01
3.256000000000000227e+01,1.523114155694327010e-01
3.260000000000000142e+01,1.479420432369705496e-01
3.264000000000000057e+01,1.448082474766822225e-01
3.267999999999999972e+01,1.414680447431308496e-01
3.271999999999999886e+01,1.647011020626718558e-01
3.275999999999999801e+01,1.508542061622684116e-01
3.279999999999999716e+01,1.831503252118598934e-01
3.284000000000000341e+01,1.878423709163816735e-01
3.288000000000000256e+01,1.688442934155545416e-01
3.292000000000000171e+01,1.869253388915419478e-01
3.296000000000000085e+01,1.858482022507558229e-01
3.300000000000000000e+01,2.955972726835501829e-01
3.303999999999999915e+01,3.909260995375757886e-01
3.307999999999999829e+01,2.524473977713665995e-01
3.311999999999999744e+01,1.485758425916580416e-01
3.315999999999999659e+01,1.369907184391762900e-01
3.320000000000000284e+01,1.387950007831283139e-01
3.324000000000000199e+01,1.185571269222692320e-01
3.328000000000000114e+01,1.156226082981319098e-01
3.332000000000000028e+01,1.184555863432516509e-01
3.335999999999999943e+01,1.309700111973494396e-01
3.339999999999999858e+01,1.031085012497114928e-01
3.343999999999999773e+01,1.053221828056707526e-01
3.347999999999999687e+01,1.316371284323492596e-01
3.352000000000000313e+01,1.070702651381076620e-01
3.356000000000000227e+01,1.094886274077276206e-01
3.360000000000000142e+01,1.358022521003392213e-01
3.364000000000000057e+01,1.198859565497562146e-01
3.367999999999999972e+01,1.431087318810555231e-01
3.371999999999999886e+01,1.284275306083063062e-01
3.375999999999999801e+01,1.563873540588692490e-01
3.379999999999999716e+01,1.272854353096082858e-01
3.384000000000000341e+01,1.305246660133367875e-01
3.388000000000000256e+01,1.405613610414087611e-01
3.392000000000000171e+01,1.473016439723637272e-01
3.396000000000000085e+01,1.470375593170441531e-01
3.400000000000000000e+01,1.696387358432424886e-01
3.403999999999999915e+01,1.905914756694584156e-01
3.407999999999999829e+01,1.730222339484432104e-01
3.411999999999999744e+01,1.925320732212580654e-01
3.415999999999999659e+01,1.881457470574449953e-01
3.420000000000000284e+01,2.161005577517262355e-01
3.424000000000000199e+01,2.244851466485258407e-01
3.428000000000000114e+01,2.301913032016005556e-01
3.432000000000000028e+01,2.132372734168907769e-01
3.435999999999999943e+01,2.339803085777018565e-01
3.439999999999999858e+01,2.285611979615675415e-01
3.443999999999999773e+01,2.276735601339969217e-01
3.447999999999999687e+01,2.364673299312855248e-01
3.452000000000000313e+01,2.361967380559490404e-01
3.456000000000000227e+01,2.091460024576485555e-01
3.460000000000000142e+01,2.142303922736851218e-01
3.464000000000000057e+01,1.931526279161795145e-01
3.467999999999999972e+01,1.852582208266645991e-01
3.471999999999999886e+01,2.103229247509048050e-01
3.475999999999999801e+01,1.939816590455481771e-01
3.479999999999999716e+01,2.091575194090771472e-01
3.484000000000000341e+01,1.763354889624110799e-01
3.488000000000000256e+01,1.696746481006074780e-01
3.492000000000000171e+01,1.961789087048240454e-01
3.496000000000000085e+01,1.785992258397008925e-01
3.500000000000000000e+01,1.999525702257483328e-01
3.503999999999999915e+01,2.056496163648116049e-01
3.507999999999999829e+01,2.105221792163560202e-01
3.511999999999999744e+01,2.184842089201022297e-01
3.515999999999999659e+01,2.425135433906533133e-01
3.520000000000000284e+01,2.523285561624930007e-01
3.524000000000000199e+01,2.574051285099288600e-01
3.528000000000000114e+01,2.766950243810089027e-01
3.532000000000000028e+01,2.856845458942327554e-01
3.535999999999999943e+01,3.193932580531212984e-01
3.539999999999999858e+01,3.446555701001502992e-01
3.543999999999999773e+01,3.618834755347451471e-01
3.547999999999999687e+01,3.754029193954850352e-01
3.552000000000000313e+01,4.021056911361265418e-01
3.556000000000000227e+01,4.057362382577083815e-01
3.560000000000000142e+01,3.450950694749699288e-01
3.564000000000000057e+01,3.277128519904890513e-01
3.567999999999999972e+01,3.453496864276671685e-01
3.571999999999999886e+01,3.191085482557113884e-01
3.575999999999999801e+01,3.097586836567848834e-01
3.579999999999999716e+01,3.220380325683250278e-01
3.584000000000000341e+01,3.433807491757215891e-01
3.588000000000000256e+01,3.362952962834383497e-01
3.592000000000000171e+01,3.520750373998981497e-01
3.596000000000000085e+01,3.392206087683833915e-01
3.600000000000000000e+01,3.333695677407025326e-01
3.603999999999999915e+01,3.637735507363603071e-01
3.607999999999999829e+01,3.649253674374575707e-01
3.611999999999999744e+01,3.732865649935194208e-01
3.615999999999999659e+01,3.983330246788532314e-01
3.620000000000000284e+01,3.704376071869772691e-01
3.624000000000000199e+01,3.993969516641898698e-01
3.628000000000000114e+01,3.968381509059574763e-01
3.632000000000000028e+01,3.672931474002884555e-01
3.635999999999999943e+01,3.373356107241088919e-01
3.639999999999999858e+01,3.129394655114309809e-01
3.643999999999999773e+01,2.961646848571132806e-01
3.647999999999999687e+01,2.927791959457388682e-01
3.652000000000000313e+01,2.657034564806300403e-01
3.656000000000000227e+01,2.452190901284372615e-01
3.660000000000000142e+01,2.092843684008100225e-01
3.664000000000000057e+01,1.883869124138279061e-01
3.667999999999999972e+01,1.695488814540224154e-01
3.671999999999999886e+01,1.698680624245793302e-01
3.675999999999999801e+01,1.462909869953757380e-01
3.679999999999999716e+01,1.241553400467629437e-01
3.684000000000000341e+01,1.252968498187969071e-01
3.688000000000000256e+01,1.270557954748394447e-01
3.692000000000000171e+01,1.187203082451425001e-01
3.696000000000000085e+01,1.178001699317502843e-01
3.700000000000000000e+01,9.339576172085890804e-02
3.703999999999999915e+01,9.206250578402103146e-02
3.707999999999999829e+01,8.660873739715758968e-02
3.711999999999999744e+01,6.941254953195750976e-02
3.715999999999999659e+01,9.135531079798545062e-02
3.720000000000000284e+01,8.775382067505883843e-02
3.724000000000000199e+01,8.888970282982830429e-02
3.728000000000000114e+01,7.169124152679749729e-02
3.732000000000000028e+01,7.941789974665289242e-02
3.735999999999999943e+01,9.085193879876020395e-02
3.739999999999999858e+01,7.365175772331185311e-02
3.743999999999999773e+01,7.643275318615196101e-02
3.747999999999999687e+01,6.767731402518926964e-02
3.752000000000000313e+01,7.025115572762545557e-02
3.756000000000000227e+01,7.509038911914563130e-02
3.760000000000000142e+01,7.086515308171428829e-02
3.764000000000000057e+01,7.446723706908807416e-02
3.767999999999999972e+01,8.012871109781825874e-02
3.771999999999999886e+01,7.425374210614890669e-02
3.775999999999999801e+01,6.590621646952922463e-02
3.779999999999999716e+01,7.074193894514101133e-02
3.784000000000000341e+01,6.404121420205483028e-02
3.788000000000000256e+01,7.155372201948018152e-02
3.792000000000000171e+01,5.537593030302265240e-02
3.796000000000000085e+01,4.908542191019919787e-02
3.800000000000000000e+01,4.794425410470674886e-02
3.803999999999999915e+01,2.991069839819460174e-02
3.807999999999999829e+01,2.897433254703793773e-02
3.811999999999999744e+01,3.668925972520918621e-02
3.815999999999999659e+01,4.110762646638557727e-02
3.820000000000000284e+01,3.213555634910635062e-02
3.824000000000000199e+01,4.046666793888053365e-02
3.828000000000000114e+01,3.849730161277059581e-02
3.832000000000000028e+01,5.300712439713186480e-02
3.835999999999999943e+01,3.476274447896722519e-02
3.839999999999999858e+01,3.423353556898301592e-02
3.843999999999999773e+01,2.299184824652522607e-02
3.847999999999999687e+01,2.184342350450407116e-02
3.852000000000000313e+01,4.047014006665624469e-02
3.856000000000000227e+01,2.696063927740595736e-02
3.860000000000000142e+01,4.023019027405412562e-02
3.864000000000000057e+01,4.175726861391897832e-02
3.867999999999999972e+01,2.412596471811863375e-02
3.871999999999999886e+01,3.368570330877663360e-02
3.875999999999999801e+01,3.727089362836877307e-02
3.879999999999999716e+01,2.787762099687150427e-02
3.884000000000000341e+01,3.455152438436056433e-02
3.888000000000000256e+01,3.401489060591049440e-02
3.892000000000000171e+01,4.295351166584877173e-02
3.896000000000000085e+01,2.305186057092266372e-02
3.900000000000000000e+01,3.961112739073651551e-02
3.903999999999999915e+01,3.845398152599384389e-02
3.907999999999999829e+01,4.512410530647518320e-02
3.911999999999999744e+01,2.830988501951848743e-02
3.915999999999999659e+01,2.117690862378241931e-02
3.920000000000000284e+01,4.102896047188184930e-02
3.924000000000000199e+01,3.554268700938257447e-02
3.928000000000000114e+01,2.840779352120284887e-02
3.932000000000000028e+01,3.054214342765420101e-02
3.935999999999999943e+01,3.576581184642962236e-02
3.939999999999999858e+01,1.956510089602878436e-02
3.943999999999999773e+01,1.551759343396857949e-02
3.947999999999999687e+01,2.774323704939892291e-02
3.952000000000000313e+01,2.616640272623273200e-02
3.956000000000000227e+01,2.232294623306903258e-02
3.960000000000000142e+01,2.321677945106563612e-02
3.964000000000000057e+01,2.967189077850631782e-02
3.967999999999999972e+01,1.799857213160734395e-02
3.971999999999999886e+01,2.651234770475570379e-02
3.975999999999999801e+01,3.172950686359682360e-02
3.979999999999999716e+01,2.067220889466198086e-02
3.984000000000000341e+01,2.424006981288938725e-02
3.988000000000000256e+01,1.936137388278256349e-02
3.992000000000000171e+01,2.333990545695633148e-02
3.996000000000000085e+01,2.381581617022969152e-02
4.000000000000000000e+01,1.522717348858293636e-02
4.003999999999999915e+01,1.096381022547740849e-02
4.007999999999999829e+01,1.390968927348818288e-02
4.011999999999999744e+01,1.335294186286718580e-02
4.015999999999999659e+01,2.474337530136715146e-02
4.020000000000000284e+01,2.233130701091276538e-02
4.024000000000000199e+01,2.197853919811499843e-02
4.028000000000000114e+01,1.997711637381651209e-02
4.032000000000000028e+01,2.621491471118316680e-02
4.035999999999999943e+01,8.968325598694721484e-03
4.039999999999999858e+01,2.735861562308135320e-02
4.043999999999999773e+01,1.979254600559759991e-02
4.047999999999999687e+01,8.311842435728567652e-03
4.052000000000000313e+01,2.010816683868776530e-02
4.056000000000000227e+01,1.460002027750203699e-02
4.060000000000000142e+01,9.915176902502766468e-03
4.064000000000000057e+01,7.907612359119445614e-03
4.067999999999999972e+01,1.825920537108872629e-02
4.071999999999999886e+01,2.016421214663486824e-02
4.075999999999999801e+01,2.330451140949447303e-02
4.079999999999999716e+01,2.500213491765597429e-02
4.084000000000000341e+01,1.413321900251311020e-02
4.088000000000000256e+01,2.406934907215352651e-02
4.092000000000000171e+01,2.082094457133647908e-02
4.096000000000000085e+01,2.993168782984245713e-02
4.100000000000000000e+01,2.029596258443848444e-02
4.103999999999999915e+01,9.011555738310540395e-03
4.107999999999999829e+01,2.862606290182962906e-02
4.111999999999999744e+01,2.434416112741200067e-02
4.115999999999999659e+01,2.418150213798768086e-02
4.120000000000000284e+01,2.195816105124984499e-02
4.124000000000000199e+01,2.426605484949798108e-02
4.128000000000000114e+01,2.204129435841722939e-02
4.132000000000000028e+01,2.434776595345688327e-02
4.135999999999999943e+01,1.820762892114836246e-02
4.139999999999999858e+01,1.968868291753175098e-02
4.143999999999999773e+01,1.148714079112651658e-02
4.147999999999999687e+01,2.594460070287472539e-02
4.152000000000000313e+01,2.453953821009452127e-02
4.156000000000000227e+01,1.551184989051864437e-02
4.160000000000000142e+01,3.223312115223488095e-02
4.164000000000000057e+01,4.050777399057323147e-02
4.167999999999999972e+01,4.115979680381751799e-02
4.171999999999999886e+01,4.119310147312564563e-02
4.175999999999999801e+01,4.060768659906482947e-02
4.179999999999999716e+01,3.487160689476117431e-02
4.184000000000000341e+01,4.767456764513285788e-02
4.188000000000000256e+01,3.575710307062787696e-02
4.192000000000000171e+01,3.269679602876304769e-02
4.196000000000000085e+01,3.931763491782219039e-02
4.200000000000000000e+01,3.893382493461220589e-02
4.203999999999999915e+01,4.328721929716124184e-02
4.207999999999999829e+01,4.351992628058339724e-02
4.211999999999999744e+01,3.427601080028832431e-02
4.215999999999999659e+01,3.203526741117432991e-02
4.220000000000000284e+01,2.484984264691860248e-02
4.224000000000000199e+01,2.858153871413192382e-02
4.228000000000000114e+01,3.293048174192463040e-02
4.232000000000000028e+01,2.079888202824527535e-02
4.235999999999999943e+01,2.370434793631944273e-02
4.239999999999999858e+01,3.175900049411553572e-02
4.243999999999999773e+01,1.344522853954252355e-02
4.247999999999999687e+01,2.500033436732258460e-02
4.252000000000000313e+01,3.181674507392748263e-02
4.256000000000000227e+01,2.689054597933379295e-02
4.260000000000000142e+01,2.155159540271119056e-02
4.264000000000000057e+01,1.909585113549325253e-02
4.267999999999999972e+01,1.684534493566818697e-02
4.271999999999999886e+01,1.747804224638212570e-02
4.275999999999999801e+01,1.151805899446183869e-02
4.279999999999999716e+01,2.677504945340827835e-02
4.284000000000000341e+01,2.637546877597279557e-02
4.288000000000000256e+01,1.732322884331315496e-02
4.292000000000000171e+01,3.031194822093849842e-02
4.296000000000000085e+01,3.073405400532044918e-02
4.300000000000000000e+01,3.692331779621960131e-02
4.303999999999999915e+01,5.794362596908540081e-02
4.307999999999999829e+01,5.156549999151142233e-02
4.311999999999999744e+01,5.528047426016815397e-02
4.315999999999999659e+01,6.805856012847709413e-02
4.320000000000000284e+01,5.900013878263470068e-02
4.324000000000000199e+01,6.518474972045298910e-02
4.328000000000000114e+01,6.621864404901459111e-02
4.332000000000000028e+01,3.655813663967330540e-02
4.335999999999999943e+01,2.976256294457248555e-02
4.339999999999999858e+01,4.871588585628738866e-02
4.343999999999999773e+01,3.017688700063939772e-02
4.347999999999999687e+01,2.564492733548050241e-02
4.352000000000000313e+01,2.440813809106268453e-02
4.356000000000000227e+01,2.584852551966571391e-02
4.360000000000000142e+01,2.893610097471104384e-02
4.364000000000000057e+01,3.181688601190366117e-02
4.367999999999999972e+01,2.913494554665311057e-02
4.371999999999999886e+01,2.068428073009740895e-02
4.375999999999999801e+01,2.459266571256807019e-02
4.379999999999999716e+01,1.737638985971043382e-02
4.384000000000000341e+01,2.107717886100941851e-02
4.388000000000000256e+01,2.724913589043768264e-02
4.392000000000000171e+01,1.261454776306963899e-02
4.396000000000000085e+01,5.807058550122886839e-03
4.400000000000000000e+01,2.124648831220416617e-02
4.403999999999999915e+01,1.340739932604107128e-02
4.407999999999999829e+01,1.524938210086305805e-02
4.411999999999999744e+01,3.769030005698160990e-02
4.415999999999999659e+01,1.254499603391886521e-02
4.420000000000000284e+01,2.097646370732296137e-02
4.424000000000000199e+01,2.796513527480725889e-02
4.428000000000000114e+01,1.373525419174173590e-02
4.432000000000000028e+01,2.916818906769085354e-02
4.435999999999999943e+01,1.328869347219673730e-02
4.439999999999999858e+01,1.945010540797347323e-02
4.443999999999999773e+01,9.954890230055859004e-03
4.447999999999999687e+01,2.105859763853957720e-02
4.452000000000000313e+01,2.453957566219978556e-02
4.456000000000000227e+01,2.389977954189891063e-02
4.460000000000000142e+01,7.397353260743342457e-03
4.464000000000000057e+01,3.250558381003004760e-02
4.467999999999999972e+01,2.300541350154474557e-02
4.471999999999999886e+01,1.886034612510763264e-02
4.475999999999999801e+01,2.645630121358917911e-02
4.479999999999999716e+01,2.045559108777243729e-02
4.484000000000000341e+01,2.022197459456377341e-02
4.488000000000000256e+01,1.009964417791567141e-02
4.492000000000000171e+01,1.068834338130941926e-02
4.496000000000000085e+01,2.878598663647362332e-02
4.500000000000000000e+01,2.545905460186824454e-02
4.503999999999999915e+01,2.089529592211610345e-02
4.507999999999999829e+01,2.477658932095389357e-02
4.511999999999999744e+01,2.865703797235423511e-02
4.515999999999999659e+01,2.326675525257286894e-02
4.520000000000000284e+01,2.899948725566187796e-02
4.524000000000000199e+01,3.205340347043616339e-02
4.528000000000000114e+01,3.551846423889986476e-02
4.532000000000000028e+01,2.785881099358854945e-02
4.535999999999999943e+01,4.182803679430236593e-02
4.539999999999999858e+01,4.467254578237555424e-02
4.543999999999999773e+01,4.483823198496977164e-02
4.547999999999999687e+01,5.756890526040874673e-02
4.552000000000000313e+01,3.919310493028210080e-02
4.556000000000000227e+01,6.304592159193042611e-02
4.560000000000000142e+01,5.785223634343901467e-02
4.564000000000000057e+01,6.007359633433242974e-02
4.567999999999999972e+01,4.849226287397671864e-02
4.571999999999999886e+01,7.131163772935748824e-02
4.575999999999999801e+01,6.796846936887517010e-02
4.579999999999999716e+01,5.762051919000679007e-02
4.584000000000000341e+01,4.891967866934333886e-02
4.588000000000000256e+01,6.328968114808265766e-02
4.592000000000000171e+01,4.820117562236132108e-02
4.596000000000000085e+01,5.453553070174384232e-02
4.600000000000000000e+01,4.768517348270222278e-02
4.603999999999999915e+01,4.145193167755580055e-02
4.607999999999999829e+01,3.974975542602546957e-02
4.611999999999999744e+01,4.999455150812745496e-02
4.615999999999999659e+01,4.705462969407393087e-02
4.620000000000000284e+01,3.999387635931420104e-02
4.624000000000000199e+01,3.561020593557710084e-02
4.628000000000000114e+01,2.813568843941390007e-02
4.632000000000000028e+01,2.807619239227785238e-02
4.635999999999999943e+01,3.728569343959845656e-02
4.639999999999999858e+01,4.917227180021041533e-02
4.643999999999999773e+01,5.034609186178687357e-02
4.647999999999999687e+01,3.277325169715863962e-02
4.652000000000000313e+01,2.879534946726768768e-02
4.656000000000000227e+01,3.676440417724811255e-02
4.660000000000000142e+01,3.051873835016651396e-02
4.664000000000000057e+01,2.942211083292897017e-02
4.667999999999999972e+01,4.583436719185124408e-02
4.671999999999999886e+01,3.855601614167259578e-02
4.675999999999999801e+01,2.901079102359064438e-02
4.679999999999999716e+01,3.450247619022034362e-02
4.684000000000000341e+01,3.875727173722684493e-02
4.688000000000000256e+01,3.188729869257867638e-02
4.692000000000000171e+01,3.325631590318210706e-02
4.696000000000000085e+01,3.853837553159239482e-02
4.700000000000000000e+01,3.887558585292375662e-02
4.703999999999999915e+01,3.282596332173939868e-02
4.707999999999999829e+01,2.347946828004365827e-02
4.711999999999999744e+01,3.864575500133744096e-02
4.715999999999999659e+01,4.969117661553753423e-02
4.720000000000000284e+01,3.539799443201000623e-02
4.724000000000000199e+01,5.179751329604769666e-02
4.728000000000000114e+01,4.121044596805895771e-02
4.732000000000000028e+01,5.245818656331684843e-02
4.735999999999999943e+01,4.846119278514361001e-02
4.739999999999999858e+01,3.931333825613421429e-02
4.743999999999999773e+01,5.076430275549822374e-02
4.747999999999999687e+01,4.697052868313261742e-02
4.752000000000000313e+01,5.450568561596359773e-02
4.756000000000000227e+01,4.576611393105363412e-02
4.760000000000000142e+01,4.711948575589981064e-02
4.764000000000000057e+01,5.980178438764405247e-02
4.767999999999999972e+01,4.446749558588802831e-02
4.771999999999999886e+01,5.014401091533406823e-02
4.775999999999999801e+01,4.448972941617445470e-02
4.779999999999999716e+01,3.409656807070889084e-02
4.784000000000000341e+01,5.213011483759596998e-02
4.788000000000000256e+01,3.143519980350344134e-02
4.792000000000000171e+01,4.411092886919728423e-02
4.796000000000000085e+01,3.453798928937704821e-02
4.800000000000000000e+01,3.691195626984708489e-02
4.803999999999999915e+01,4.196294318686336067e-02
4.807999999999999829e+01,3.897908127067774980e-02
4.811999999999999744e+01,3.352230025644417633e-02
4.815999999999999659e+01,3.012454263217090658e-02
4.820000000000000284e+01,3.393574323415367300e-02
4.824000000000000199e+01,3.651000523636491191e-02
4.828000000000000114e+01,2.260351598161559200e-02
4.832000000000000028e+01,3.485774610230454179e-02
4.835999999999999943e+01,3.083721961659644656e-02
4.839999999999999858e+01,3.690960865198827934e-02
4.843999999999999773e+01,2.650124083268826439e-02
4.847999999999999687e+01,3.339569646564237437e-02
4.852000000000000313e+01,3.060730827620062114e-02
4.856000000000000227e+01,2.987792948239107252e-02
4.860000000000000142e+01,1.987769896617835180e-02
4.864000000000000057e+01,2.697428885505932100e-02
4.867999999999999972e+01,2.933196811011254748e-02
4.871999999999999886e+01,3.168867666877538125e-02
4.875999999999999801e+01,3.466240547990245835e-02
4.879999999999999716e+01,3.269122200947414264e-02
4.884000000000000341e+01,2.907108404892394873e-02
4.888000000000000256e+01,2.359599274938984151e-02
4.892000000000000171e+01,4.757755902466818260e-02
4.896000000000000085e+01,3.303662316371026864e-02
4.900000000000000000e+01,3.662248236009653379e-02
4.903999999999999915e+01,2.743551780002332491e-02
4.907999999999999829e+01,3.843531999272004757e-02
4.911999999999999744e+01,4.263622166353672055e-02
4.915999999999999659e+01,3.468228772788287118e-02
4.920000000000000284e+01,3.537925917866876352e-02
4.924000000000000199e+01,2.927732590927616119e-02
4.928000000000000114e+01,3.079630798031196895e-02
4.932000000000000028e+01,4.240817338549309617e-02
4.935999999999999943e+01,3.424329055816148493e-02
4.939999999999999858e+01,3.823126276040093863e-02
4.943999999999999773e+01,3.315435130157730337e-02
4.947999999999999687e+01,4.661621300576239413e-02
4.952000000000000313e+01,4.050731832913279790e-02
4.956000000000000227e+01,3.563340826459855670e-02
4.960000000000000142e+01,4.270634878304219867e-02
4.964000000000000057e+01,3.494647005924281236e-02
4.967999999999999972e+01,4.654934729900470775e-02
4.971999999999999886e+01,4.290740759879968502e-02
4.975999999999999801e+01,3.473251692951012659e-02
4.979999999999999716e+01,4.859834486806222792e-02
4.984000000000000341e+01,2.888557866915561489e-02
4.988000000000000256e+01,3.389149512180376217e-02
4.992000000000000171e+01,3.683642440078589708e-02
4.996000000000000085e+01,4.637225798269303118e-02
5.000000000000000000e+01,4.086926227803265588e-02
5.003999999999999915e+01,4.793109411087671107e-02
5.007999999999999829e+01,4.510403009401616620e-02
5.011999999999999744e+01,4.330593364776257059e-02
5.015999999999999659e+01,4.068282632782091457e-02
5.020000000000000284e+01,4.444461746477819386e-02
5.024000000000000199e+01,4.573341533374868789e-02
5.028000000000000114e+01,5.134713436646113488e-02
5.032000000000000028e+01,6.890767879236091298e-02
5.035999999999999943e+01,6.772142724707340411e-02
5.039999999999999858e+01,7.168408246494599456e-02
5.043999999999999773e+01,6.452184454164390515e-02
5.047999999999999687e+01,8.764019941299119876e-02
5.052000000000000313e+01,8.665581903026248201e-02
5.056000000000000227e+01,8.958435511638776494e-02
5.060000000000000142e+01,8.159398991303619397e-02
5.064000000000000057e+01,9.420233178343333236e-02
5.067999999999999972e+01,1.082516165312363554e-01
5.071999999999999886e+01,1.105580059935476200e-01
5.075999999999999801e+01,1.223392360621356201e-01
5.079999999999999716e+01,1.353554073604018859e-01
5.084000000000000341e+01,1.671163016903906284e-01
5.088000000000000256e+01,1.751864430702662068e-01
5.092000000000000171e+01,1.925254220092581237e-01
5.096000000000000085e+01,2.067733901421852927e-01
5.100000000000000000e+01,2.154583766764651409e-01
5.103999999999999915e+01,2.251722985943973576e-01
5.107999999999999829e+01,2.260272769239504709e-01
5.111999999999999744e+01,2.417130169500426029e-01
5.115999999999999659e+01,2.065163309053456575e-01
5.120000000000000284e+01,2.127240747346810512e-01
5.124000000000000199e+01,1.880311422889881789e-01
5.128000000000000114e+01,1.707530577626541479e-01
5.132000000000000028e+01,1.613018146551043475e-01
5.135999999999999943e+01,1.584414268703312756e-01
5.139999999999999858e+01,1.481640664477205382e-01
5.143999999999999773e+01,1.220238365612446169e-01
5.147999999999999687e+01,1.059764144395423380e-01
5.152000000000000313e+01,1.059957247166257721e-01
5.156000000000000227e+01,9.262413072469537212e-02
5.160000000000000142e+01,9.696724592811828414e-02
5.164000000000000057e+01,9.554135969253978178e-02
5.167999999999999972e+01,7.639861855163697368e-02
5.171999999999999886e+01,7.064463596977720028e-02
5.175999999999999801e+01,6.900952532321621979e-02
5.179999999999999716e+01,7.272926990909624190e-02
5.184000000000000341e+01,6.079212848621209225e-02
5.188000000000000256e+01,6.265573492349793550e-02
5.192000000000000171e+01,6.225228676604809691e-02
5.196000000000000085e+01,5.216587443498075377e-02
5.200000000000000000e+01,4.702231544033202981e-02
5.203999999999999915e+01,4.702760583209816131e-02
5.207999999999999829e+01,3.796792020023583014e-02
5.211999999999999744e+01,4.147298933537178073e-02
5.215999999999999659e+01,4.353498527689175779e-02
5.220000000000000284e+01,4.023995508620926975e-02
5.224000000000000199e+01,4.559572392507304367e-02
5.228000000000000114e+01,4.147451484428602009e-02
5.232000000000000028e+01,4.126616065730933508e-02
5.235999999999999943e+01,3.817274413354864587e-02
5.239999999999999858e+01,4.270013379445732060e-02
5.243999999999999773e+01,3.466057819654676936e-02
5.247999999999999687e+01,2.641392290613261279e-02
5.252000000000000313e+01,3.402796757925492799e-02
5.256000000000000227e+01,3.443099648041721833e-02
5.260000000000000142e+01,4.286681946794305975e-02
5.264000000000000057e+01,3.832369530062742363e-02
5.267999999999999972e+01,3.501544658964808598e-02
5.271999999999999886e+01,5.003986023819077117e-02
5.275999999999999801e+01,4.363942710699887650e-02
5.279999999999999716e+01,3.311793154868728634e-02
5.284000000000000341e+01,3.639715026415820537e-02
5.288000000000000256e+01,3.328933180992321023e-02
5.292000000000000171e+01,3.862629114544759157e-02
5.296000000000000085e+01,2.871832018694745609e-02
5.300000000000000000e+01,3.982096863451853319e-02
5.303999999999999915e+01,3.959263552835314698e-02
5.307999999999999829e+01,3.483123530018007036e-02
5.311999999999999744e+01,3.542464412316517763e-02
5.315999999999999659e+01,4.240284784502138665e-02
5.320000000000000284e+01,2.981016643824429060e-02
5.324000000000000199e+01,2.586824907519316707e-02
5.328000000000000114e+01,2.048321933440747783e-02
5.332000000000000028e+01,3.672679015251790330e-02
5.335999999999999943e+01,2.866152890739359291e-02
5.339999999999999858e+01,2.286110517596071784e-02
5.343999999999999773e+01,2.488744869337327151e-02
5.347999999999999687e+01,3.494655550962747631e-02
5.352000000000000313e+01,3.388066142838066369e-02
5.356000000000000227e+01,3.116564772394043309e-02
5.360000000000000142e+01,2.680151299687393018e-02
5.364000000000000057e+01,2.140624819603579448e-02
5.367999999999999972e+01,2.033578560715079350e-02
5.371999999999999886e+01,2.853406261708548580e-02
5.375999999999999801e+01,2.622532268120974022e-02
5.379999999999999716e+01,2.206145727611450932e-02
5.384000000000000341e+01,3.355224820384389989e-02
5.388000000000000256e+01,2.773810215630273870e-02
5.392000000000000171e+01,2.192280348610600033e-02
5.396000000000000085e+01,3.052617225386057911e-02
5.400000000000000000e+01,3.624442130808596535e-02
5.403999999999999915e+01,2.239175584558907722e-02
5.407999999999999829e+01,2.213376382502850459e-02
5.411999999999999744e+01,2.949651781352645094e-02
5.415999999999999659e+01,4.159605211964208932e-02
5.420000000000000284e+01,4.051058724360754454e-02
5.424000000000000199e+01,3.633399680801790294e-02
5.428000000000000114e+01,3.298023095259382254e-02
5.432000000000000028e+01,3.003729337904430599e-02
5.435999999999999943e+01,3.533308576624391573e-02
5.439999999999999858e+01,2.970984391784971951e-02
5.443999999999999773e+01,2.861737514161453305e-02
5.447999999999999687e+01,3.329166273468019133e-02
5.452000000000000313e+01,2.910688638814523665e-02
5.456000000000000227e+01,2.018299369115941072e-02
5.460000000000000142e+01,3.082768227692841978e-02
5.464000000000000057e+01,3.570326446623543759e-02
5.467999999999999972e+01,4.098966234252166690e-02
5.471999999999999886e+01,2.505714231629482813e-02
5.475999999999999801e+01,2.910519287394985194e-02
5.479999999999999716e+01,3.706601156058102198e-02
5.484000000000000341e+01,3.802173215701126763e-02
5.488000000000000256e+01,2.496843998321705838e-02
5.492000000000000171e+01,2.180183777354562091e-02
5.496000000000000085e+01,2.501996748826882180e-02
5.500000000000000000e+01,2.741291699793400524e-02
5.503999999999999915e+01,3.062866449854149617e-02
5.507999999999999829e+01,3.837516268038291406e-02
5.511999999999999744e+01,2.655070856081623645e-02
5.515999999999999659e+01,3.944475236767354398e-02
5.520000000000000284e+01,3.997775180427701885e-02
5.524000000000000199e+01,4.504149632438317341e-02
5.528000000000000114e+01,3.939217327080300063e-02
5.532000000000000028e+01,2.570774808668241027e-02
5.535999999999999943e+01,3.220986994438070766e-02
5.539999999999999858e+01,3.603282055783062904e-02
5.543999999999999773e+01,3.903057557246165932e-02
5.547999999999999687e+01,4.264511573484488366e-02
5.552000000000000313e+01,4.399247535353958960e-02
5.556000000000000227e+01,4.554462242226265528e-02
5.560000000000000142e+01,4.750755299101035861e-02
5.564000000000000057e+01,3.340146970601874654e-02
5.567999999999999972e+01,4.648583554797439121e-02
5.571999999999999886e+01,5.009310311905752766e-02
5.575999999999999801e+01,5.452314349129234322e-02
5.579999999999999716e+01,5.359603178237186405e-02
5.584000000000000341e+01,6.028960590689912136e-02
5.588000000000000256e+01,5.524010421910215130e-02
5.592000000000000171e+01,6.440320394761965550e-02
5.596000000000000085e+01,7.191710008697523027e-02
5.600000000000000000e+01,5.738804374425114652e-02
5.603999999999999915e+01,7.416937292216169153e-02
5.607999999999999829e+01,8.250357848145026263e-02
5.611999999999999744e+01,7.394476359608921634e-02
5.615999999999999659e+01,8.310049837074123813e-02
5.620000000000000284e+01,9.060702115963444048e-02
5.624000000000000199e+01,6.989065958697691927e-02
5.628000000000000114e+01,9.284452210410557016e-02
5.632000000000000028e+01,8.778149491024705986e-02
5.635999999999999943e+01,8.642518381805615324e-02
5.639999999999999858e+01,8.898158487752903800e-02
5.643999999999999773e+01,9.442070944208723338e-02
5.647999999999999687e+01,8.935272189940393628e-02
5.652000000000000313e+01,9.437736579296024386e-02
5.656000000000000227e+01,1.045507009370239548e-01
5.660000000000000142e+01,1.052469070226935005e-01
5.664000000000000057e+01,1.009979265379769425e-01
5.667999999999999972e+01,1.062235795434813973e-01
5.671999999999999886e+01,9.991212479800173907e-02
5.675999999999999801e+01,8.886147673326687257e-02
5.679999999999999716e+01,8.625547071330867677e-02
5.684000000000000341e+01,7.849827367637136899e-02
5.688000000000000256e+01,7.547776179562079579e-02
5.692000000000000171e+01,7.101401018874986537e-02
5.696000000000000085e+01,5.851509907459339493e-02
5.700000000000000000e+01,6.805665467037286254e-02
5.703999999999999915e+01,7.265300970143824533e-02
5.707999999999999829e+01,6.674223163376992451e-02
5.711999999999999744e+01,6.268416603368349993e-02
5.715999999999999659e+01,5.244491097400982155e-02
5.720000000000000284e+01,5.641821254880066000e-02
5.724000000000000199e+01,5.462231676399678659e-02
5.728000000000000114e+01,4.520324517530323327e-02
5.732000000000000028e+01,4.175682804561021977e-02
5.735999999999999943e+01,3.604316599831949158e-02
5.739999999999999858e+01,4.701402298147898395e-02
5.743999999999999773e+01,4.315178783299760540e-02
5.747999999999999687e+01,3.640431122033262190e-02
5.752000000000000313e+01,3.006755093491748562e-02
5.756000000000000227e+01,3.135141630733917495e-02
5.760000000000000142e+01,3.798993399444439145e-02
5.764000000000000057e+01,4.256719441735136444e-02
5.767999999999999972e+01,3.128136706487495006e-02
5.771999999999999886e+01,3.070612151394117723e-02
5.775999999999999801e+01,2.209568846706568002e-02
5.779999999999999716e+01,3.840965843347791953e-02
5.784000000000000341e+01,3.824254267848805483e-02
5.788000000000000256e+01,2.530229389238782337e-02
5.792000000000000171e+01,2.781056124753649925e-02
5.796000000000000085e+01,3.443748362589854617e-02
5.800000000000000000e+01,3.138123051628886884e-02
5.803999999999999915e+01,2.255575205842830569e-02
5.807999999999999829e+01,2.032089381863243921e-02
5.811999999999999744e+01,3.271055492520483915e-02
5.815999999999999659e+01,2.449917012632986738e-02
5.820000000000000284e+01,1.793446256092184887e-02
5.824000000000000199e+01,1.899035686299287845e-02
5.828000000000000114e+01,2.375290009395659638e-02
5.832000000000000028e+01,2.171622093349409241e-02
5.835999999999999943e+01,2.524016494792082413e-02
5.839999999999999858e+01,1.516696794089412645e-02
5.843999999999999773e+01,2.013027398363150672e-02
5.847999999999999687e+01,2.777023471095182647e-02
5.852000000000000313e+01,2.387302471281161839e-02
5.856000000000000227e+01,1.709053546580192873e-02
5.860000000000000142e+01,1.957661508680928752e-02
5.864000000000000057e+01,2.618132594067221902e-02
5.867999999999999972e+01,3.422669978537919849e-02
5.871999999999999886e+01,2.414297752572918537e-02
5.875999999999999801e+01,2.085584914321516464e-02
5.879999999999999716e+01,2.457131068783353217e-02
5.884000000000000341e+01,2.498948828869449607e-02
5.888000000000000256e+01,2.272837289465271665e-02
5.892000000000000171e+01,2.314389679143291287e-02
5.896000000000000085e+01,3.447595655676785609e-02
5.900000000000000000e+01,3.159286196086983495e-02
5.903999999999999915e+01,3.797832083922778740e-02
5.907999999999999829e+01,3.488656389435736138e-02
5.911999999999999744e+01,4.394732191688531520e-02
5.915999999999999659e+01,3.570295823901190047e-02
5.920000000000000284e+01,2.436729547191489320e-02
5.924000000000000199e+01,3.074607460850465809e-02
5.928000000000000114e+01,3.980148044102110177e-02
5.932000000000000028e+01,2.763780743625132014e-02
5.935999999999999943e+01,3.648453132773604723e-02
5.939999999999999858e+01,3.667801799824646491e-02
5.943999999999999773e+01,3.666416147494436922e-02
5.947999999999999687e+01,2.840905983066055115e-02
5.952000000000000313e+01,2.736252037314775357e-02
5.956000000000000227e+01,2.878660036610280679e-02
5.960000000000000142e+01,4.092119638725856545e-02
5.964000000000000057e+01,2.050684265706301940e-02
5.967999999999999972e+01,2.975476750368329093e-02
5.971999999999999886e+01,2.931945668672101407e-02
5.975999999999999801e+01,2.826479658162555503e-02
5.979999999999999716e+01,3.174072202469257337e-02
5.984000000000000341e+01,4.098321631306402202e-02
5.988000000000000256e+01,2.900661217208999262e-02
5.992000000000000171e+01,3.762839043645281600e-02
5.996000000000000085e+01,3.533093994406141108e-02
