2.003999999999999915e+01,3.108470184905696640e-02
2.007999999999999829e+01,3.432663409571808794e-02
2.012000000000000099e+01,4.563243879671201320e-02
2.016000000000000014e+01,2.349162943455385122e-02
2.019999999999999929e+01,4.048825905304836298e-02
2.023999999999999844e+01,5.416302999489919917e-02
2.028000000000000114e+01,5.550223728086303016e-02
2.032000000000000028e+01,4.948714024378898790e-02
2.035999999999999943e+01,6.031242379753555538e-02
2.039999999999999858e+01,4.480718192995457316e-02
2.044000000000000128e+01,5.041197248007545789e-02
2.048000000000000043e+01,4.652763703813867641e-02
2.051999999999999957e+01,4.050746278650060178e-02
2.055999999999999872e+01,3.994193969246912640e-02
2.060000000000000142e+01,4.577987974473088362e-02
2.064000000000000057e+01,3.311499137234356210e-02
2.067999999999999972e+01,4.464377671532258895e-02
2.071999999999999886e+01,4.644623837459787435e-02
2.076000000000000156e+01,5.512657214560445773e-02
2.080000000000000071e+01,4.862491987680867683e-02
2.083999999999999986e+01,4.069904394423680405e-02
2.087999999999999901e+01,3.229775633657611111e-02
2.092000000000000171e+01,4.002525284926154031e-02
2.096000000000000085e+01,3.684041684679443401e-02
2.100000000000000000e+01,3.816143019985600293e-02
2.103999999999999915e+01,2.999332944523732877e-02
2.107999999999999829e+01,4.910254709918563526e-02
2.112000000000000099e+01,4.543929638598122323e-02
2.116000000000000014e+01,4.248665386463058857e-02
2.119999999999999929e+01,1.937077530835324204e-02
2.123999999999999844e+01,5.104774161046404801e-02
2.128000000000000114e+01,4.904091483322508410e-02
2.132000000000000028e+01,4.062861609485419329e-02
2.135999999999999943e+01,4.739629967475202099e-02
2.139999999999999858e+01,4.680970185148338597e-02
2.144000000000000128e+01,3.839441790403080174e-02
2.148000000000000043e+01,4.088946869238617443e-02
2.151999999999999957e+01,4.219751303294630440e-02
2.155999999999999872e+01,6.200638292550589986e-02
2.160000000000000142e+01,4.315020804582343772e-02
2.164000000000000057e+01,5.892464979255810503e-02
2.167999999999999972e+01,4.457334872304525436e-02
2.171999999999999886e+01,4.587644318165955831e-02
2.176000000000000156e+01,4.219729172657177979e-02
2.180000000000000071e+01,4.610764280905436940e-02
2.183999999999999986e+01,3.578484106252499686e-02
2.187999999999999901e+01,4.182804659451134360e-02
2.192000000000000171e+01,5.000509315685387757e-02
2.196000000000000085e+01,3.374926968395505072e-02
2.200000000000000000e+01,4.002672844494348237e-02
2.203999999999999915e+01,2.946180798688216237e-02
2.207999999999999829e+01,2.933282942798893719e-02
2.212000000000000099e+01,3.038888500406989115e-02
2.216000000000000014e+01,3.927165354262895230e-02
2.219999999999999929e+01,4.103736044065491029e-02
2.223999999999999844e+01,5.703425719259718613e-02
2.228000000000000114e+01,3.080808182906646930e-02
2.232000000000000028e+01,2.213393700653050813e-02
2.235999999999999943e+01,4.192315168160693634e-02
2.239999999999999858e+01,2.233573020727164585e-02
2.244000000000000128e+01,2.504439751959800647e-02
2.248000000000000043e+01,2.324523976803775580e-02
2.251999999999999957e+01,3.876091401694224670e-02
2.255999999999999872e+01,3.885743679199511053e-02
2.260000000000000142e+01,3.041368970565119789e-02
2.264000000000000057e+01,4.118239944603038077e-02
2.267999999999999972e+01,3.724356861406213914e-02
2.271999999999999886e+01,2.452726768239904889e-02
2.276000000000000156e+01,3.837671245758389471e-02
2.280000000000000071e+01,5.388561136867404261e-02
2.283999999999999986e+01,3.571075030689507129e-02
2.287999999999999901e+01,5.525016839130056368e-02
2.292000000000000171e+01,3.019450009287181699e-02
2.296000000000000085e+01,4.190430149859267206e-02
2.300000000000000000e+01,4.554824710165974316e-02
2.303999999999999915e+01,3.804270154659772363e-02
2.307999999999999829e+01,4.168472746765893022e-02
2.312000000000000099e+01,2.706118037983717278e-02
2.316000000000000014e+01,4.303583483186700781e-02
2.319999999999999929e+01,4.050771518783154862e-02
2.323999999999999844e+01,5.031318434020950331e-02
2.328000000000000114e+01,3.094175577150753628e-02
2.332000000000000028e+01,4.548937112750387618e-02
2.335999999999999943e+01,6.027323579407870696e-02
2.339999999999999858e+01,5.679153339395964090e-02
2.344000000000000128e+01,4.690440402356723520e-02
2.348000000000000043e+01,4.697884069338550961e-02
2.351999999999999957e+01,4.349428551010737359e-02
2.355999999999999872e+01,1.178164968774109665e-02
2.360000000000000142e+01,2.750862247445353889e-02
2.364000000000000057e+01,4.109982266442609861e-02
2.367999999999999972e+01,4.022070628910529022e-02
2.371999999999999886e+01,5.072637775700442053e-02
2.376000000000000156e+01,3.988285359380713130e-02
2.380000000000000071e+01,3.235922428327330652e-02
2.383999999999999986e+01,3.764360207231648436e-02
2.387999999999999901e+01,4.695948476664341120e-02
2.392000000000000171e+01,4.441428662343953337e-02
2.396000000000000085e+01,4.091933659932271011e-02
2.400000000000000000e+01,4.667435529605804684e-02
2.403999999999999915e+01,4.175430962666872720e-02
2.407999999999999829e+01,3.019164778420104639e-02
2.412000000000000099e+01,3.048818784369630719e-02
2.416000000000000014e+01,3.884868609482666074e-02
2.419999999999999929e+01,3.487370388071356353e-02
2.423999999999999844e+01,4.014869548075745975e-02
2.428000000000000114e+01,5.989212301275868844e-02
2.432000000000000028e+01,2.484077411998838678e-02
2.435999999999999943e+01,2.916415527677005542e-02
2.439999999999999858e+01,2.992856325590592670e-02
2.444000000000000128e+01,4.800784398194433283e-02
2.448000000000000043e+01,1.983165193697370918e-02
2.451999999999999957e+01,4.502515764918488261e-02
2.455999999999999872e+01,3.155368140657863890e-02
2.460000000000000142e+01,6.741945727475988359e-02
2.464000000000000057e+01,4.113717717576974992e-02
2.467999999999999972e+01,3.216977491698687353e-02
2.471999999999999886e+01,3.838242628273886431e-02
2.476000000000000156e+01,2.751555336861053261e-02
2.480000000000000071e+01,2.281502994865735809e-02
2.483999999999999986e+01,3.780141561395523875e-02
2.487999999999999901e+01,3.547107676107430496e-02
2.492000000000000171e+01,4.499995678783864916e-02
2.496000000000000085e+01,3.365407221993149678e-02
2.500000000000000000e+01,5.622726722985571524e-02
2.503999999999999915e+01,3.064737907354290330e-02
2.507999999999999829e+01,3.424251649381494095e-02
2.512000000000000099e+01,3.759953500566540902e-02
2.516000000000000014e+01,4.143004381283076076e-02
2.519999999999999929e+01,5.000369389330833192e-02
2.523999999999999844e+01,3.082370455773213169e-02
2.528000000000000114e+01,3.251664756988591198e-02
2.532000000000000028e+01,2.163693110060099789e-02
2.535999999999999943e+01,4.420189627920265846e-02
2.539999999999999858e+01,1.813938036162312042e-02
2.544000000000000128e+01,4.426056780080630387e-02
2.548000000000000043e+01,3.029357609980250915e-02
2.551999999999999957e+01,2.771141044180414417e-02
2.555999999999999872e+01,3.437924661113900965e-02
2.560000000000000142e+01,2.040953455289908069e-02
2.564000000000000057e+01,2.304311235323298207e-02
2.567999999999999972e+01,2.970823325863633166e-02
2.571999999999999886e+01,2.332629760154053197e-02
2.576000000000000156e+01,3.686849333898124803e-02
2.580000000000000071e+01,3.238237572772590528e-02
2.583999999999999986e+01,3.667186031609093871e-02
2.587999999999999901e+01,4.546729782384741070e-02
2.592000000000000171e+01,3.077876047569333071e-02
2.596000000000000085e+01,2.913547800292522194e-02
2.600000000000000000e+01,3.792822061996917182e-02
2.603999999999999915e+01,5.407335297134965857e-02
2.607999999999999829e+01,3.297675233521388943e-02
2.612000000000000099e+01,3.465072415298031672e-02
2.616000000000000014e+01,2.825890722993840837e-02
2.619999999999999929e+01,2.518703609260731710e-02
2.623999999999999844e+01,4.607175388058445953e-02
2.628000000000000114e+01,2.757991786090918315e-02
2.632000000000000028e+01,2.474257499103517388e-02
2.635999999999999943e+01,2.546238408735902736e-02
2.639999999999999858e+01,4.041347132154767680e-02
2.644000000000000128e+01,3.425262258482660721e-02
2.648000000000000043e+01,1.338431391974998635e-02
2.651999999999999957e+01,2.453749481049510503e-02
2.655999999999999872e+01,3.426657342789337507e-02
2.660000000000000142e+01,3.260903365289846700e-02
2.664000000000000057e+01,3.142501558193092764e-02
2.667999999999999972e+01,2.905410056921966383e-02
2.671999999999999886e+01,2.952873680781107832e-02
2.676000000000000156e+01,2.407242210341266689e-02
2.680000000000000071e+01,1.410837401461267904e-02
2.683999999999999986e+01,3.071015821884062399e-02
2.687999999999999901e+01,2.738602971463819855e-02
2.692000000000000171e+01,4.256284051290713105e-02
2.696000000000000085e+01,3.757653751556295357e-02
2.700000000000000000e+01,4.966795880875429087e-02
2.703999999999999915e+01,2.878731761676124254e-02
2.707999999999999829e+01,1.976594114415567913e-02
2.712000000000000099e+01,3.161753606794972388e-02
2.716000000000000014e+01,3.279413283858041706e-02
2.719999999999999929e+01,1.143559305739532371e-02
2.723999999999999844e+01,2.423338317650278184e-02
2.728000000000000114e+01,4.343477820555188135e-02
2.732000000000000028e+01,3.108733340130967124e-02
2.735999999999999943e+01,0.000000000000000000e+00
2.739999999999999858e+01,1.967319484107044741e-02
2.744000000000000128e+01,2.772258633136343367e-02
2.748000000000000043e+01,3.600831456729967905e-02
2.751999999999999957e+01,3.646548570943814599e-02
2.755999999999999872e+01,3.526137301538221497e-02
2.760000000000000142e+01,1.270814618310538331e-02
2.764000000000000057e+01,4.992915851464106020e-02
2.767999999999999972e+01,5.156889130868046178e-02
2.771999999999999886e+01,1.644133148935389074e-02
2.776000000000000156e+01,2.756745463830069173e-02
2.780000000000000071e+01,2.398614587206760948e-02
2.783999999999999986e+01,2.870607617975956538e-02
2.787999999999999901e+01,3.722039349619660209e-02
2.792000000000000171e+01,3.766895942272675823e-02
2.796000000000000085e+01,3.574464164705124652e-02
2.800000000000000000e+01,2.694058810399070289e-02
2.803999999999999915e+01,3.853511991176290091e-02
2.807999999999999829e+01,2.996656169267717523e-02
2.812000000000000099e+01,1.617868974751369288e-02
2.816000000000000014e+01,2.231500012993391582e-02
2.819999999999999929e+01,3.722696279613761650e-02
2.823999999999999844e+01,3.838031402468987385e-02
2.828000000000000114e+01,5.234176657895615176e-02
2.832000000000000028e+01,1.174573038181348644e-02
2.835999999999999943e+01,2.997513748859489610e-02
2.839999999999999858e+01,3.586915326296532397e-02
2.844000000000000128e+01,3.203700918826720562e-02
2.848000000000000043e+01,2.298555902744842810e-02
2.851999999999999957e+01,3.148627098466319496e-02
2.855999999999999872e+01,2.195872816618601661e-02
2.860000000000000142e+01,1.764880434607263293e-02
2.864000000000000057e+01,3.587230367461044511e-02
2.867999999999999972e+01,2.136097810716356196e-02
2.871999999999999886e+01,3.768517485941161316e-02
2.876000000000000156e+01,3.028825424157089927e-02
2.880000000000000071e+01,3.403902649028277272e-02
2.883999999999999986e+01,4.395623397046612840e-02
2.887999999999999901e+01,1.402253725056348994e-02
2.892000000000000171e+01,2.061723393359397860e-02
2.896000000000000085e+01,1.582536230839412181e-02
2.900000000000000000e+01,2.977167691259093377e-02
2.903999999999999915e+01,1.857366337918347349e-02
2.907999999999999829e+01,3.062069068700463970e-02
2.912000000000000099e+01,2.369066396370877320e-02
2.916000000000000014e+01,2.221547090810512340e-02
2.919999999999999929e+01,5.133860757385509677e-02
2.923999999999999844e+01,2.993672235669330925e-02
2.928000000000000114e+01,1.304086221407323339e-02
2.932000000000000028e+01,3.172459282342438014e-02
2.935999999999999943e+01,2.289197423673701784e-02
2.939999999999999858e+01,2.995111694887869075e-02
2.944000000000000128e+01,2.396328204474438769e-02
2.948000000000000043e+01,4.122049647068008749e-02
2.951999999999999957e+01,2.882654003155692146e-02
2.955999999999999872e+01,3.493357892125750069e-02
2.960000000000000142e+01,3.843056612805064581e-02
2.964000000000000057e+01,2.555974097367834375e-02
2.967999999999999972e+01,3.190152204963415256e-02
2.971999999999999886e+01,4.844220437667438872e-02
2.976000000000000156e+01,5.383353815811758869e-02
2.980000000000000071e+01,2.222042068321835803e-02
2.983999999999999986e+01,3.187977183460149327e-02
2.987999999999999901e+01,2.872935749238482786e-02
2.992000000000000171e+01,3.150819851655999038e-02
2.996000000000000085e+01,2.361210080946031520e-02
3.000000000000000000e+01,1.737561003740761487e-02
3.003999999999999915e+01,3.438418047980243419e-02
3.007999999999999829e+01,2.838326992013680272e-02
3.012000000000000099e+01,5.250630303625798689e-02
3.016000000000000014e+01,2.444391429914719027e-02
3.019999999999999929e+01,3.717959625837428950e-02
3.023999999999999844e+01,3.924034542851530943e-02
3.028000000000000114e+01,5.245464668726316539e-03
3.032000000000000028e+01,1.916474070044946187e-02
3.035999999999999943e+01,2.406950598439392200e-02
3.039999999999999858e+01,3.656395631599489854e-02
3.044000000000000128e+01,4.226277070025287290e-03
3.048000000000000043e+01,4.708107828043822662e-02
3.051999999999999957e+01,3.988529034213281893e-02
3.055999999999999872e+01,6.044142756783239812e-02
3.060000000000000142e+01,4.233271102021675392e-02
3.064000000000000057e+01,6.359885779696014541e-02
3.067999999999999972e+01,3.481441882052158099e-02
3.071999999999999886e+01,3.283309726382153959e-02
3.076000000000000156e+01,4.840398536266567880e-02
3.080000000000000071e+01,2.981687684667922583e-02
3.083999999999999986e+01,7.313890046979146242e-02
3.087999999999999901e+01,4.862013371283779167e-02
3.092000000000000171e+01,5.043008305014177323e-02
3.096000000000000085e+01,5.864371539472626460e-02
3.100000000000000000e+01,4.906634753050095193e-02
3.103999999999999915e+01,6.439448159748137335e-02
3.107999999999999829e+01,6.430364500292756746e-02
3.112000000000000099e+01,5.638432771414700340e-02
3.116000000000000014e+01,7.669135389253453616e-02
3.119999999999999929e+01,6.402640586968638692e-02
3.123999999999999844e+01,6.867647490404110711e-02
3.128000000000000114e+01,9.135317019933505978e-02
3.132000000000000028e+01,1.116570530986895349e-01
3.135999999999999943e+01,1.160675657087971852e-01
3.139999999999999858e+01,1.366070848468906862e-01
3.144000000000000128e+01,1.369835852643924157e-01
3.148000000000000043e+01,1.475590242838798472e-01
3.151999999999999957e+01,1.327529850116278831e-01
3.155999999999999872e+01,1.687075622657045193e-01
3.160000000000000142e+01,1.963592634422624827e-01
3.164000000000000057e+01,2.052711668523535260e-01
3.167999999999999972e+01,2.246192158938017658e-01
3.171999999999999886e+01,2.581986559747028176e-01
3.176000000000000156e+01,2.682942451367749115e-01
3.180000000000000071e+01,2.345065447231395039e-01
3.183999999999999986e+01,2.327404467669139942e-01
3.187999999999999901e+01,2.573030852781650335e-01
3.192000000000000171e+01,2.766464907073296620e-01
3.196000000000000085e+01,2.352652122248215516e-01
3.200000000000000000e+01,2.235335117457524778e-01
3.203999999999999915e+01,1.783554493221126414e-01
3.207999999999999829e+01,1.720778752127586630e-01
3.211999999999999744e+01,1.833525396210089475e-01
3.215999999999999659e+01,1.789710535026454996e-01
3.220000000000000284e+01,1.425664255449521356e-01
3.224000000000000199e+01,1.495691422111449231e-01
3.228000000000000114e+01,1.285811660799384415e-01
3.232000000000000028e+01,1.170805380224320125e-01
3.235999999999999943e+01,9.680264444630373721e-02
3.239999999999999858e+01,8.411447836203789219e-02
3.243999999999999773e+01,8.328569074763178537e-02
3.247999999999999687e+01,9.004663232285643748e-02
3.252000000000000313e+01,6.691926391438071664e-02
3.256000000000000227e+01,6.253015728598813883e-02
3.260000000000000142e+01,7.427008265210499616e-02
3.264000000000000057e+01,5.493568665642022120e-02
3.267999999999999972e+01,6.762291094471184483e-02
3.271999999999999886e+01,8.268140824702290004e-02
3.275999999999999801e+01,6.666558673418469805e-02
3.279999999999999716e+01,6.582999032047344434e-02
3.284000000000000341e+01,8.586748669359087205e-02
3.288000000000000256e+01,5.964968856136466935e-02
3.292000000000000171e+01,7.351841049474448775e-02
3.296000000000000085e+01,6.248009026611454908e-02
3.300000000000000000e+01,2.018275868029478226e-01
3.303999999999999915e+01,2.920733588105653422e-01
3.307999999999999829e+01,1.330182566394355614e-01
3.311999999999999744e+01,6.742030539224645735e-02
3.315999999999999659e+01,7.250803856261207880e-02
3.320000000000000284e+01,5.268873466427271418e-02
3.324000000000000199e+01,4.306840671882041643e-02
3.328000000000000114e+01,7.661824268329057996e-02
3.332000000000000028e+01,5.489908765201475388e-02
3.335999999999999943e+01,5.547625315276547703e-02
3.339999999999999858e+01,7.289407598056019122e-02
3.343999999999999773e+01,5.686556657472832677e-02
3.347999999999999687e+01,5.459407998934916878e-02
3.352000000000000313e+01,8.126059531015358828e-02
3.356000000000000227e+01,8.586651462161870585e-02
3.360000000000000142e+01,7.268148890174196131e-02
3.364000000000000057e+01,7.254188104300218765e-02
3.367999999999999972e+01,6.979230808753535131e-02
3.371999999999999886e+01,8.483221038998842167e-02
3.375999999999999801e+01,8.848564625030569397e-02
3.379999999999999716e+01,8.668268614113948389e-02
3.384000000000000341e+01,8.369298104048719655e-02
3.388000000000000256e+01,9.019065712001560209e-02
3.392000000000000171e+01,1.073617291533626172e-01
3.396000000000000085e+01,1.167043807632553720e-01
3.400000000000000000e+01,9.188910366904706750e-02
3.403999999999999915e+01,1.325410683989280969e-01
3.407999999999999829e+01,1.380862949826735520e-01
3.411999999999999744e+01,1.405471602375157059e-01
3.415999999999999659e+01,1.401608677972896178e-01
3.420000000000000284e+01,1.715590251136857314e-01
3.424000000000000199e+01,1.545670917222417284e-01
3.428000000000000114e+01,1.807453434628233935e-01
3.432000000000000028e+01,1.649379813870028300e-01
3.435999999999999943e+01,1.823382891730454536e-01
3.439999999999999858e+01,2.115980170242696690e-01
3.443999999999999773e+01,1.900956305625671194e-01
3.447999999999999687e+01,1.804526658638144210e-01
3.452000000000000313e+01,1.719949984541129240e-01
3.456000000000000227e+01,1.753967545051295374e-01
3.460000000000000142e+01,1.662260480158231357e-01
3.464000000000000057e+01,1.489897327491419843e-01
3.467999999999999972e+01,1.419524239951761302e-01
3.471999999999999886e+01,1.406072696887459283e-01
3.475999999999999801e+01,1.247920339579234594e-01
3.479999999999999716e+01,1.122969265228975777e-01
3.484000000000000341e+01,1.149820874800888959e-01
3.488000000000000256e+01,9.489507208626477008e-02
3.492000000000000171e+01,1.179782554066121092e-01
3.496000000000000085e+01,9.860143292280172667e-02
3.500000000000000000e+01,8.610278475346946903e-02
3.503999999999999915e+01,6.980818642471665891e-02
3.507999999999999829e+01,8.458644817318455855e-02
3.511999999999999744e+01,8.868988069642899652e-02
3.515999999999999659e+01,8.069526813362966344e-02
3.520000000000000284e+01,9.001575666756114757e-02
3.524000000000000199e+01,7.680127927538510368e-02
3.528000000000000114e+01,1.034361692480272182e-01
3.532000000000000028e+01,1.046896615729213803e-01
3.535999999999999943e+01,8.530581279796610461e-02
3.539999999999999858e+01,9.557161418160012301e-02
3.543999999999999773e+01,1.022786766796055513e-01
3.547999999999999687e+01,9.427847024818210298e-02
3.552000000000000313e+01,1.097606441132814442e-01
3.556000000000000227e+01,1.200236621447493823e-01
3.560000000000000142e+01,1.267279446861251380e-01
3.564000000000000057e+01,1.256038424571796763e-01
3.567999999999999972e+01,1.522317740494065486e-01
3.571999999999999886e+01,1.617804139560021781e-01
3.575999999999999801e+01,1.589938187248649548e-01
3.579999999999999716e+01,1.600017785815289195e-01
3.584000000000000341e+01,1.581626163962575327e-01
3.588000000000000256e+01,1.862103173411356616e-01
3.592000000000000171e+01,2.021599893287683580e-01
3.596000000000000085e+01,2.261738699288517729e-01
3.600000000000000000e+01,2.416477650437187652e-01
3.603999999999999915e+01,2.476328643824507458e-01
3.607999999999999829e+01,2.747283280525757987e-01
3.611999999999999744e+01,2.947070254938413680e-01
3.615999999999999659e+01,2.810022456406497393e-01
3.620000000000000284e+01,2.964727273538285135e-01
3.624000000000000199e+01,2.998451869008347259e-01
3.628000000000000114e+01,3.067750089373006972e-01
3.632000000000000028e+01,2.819189793544518707e-01
3.635999999999999943e+01,2.862382147335097438e-01
3.639999999999999858e+01,2.647016698147894309e-01
3.643999999999999773e+01,2.730519999105961992e-01
3.647999999999999687e+01,2.593417959656045824e-01
3.652000000000000313e+01,2.366172120009887858e-01
3.656000000000000227e+01,2.183988076078244578e-01
3.660000000000000142e+01,1.840499413442824583e-01
3.664000000000000057e+01,1.945317297915840071e-01
3.667999999999999972e+01,1.820041773027050169e-01
3.671999999999999886e+01,1.616482629633759494e-01
3.675999999999999801e+01,1.284827291385158554e-01
3.679999999999999716e+01,1.432314896243953584e-01
3.684000000000000341e+01,1.131482563541635344e-01
3.688000000000000256e+01,1.103426768017262416e-01
3.692000000000000171e+01,1.080108371165351272e-01
3.696000000000000085e+01,1.139804300508483886e-01
3.700000000000000000e+01,1.000243250444134285e-01
3.703999999999999915e+01,8.322112346256671511e-02
3.707999999999999829e+01,9.274676870313219856e-02
3.711999999999999744e+01,8.922559931317293469e-02
3.715999999999999659e+01,6.933677715226280180e-02
3.720000000000000284e+01,6.391666511288074393e-02
3.724000000000000199e+01,5.422624403280321831e-02
3.728000000000000114e+01,5.900453477202199926e-02
3.732000000000000028e+01,5.571727360910190552e-02
3.735999999999999943e+01,6.594991482344353395e-02
3.739999999999999858e+01,4.771756632765178363e-02
3.743999999999999773e+01,3.707505228312161366e-02
3.747999999999999687e+01,4.279887658191422473e-02
3.752000000000000313e+01,5.018246740596843392e-02
3.756000000000000227e+01,5.329575598040021955e-02
3.760000000000000142e+01,5.285035150894587530e-02
3.764000000000000057e+01,3.722331837790367193e-02
3.767999999999999972e+01,2.681409694192058227e-02
3.771999999999999886e+01,4.961261667406676595e-02
3.775999999999999801e+01,2.757916217443634813e-02
3.779999999999999716e+01,3.329778648683662939e-02
3.784000000000000341e+01,2.739282815833065168e-02
3.788000000000000256e+01,3.097533589841755530e-02
3.792000000000000171e+01,3.147356295359263895e-02
3.796000000000000085e+01,3.576639093631126670e-02
3.800000000000000000e+01,3.721214271683716268e-02
3.803999999999999915e+01,4.838256674644297872e-02
3.807999999999999829e+01,3.772969347556598407e-02
3.811999999999999744e+01,3.182023566757189587e-02
3.815999999999999659e+01,2.045447441846352105e-02
3.820000000000000284e+01,3.233394755616317978e-02
3.824000000000000199e+01,3.496187439130510333e-02
3.828000000000000114e+01,2.169657779415300539e-02
3.832000000000000028e+01,3.309973484016567880e-02
3.835999999999999943e+01,3.691176762492805880e-02
3.839999999999999858e+01,1.463085977116743673e-02
3.843999999999999773e+01,2.603211393535167020e-02
3.847999999999999687e+01,2.082854055681025024e-02
3.852000000000000313e+01,1.681034935573205366e-02
3.856000000000000227e+01,3.817222524597551486e-02
3.860000000000000142e+01,2.110661992467868439e-02
3.864000000000000057e+01,1.756094414493520814e-02
3.867999999999999972e+01,2.184233191681193495e-02
3.871999999999999886e+01,2.019302256205058460e-02
3.875999999999999801e+01,1.498504477904248622e-02
3.879999999999999716e+01,9.064832836080583336e-03
3.884000000000000341e+01,1.476693239948694697e-02
3.888000000000000256e+01,1.667316329634827357e-02
3.892000000000000171e+01,2.711807119298658211e-02
3.896000000000000085e+01,1.526529489469123126e-02
3.900000000000000000e+01,1.313721121869481159e-02
3.903999999999999915e+01,2.263144329348713846e-02
3.907999999999999829e+01,6.981560300589417442e-03
3.911999999999999744e+01,3.473916793964651473e-02
3.915999999999999659e+01,3.237140372481644990e-02
3.920000000000000284e+01,1.197561053747052233e-02
3.924000000000000199e+01,2.431318520594898461e-02
3.928000000000000114e+01,3.072007463216709297e-02
3.932000000000000028e+01,2.621502118104348730e-02
3.935999999999999943e+01,6.291172787398679501e-03
3.939999999999999858e+01,2.740279311839010495e-02
3.943999999999999773e+01,1.910065589253543902e-02
3.947999999999999687e+01,2.123482983044131314e-02
3.952000000000000313e+01,3.309370742613959582e-02
3.956000000000000227e+01,2.834778039898354363e-02
3.960000000000000142e+01,2.122921669490100000e-02
3.964000000000000057e+01,2.122612856080518390e-02
3.967999999999999972e+01,2.430606950141790332e-02
3.971999999999999886e+01,2.216694289234774629e-02
3.975999999999999801e+01,1.125070780821788019e-02
3.979999999999999716e+01,2.025890207695062867e-02
3.984000000000000341e+01,3.021530375137182478e-02
3.988000000000000256e+01,1.170676834647515867e-02
3.992000000000000171e+01,3.850336283082149424e-02
3.996000000000000085e+01,1.003110723418583483e-02
4.000000000000000000e+01,1.571545233187714510e-02
4.003999999999999915e+01,2.424563135928327340e-02
4.007999999999999829e+01,1.972905857358956544e-02
4.011999999999999744e+01,1.307706293141365668e-02
4.015999999999999659e+01,1.875901516363415872e-02
4.020000000000000284e+01,2.610079079635230920e-02
4.024000000000000199e+01,7.349664839216971633e-03
4.028000000000000114e+01,1.990871209918876339e-02
4.032000000000000028e+01,7.323670606878160579e-03
4.035999999999999943e+01,2.201635668528048248e-02
4.039999999999999858e+01,2.769474508581834180e-02
4.043999999999999773e+01,2.957729792629181995e-02
4.047999999999999687e+01,1.936191858230955007e-02
4.052000000000000313e+01,1.887126411822272198e-02
4.056000000000000227e+01,3.166337715717634782e-02
4.060000000000000142e+01,2.049742131079021479e-02
4.064000000000000057e+01,4.325087695592624154e-02
4.067999999999999972e+01,2.401885375723524993e-02
4.071999999999999886e+01,2.542288779059379347e-02
4.075999999999999801e+01,3.607724622725110020e-02
4.079999999999999716e+01,3.961493775449084764e-02
4.084000000000000341e+01,3.769638271585240563e-02
4.088000000000000256e+01,2.344270119664873878e-02
4.092000000000000171e+01,3.172270343352097399e-02
4.096000000000000085e+01,3.857890899532981366e-02
4.100000000000000000e+01,3.570922125768367927e-02
4.103999999999999915e+01,3.663419981165837169e-02
4.107999999999999829e+01,3.471216752751749707e-02
4.111999999999999744e+01,5.390060653416899050e-02
4.115999999999999659e+01,3.632203815251885959e-02
4.120000000000000284e+01,2.301254502792740575e-02
4.124000000000000199e+01,3.271114802038652125e-02
4.128000000000000114e+01,1.940050769833862737e-02
4.132000000000000028e+01,1.866104265327738279e-02
4.135999999999999943e+01,4.638534032578571498e-02
4.139999999999999858e+01,2.951494379992315384e-02
4.143999999999999773e+01,3.162020029136927007e-02
4.147999999999999687e+01,2.020432911075824636e-02
4.152000000000000313e+01,1.946201517194856567e-02
4.156000000000000227e+01,2.512360919471129037e-02
4.160000000000000142e+01,2.675218949009841585e-02
4.164000000000000057e+01,2.126412070263456605e-02
4.167999999999999972e+01,3.166807382142461380e-02
4.171999999999999886e+01,3.495537955513195599e-02
4.175999999999999801e+01,3.515848609680311682e-02
4.179999999999999716e+01,3.773305834918893459e-02
4.184000000000000341e+01,3.888385260196192128e-02
4.188000000000000256e+01,4.098289755351339908e-02
4.192000000000000171e+01,4.213257177312179635e-02
4.196000000000000085e+01,4.565371509898133451e-02
4.200000000000000000e+01,4.869989496056741779e-02
4.203999999999999915e+01,4.557824536794666259e-02
4.207999999999999829e+01,3.937240337436267307e-02
4.211999999999999744e+01,4.099369793643314192e-02
4.215999999999999659e+01,5.281415775254939132e-02
4.220000000000000284e+01,4.494623276780375376e-02
4.224000000000000199e+01,4.514264967031564324e-02
4.228000000000000114e+01,4.960816474975746765e-02
4.232000000000000028e+01,4.695704517737835093e-02
4.235999999999999943e+01,5.948635358743105395e-02
4.239999999999999858e+01,6.608504296818470958e-02
4.243999999999999773e+01,5.299535264138111046e-02
4.247999999999999687e+01,6.006735132762697910e-02
4.252000000000000313e+01,7.638971176807290986e-02
4.256000000000000227e+01,1.057576793708144836e-01
4.260000000000000142e+01,8.697293646744798379e-02
4.264000000000000057e+01,7.435492166057428021e-02
4.267999999999999972e+01,9.684237556306656003e-02
4.271999999999999886e+01,1.060459308938601769e-01
4.275999999999999801e+01,1.074212525557059900e-01
4.279999999999999716e+01,1.175725363440392052e-01
4.284000000000000341e+01,1.578480337533096356e-01
4.288000000000000256e+01,1.644401964806550265e-01
4.292000000000000171e+01,1.729294431175690538e-01
4.296000000000000085e+01,2.319423454278353447e-01
4.300000000000000000e+01,2.546626849683710225e-01
4.303999999999999915e+01,3.089304590839688780e-01
4.307999999999999829e+01,3.738718235478487029e-01
4.311999999999999744e+01,4.547052404778108015e-01
4.315999999999999659e+01,5.561747664217540077e-01
4.320000000000000284e+01,6.709271158950892433e-01
4.324000000000000199e+01,8.594489999091371457e-01
4.328000000000000114e+01,9.806047622670979180e-01
4.332000000000000028e+01,1.000000000000000000e+00
4.335999999999999943e+01,9.079093997737471833e-01
4.339999999999999858e+01,8.044325376864314148e-01
4.343999999999999773e+01,7.021411621893257626e-01
4.347999999999999687e+01,5.531203115712669538e-01
4.352000000000000313e+01,4.365957168546826805e-01
4.356000000000000227e+01,3.430792674904277750e-01
4.360000000000000142e+01,2.766034116715488378e-01
4.364000000000000057e+01,2.471306672148604056e-01
4.367999999999999972e+01,2.190806172266375473e-01
4.371999999999999886e+01,1.708678091252479048e-01
4.375999999999999801e+01,1.537280453089329979e-01
4.379999999999999716e+01,1.401458035722924766e-01
4.384000000000000341e+01,1.168377288069695208e-01
4.388000000000000256e+01,1.144029811204924640e-01
4.392000000000000171e+01,1.003447798234954336e-01
4.396000000000000085e+01,9.150452349636438443e-02
4.400000000000000000e+01,8.171494057926431687e-02
4.403999999999999915e+01,6.860400407157224434e-02
4.407999999999999829e+01,7.826402116675237886e-02
4.411999999999999744e+01,5.684996052987345561e-02
4.415999999999999659e+01,6.935538608631917901e-02
4.420000000000000284e+01,6.335848321086270940e-02
4.424000000000000199e+01,5.332862263438255257e-02
4.428000000000000114e+01,6.298608370083573493e-02
4.432000000000000028e+01,4.156947127965038985e-02
4.435999999999999943e+01,5.359794372630902887e-02
4.439999999999999858e+01,4.190563071656985827e-02
4.443999999999999773e+01,4.563099261618745045e-02
4.447999999999999687e+01,5.338829659641092240e-02
4.452000000000000313e+01,4.050845387124851066e-02
4.456000000000000227e+01,4.589272202150392749e-02
4.460000000000000142e+01,4.819285125049565383e-02
4.464000000000000057e+01,3.768352822412800868e-02
4.467999999999999972e+01,3.523859886694915428e-02
4.471999999999999886e+01,4.394170023220274335e-02
4.475999999999999801e+01,4.125856859845364322e-02
4.479999999999999716e+01,3.786333013736879055e-02
4.484000000000000341e+01,4.348129988081209790e-02
4.488000000000000256e+01,3.842464752675734535e-02
4.492000000000000171e+01,2.530260455854655907e-02
4.496000000000000085e+01,2.332859740607289012e-02
4.500000000000000000e+01,4.388836059585553978e-02
4.503999999999999915e+01,4.191336583614004713e-02
4.507999999999999829e+01,3.448221449226308161e-02
4.511999999999999744e+01,5.290567502660489807e-02
4.515999999999999659e+01,4.428752724403715868e-02
4.520000000000000284e+01,3.993853960694008359e-02
4.524000000000000199e+01,3.890990182439503509e-02
4.528000000000000114e+01,2.862986714289727022e-02
4.532000000000000028e+01,3.756277060541866192e-02
4.535999999999999943e+01,2.965378974833237508e-02
4.539999999999999858e+01,2.530236492628521600e-02
4.543999999999999773e+01,1.715521065468869621e-02
4.547999999999999687e+01,3.604868982602182914e-02
4.552000000000000313e+01,3.904909921308658688e-02
4.556000000000000227e+01,2.995168422397889024e-02
4.560000000000000142e+01,4.457406623514299782e-02
4.564000000000000057e+01,2.693638884709084053e-02
4.567999999999999972e+01,3.823697142599470633e-02
4.571999999999999886e+01,2.557959377672609433e-02
4.575999999999999801e+01,4.186047779218167453e-02
4.579999999999999716e+01,3.513221441703601872e-02
4.584000000000000341e+01,4.002641110297965737e-02
4.588000000000000256e+01,4.041327932224708652e-02
4.592000000000000171e+01,3.131156143975708656e-02
4.596000000000000085e+01,4.094838971353057661e-02
4.600000000000000000e+01,3.611537509934963086e-02
4.603999999999999915e+01,3.982118858631905622e-02
4.607999999999999829e+01,4.566135582965337447e-02
4.611999999999999744e+01,3.299923538752314034e-02
4.615999999999999659e+01,4.215930155043654676e-02
4.620000000000000284e+01,4.017036805912625741e-02
4.624000000000000199e+01,4.102740007456941868e-02
4.628000000000000114e+01,3.690270654227613412e-02
4.632000000000000028e+01,3.941922477371635064e-02
4.635999999999999943e+01,2.841471889696202749e-02
4.639999999999999858e+01,5.251576067579686452e-02
4.643999999999999773e+01,5.147284358161972190e-02
4.647999999999999687e+01,5.588512772195885353e-02
4.652000000000000313e+01,3.444184633220202102e-02
4.656000000000000227e+01,4.691810206881727452e-02
4.660000000000000142e+01,4.065487752162666446e-02
4.664000000000000057e+01,3.391678798072052248e-02
4.667999999999999972e+01,4.188481253182971958e-02
4.671999999999999886e+01,3.467140112004638008e-02
4.675999999999999801e+01,3.528522473447537333e-02
4.679999999999999716e+01,3.993103966478928069e-02
4.684000000000000341e+01,4.101835764144877439e-02
4.688000000000000256e+01,4.091920736284524601e-02
4.692000000000000171e+01,4.674967322638477057e-02
4.696000000000000085e+01,3.787311379023799301e-02
4.700000000000000000e+01,4.892113650609545422e-02
4.703999999999999915e+01,4.194129663072467679e-02
4.707999999999999829e+01,4.444911806729425624e-02
4.711999999999999744e+01,5.027732925596952590e-02
4.715999999999999659e+01,4.495656116364000338e-02
4.720000000000000284e+01,5.505352655367146131e-02
4.724000000000000199e+01,4.735983638184602940e-02
4.728000000000000114e+01,4.180052543290895678e-02
4.732000000000000028e+01,2.746426644801093150e-02
4.735999999999999943e+01,5.226602283608330901e-02
4.739999999999999858e+01,3.982649869187545461e-02
4.743999999999999773e+01,4.446513261798847039e-02
4.747999999999999687e+01,3.487115784981018041e-02
4.752000000000000313e+01,4.875981804339066944e-02
4.756000000000000227e+01,5.576915757392072320e-02
4.760000000000000142e+01,4.403903804274793971e-02
4.764000000000000057e+01,4.820106690156304718e-02
4.767999999999999972e+01,3.765608574060597125e-02
4.771999999999999886e+01,5.130535214068047967e-02
4.775999999999999801e+01,4.004789046586969964e-02
4.779999999999999716e+01,5.677992260907040178e-02
4.784000000000000341e+01,4.362396989118881574e-02
4.788000000000000256e+01,6.011793218374201359e-02
4.792000000000000171e+01,4.079384168921286469e-02
4.796000000000000085e+01,4.993365397813315926e-02
4.800000000000000000e+01,3.748758227478311833e-02
4.803999999999999915e+01,5.540303733225660637e-02
4.807999999999999829e+01,3.916086249283926707e-02
4.811999999999999744e+01,3.596441281061048267e-02
4.815999999999999659e+01,4.937173090871525838e-02
4.820000000000000284e+01,4.403960267837903758e-02
4.824000000000000199e+01,5.341362164653881694e-02
4.828000000000000114e+01,3.906693750006050292e-02
4.832000000000000028e+01,4.274724123915662338e-02
4.835999999999999943e+01,3.622740230357445607e-02
4.839999999999999858e+01,4.559972788677843503e-02
4.843999999999999773e+01,4.643233198772751119e-02
4.847999999999999687e+01,3.943682381015795047e-02
4.852000000000000313e+01,4.264061585920939784e-02
4.856000000000000227e+01,4.252315024157429096e-02
4.860000000000000142e+01,3.955883337603829236e-02
4.864000000000000057e+01,2.852920484256946110e-02
4.867999999999999972e+01,2.722447436135656471e-02
4.871999999999999886e+01,2.568212581335315922e-02
4.875999999999999801e+01,3.528789372507833838e-02
4.879999999999999716e+01,3.848877285906224244e-02
4.884000000000000341e+01,2.982910001032228198e-02
4.888000000000000256e+01,4.512649655530260456e-02
4.892000000000000171e+01,3.504278407313574095e-02
4.896000000000000085e+01,5.199977888681683869e-02
4.900000000000000000e+01,2.958070205902598587e-02
4.903999999999999915e+01,4.084401220347182865e-02
4.907999999999999829e+01,3.123306963037078207e-02
4.911999999999999744e+01,3.609109014626559614e-02
4.915999999999999659e+01,3.620464901903135829e-02
4.920000000000000284e+01,3.868983064607399436e-02
4.924000000000000199e+01,3.880258017726319342e-02
4.928000000000000114e+01,4.437059036485690999e-02
4.932000000000000028e+01,3.997568103594212330e-02
4.935999999999999943e+01,4.530568419031327093e-02
4.939999999999999858e+01,4.067276952594404277e-02
4.943999999999999773e+01,4.291833562322030365e-02
4.947999999999999687e+01,4.397748864270139418e-02
4.952000000000000313e+01,6.069162716477324859e-02
4.956000000000000227e+01,4.728061454282921072e-02
4.960000000000000142e+01,4.786416962658900098e-02
4.964000000000000057e+01,4.773572059799160300e-02
4.967999999999999972e+01,4.926729615542834589e-02
4.971999999999999886e+01,5.767735841669949931e-02
4.975999999999999801e+01,5.280367150987709535e-02
4.979999999999999716e+01,6.097574541337617837e-02
4.984000000000000341e+01,6.369176374992412126e-02
4.988000000000000256e+01,5.383564381988303199e-02
4.992000000000000171e+01,7.481549611812057798e-02
4.996000000000000085e+01,7.705593943881848540e-02
5.000000000000000000e+01,9.020732274970190423e-02
5.003999999999999915e+01,1.043071299317243766e-01
5.007999999999999829e+01,1.055976003066277785e-01
5.011999999999999744e+01,1.170874048635169862e-01
5.015999999999999659e+01,1.266792024187888555e-01
5.020000000000000284e+01,1.303405464771650868e-01
5.024000000000000199e+01,1.683959113291538801e-01
5.028000000000000114e+01,1.656520149942580233e-01
5.032000000000000028e+01,2.188875945812593649e-01
5.035999999999999943e+01,2.251566422704254222e-01
5.039999999999999858e+01,2.477923024924850448e-01
5.043999999999999773e+01,2.557210112677767988e-01
5.047999999999999687e+01,2.463335388107267543e-01
5.052000000000000313e+01,2.381317031963760267e-01
5.056000000000000227e+01,2.152229186819098194e-01
5.060000000000000142e+01,1.906533392885022826e-01
5.064000000000000057e+01,1.746226856179189935e-01
5.067999999999999972e+01,1.422246660992174394e-01
5.071999999999999886e+01,1.290396993238911993e-01
5.075999999999999801e+01,1.146683466350616326e-01
5.079999999999999716e+01,1.190356428174741132e-01
5.084000000000000341e+01,9.920788464393076600e-02
5.088000000000000256e+01,8.720744893166419709e-02
5.092000000000000171e+01,7.520664462618438517e-02
5.096000000000000085e+01,7.079596169479886181e-02
5.100000000000000000e+01,5.167833920102315320e-02
5.103999999999999915e+01,5.722944029556242124e-02
5.107999999999999829e+01,5.518968707400169482e-02
5.111999999999999744e+01,4.532187760027427126e-02
5.115999999999999659e+01,5.514153577754894731e-02
5.120000000000000284e+01,5.760754497032657961e-02
5.124000000000000199e+01,2.971123588727069692e-02
5.128000000000000114e+01,5.328757018526696088e-02
5.132000000000000028e+01,3.559025979746426732e-02
5.135999999999999943e+01,2.643189041240004075e-02
5.139999999999999858e+01,3.530057427698739259e-02
5.143999999999999773e+01,3.681561425038253760e-02
5.147999999999999687e+01,4.378596156880901202e-02
5.152000000000000313e+01,3.533777200548659375e-02
5.156000000000000227e+01,3.780055553883047287e-02
5.160000000000000142e+01,2.887725123235625191e-02
5.164000000000000057e+01,3.466016627952814289e-02
5.167999999999999972e+01,3.617307873317198580e-02
5.171999999999999886e+01,3.863445071108801560e-02
5.175999999999999801e+01,4.062106635245586739e-02
5.179999999999999716e+01,2.291950092515066331e-02
5.184000000000000341e+01,2.822625656918782353e-02
5.188000000000000256e+01,2.617937765975795680e-02
5.192000000000000171e+01,2.650417922872524285e-02
5.196000000000000085e+01,2.706583706041714929e-02
5.200000000000000000e+01,1.671582111103360468e-02
5.203999999999999915e+01,1.395594945561554230e-02
5.207999999999999829e+01,2.234426471730801764e-02
5.211999999999999744e+01,1.673727254021794772e-02
5.215999999999999659e+01,1.753441327899202262e-02
5.220000000000000284e+01,3.208897411598707339e-02
5.224000000000000199e+01,3.407144677055629067e-02
5.228000000000000114e+01,1.589134297316037100e-02
5.232000000000000028e+01,2.380320663807566905e-02
5.235999999999999943e+01,3.930522138802939464e-02
5.239999999999999858e+01,1.970088678077454303e-02
5.243999999999999773e+01,3.354180851595580520e-02
5.247999999999999687e+01,3.599666108676955606e-02
5.252000000000000313e+01,3.560474560032621943e-02
5.256000000000000227e+01,2.643599328174158977e-02
5.260000000000000142e+01,2.983865562546543851e-02
5.264000000000000057e+01,2.565049675957002326e-02
5.267999999999999972e+01,1.837837044700313394e-02
5.271999999999999886e+01,1.371514437546646897e-02
5.275999999999999801e+01,1.379564445840073157e-02
5.279999999999999716e+01,2.288952167380326960e-02
5.284000000000000341e+01,3.886195180600141713e-02
5.288000000000000256e+01,2.779293745592510689e-02
5.292000000000000171e+01,2.123044987090552324e-02
5.296000000000000085e+01,2.344414002893982843e-02
5.300000000000000000e+01,2.992715586484829757e-02
5.303999999999999915e+01,3.522383417364834818e-02
5.307999999999999829e+01,1.063263882518577022e-02
5.311999999999999744e+01,2.684000058366200689e-02
5.315999999999999659e+01,2.169879064087020665e-02
5.320000000000000284e+01,1.940369391066875532e-02
5.324000000000000199e+01,2.137792795164622159e-02
5.328000000000000114e+01,1.860778778455902255e-02
5.332000000000000028e+01,3.362753882861059529e-02
5.335999999999999943e+01,1.259214974886936449e-02
5.339999999999999858e+01,3.211812093330507212e-02
5.343999999999999773e+01,3.171874306836596630e-02
5.347999999999999687e+01,2.396576460532469713e-02
5.352000000000000313e+01,2.498897576971501749e-02
5.356000000000000227e+01,9.882084990594572696e-03
5.360000000000000142e+01,2.466243339728878270e-02
5.364000000000000057e+01,2.805673725725496212e-02
5.367999999999999972e+01,3.500877287127320686e-02
5.371999999999999886e+01,2.345868208780981304e-02
5.375999999999999801e+01,2.305681387459002779e-02
5.379999999999999716e+01,2.929631616643407072e-02
5.384000000000000341e+01,2.438698094092147869e-02
5.388000000000000256e+01,3.394670982161503842e-02
5.392000000000000171e+01,3.686445579678396950e-02
5.396000000000000085e+01,2.697294730659349771e-02
5.400000000000000000e+01,1.755554115716852562e-02
5.403999999999999915e+01,3.114650276771241746e-02
5.407999999999999829e+01,2.362611498627376072e-02
5.411999999999999744e+01,2.440752399562706731e-02
5.415999999999999659e+01,2.756066102088815944e-02
5.420000000000000284e+01,1.909056259884821943e-02
5.424000000000000199e+01,2.319191364336570943e-02
5.428000000000000114e+01,2.681856183103461730e-02
5.432000000000000028e+01,3.305414421509854372e-02
5.435999999999999943e+01,2.126201935372824467e-02
5.439999999999999858e+01,3.081785039762878486e-02
5.443999999999999773e+01,3.278289843169536477e-02
5.447999999999999687e+01,2.691996151986138577e-02
5.452000000000000313e+01,2.010792127458220502e-02
5.456000000000000227e+01,3.250901526555369236e-02
5.460000000000000142e+01,2.474758203983911178e-02
5.464000000000000057e+01,3.074362069427685751e-02
5.467999999999999972e+01,2.203279788366345471e-02
5.471999999999999886e+01,2.067497345730091168e-02
5.475999999999999801e+01,3.141420396308786805e-02
5.479999999999999716e+01,1.440042237818595083e-02
5.484000000000000341e+01,2.751110907945722439e-02
5.488000000000000256e+01,1.666402994701961932e-02
5.492000000000000171e+01,2.004883420682450693e-02
5.496000000000000085e+01,1.892650269664847285e-02
5.500000000000000000e+01,3.345927298618766449e-02
5.503999999999999915e+01,2.877833653656901650e-02
5.507999999999999829e+01,2.409711977768564176e-02
5.511999999999999744e+01,2.890373495645080781e-02
5.515999999999999659e+01,4.177496621204440652e-02
5.520000000000000284e+01,2.570717994103665499e-02
5.524000000000000199e+01,2.837813676740827754e-02
5.528000000000000114e+01,2.369553119546325554e-02
5.532000000000000028e+01,2.423111167647423389e-02
5.535999999999999943e+01,2.049676766129621477e-02
5.539999999999999858e+01,2.648746431090638620e-02
5.543999999999999773e+01,2.820823816209589233e-02
5.547999999999999687e+01,2.708230677345306939e-02
5.552000000000000313e+01,3.615582416615222699e-02
5.556000000000000227e+01,3.052249876925098443e-02
5.560000000000000142e+01,3.817226005581937642e-02
5.564000000000000057e+01,3.609643873452086926e-02
5.567999999999999972e+01,3.852720275128340699e-02
5.571999999999999886e+01,4.095770004092706695e-02
5.575999999999999801e+01,3.579744233391275038e-02
5.579999999999999716e+01,4.724111454409894023e-02
5.584000000000000341e+01,3.377823015399220724e-02
5.588000000000000256e+01,3.027759940023381016e-02
5.592000000000000171e+01,4.338090111032820440e-02
5.596000000000000085e+01,4.201457130461416084e-02
5.600000000000000000e+01,5.464294502606313608e-02
5.603999999999999915e+01,4.687161930570360457e-02
5.607999999999999829e+01,4.740213197145794199e-02
5.611999999999999744e+01,5.670888944211163740e-02
5.615999999999999659e+01,5.510406141563833904e-02
5.620000000000000284e+01,5.681981583796598401e-02
5.624000000000000199e+01,5.402846165460453015e-02
5.628000000000000114e+01,7.638034783327921073e-02
5.632000000000000028e+01,7.074205139391090413e-02
5.635999999999999943e+01,7.743804662700776165e-02
5.639999999999999858e+01,6.254833613349944366e-02
5.643999999999999773e+01,7.493669446212035401e-02
5.647999999999999687e+01,8.447836877301212466e-02
5.652000000000000313e+01,1.035079047324966028e-01
5.656000000000000227e+01,9.668208823179937073e-02
5.660000000000000142e+01,9.222805152894134051e-02
5.664000000000000057e+01,9.939670408588496819e-02
5.667999999999999972e+01,9.660259332099814522e-02
5.671999999999999886e+01,9.997550945981442672e-02
5.675999999999999801e+01,9.243685283476564540e-02
5.679999999999999716e+01,9.652088886505495735e-02
5.684000000000000341e+01,8.637251483993713119e-02
5.688000000000000256e+01,8.262837389900971885e-02
5.692000000000000171e+01,8.410245296640316004e-02
5.696000000000000085e+01,7.253013844979541713e-02
5.700000000000000000e+01,8.254303780087722531e-02
5.703999999999999915e+01,7.595150349146508051e-02
5.707999999999999829e+01,7.528980094076248575e-02
5.711999999999999744e+01,7.249303630932875386e-02
5.715999999999999659e+01,6.115673525237841357e-02
5.720000000000000284e+01,5.788509356534648348e-02
5.724000000000000199e+01,5.247839234423574972e-02
5.728000000000000114e+01,5.821998839517129182e-02
5.732000000000000028e+01,6.064051268504255104e-02
5.735999999999999943e+01,4.811702960014806879e-02
5.739999999999999858e+01,5.385792988247405100e-02
5.743999999999999773e+01,4.014797157373859587e-02
5.747999999999999687e+01,4.968365681395706807e-02
5.752000000000000313e+01,4.617296035455217829e-02
5.756000000000000227e+01,3.602035823807755305e-02
5.760000000000000142e+01,5.290864677642091729e-02
5.764000000000000057e+01,4.844845868851770099e-02
5.767999999999999972e+01,3.189070343633040872e-02
5.771999999999999886e+01,4.925272214918460095e-02
5.775999999999999801e+01,4.645228070719815971e-02
5.779999999999999716e+01,4.507483338977161941e-02
5.784000000000000341e+01,3.183702508854815982e-02
5.788000000000000256e+01,3.496598806154871397e-02
5.792000000000000171e+01,4.497361175962836383e-02
5.796000000000000085e+01,3.695360461184443723e-02
5.800000000000000000e+01,3.130540697284390356e-02
5.803999999999999915e+01,3.301027817547617926e-02
5.807999999999999829e+01,3.329171602544842706e-02
5.811999999999999744e+01,4.163783276967392144e-02
5.815999999999999659e+01,2.887268670809702009e-02
5.820000000000000284e+01,3.721837441083175602e-02
5.824000000000000199e+01,3.749895417782243834e-02
5.828000000000000114e+01,3.256086027736199151e-02
5.832000000000000028e+01,3.046898824665940017e-02
5.835999999999999943e+01,4.166026147243074435e-02
5.839999999999999858e+01,3.434950762016249215e-02
5.843999999999999773e+01,4.340553692649596479e-02
5.847999999999999687e+01,3.846639376662194798e-02
5.852000000000000313e+01,3.423865165636973823e-02
5.856000000000000227e+01,3.522916435868732321e-02
5.860000000000000142e+01,4.025191879770530223e-02
5.864000000000000057e+01,4.171642670388423652e-02
5.867999999999999972e+01,3.298101094748791262e-02
5.871999999999999886e+01,3.705434251762126235e-02
5.875999999999999801e+01,4.373670251028694000e-02
5.879999999999999716e+01,3.476347733316300509e-02
5.884000000000000341e+01,3.409214911515716373e-02
5.888000000000000256e+01,3.057418781246936529e-02
5.892000000000000171e+01,3.085127225260399925e-02
5.896000000000000085e+01,3.231417264998723282e-02
5.900000000000000000e+01,4.729743467094123244e-02
5.903999999999999915e+01,3.405336901302154912e-02
5.907999999999999829e+01,4.761302263368160509e-02
5.911999999999999744e+01,4.006143382175829382e-02
5.915999999999999659e+01,4.674181838379420223e-02
5.920000000000000284e+01,2.922732600665540678e-02
5.924000000000000199e+01,4.515823428225333031e-02
5.928000000000000114e+01,4.234993137031146937e-02
5.932000000000000028e+01,4.262507433518115257e-02
5.935999999999999943e+01,4.503485288594354791e-02
5.939999999999999858e+01,3.653311469919275078e-02
5.943999999999999773e+01,5.246307558147140365e-02
5.947999999999999687e+01,3.565886520853795566e-02
5.952000000000000313e+01,4.494677509705742591e-02
5.956000000000000227e+01,3.763030480478253559e-02
5.960000000000000142e+01,3.244847519170513533e-02
5.964000000000000057e+01,2.442002862274404024e-02
5.967999999999999972e+01,4.675335583988533134e-02
5.971999999999999886e+01,4.109657259413380948e-02
5.975999999999999801e+01,3.520240557360895112e-02
5.979999999999999716e+01,3.927057538007624332e-02
5.984000000000000341e+01,3.290164335665701073e-02
5.988000000000000256e+01,3.602064428809673841e-02
5.992000000000000171e+01,4.815317345337800231e-02
5.996000000000000085e+01,4.818818384076999778e-02
