2.003999999999999915e+01,1.519898631912054536e-02
2.007999999999999829e+01,3.182503190466064169e-02
2.012000000000000099e+01,4.356006132406200354e-02
2.016000000000000014e+01,4.860253013851616177e-02
2.019999999999999929e+01,6.007798480317850381e-02
2.023999999999999844e+01,6.640506270731719174e-02
2.028000000000000114e+01,4.545049215997659653e-02
2.032000000000000028e+01,5.666527411485741683e-02
2.035999999999999943e+01,4.831931872915719989e-02
2.039999999999999858e+01,5.644353607120194266e-02
2.044000000000000128e+01,2.570474539274713102e-02
2.048000000000000043e+01,1.709812946411115239e-02
2.051999999999999957e+01,4.632287110148246290e-02
2.055999999999999872e+01,4.955278956521632500e-02
2.060000000000000142e+01,3.528088586061627063e-02
2.064000000000000057e+01,3.439079733394797417e-02
2.067999999999999972e+01,5.383134317389703938e-02
2.071999999999999886e+01,5.345379716229649997e-02
2.076000000000000156e+01,2.373570577723866162e-02
2.080000000000000071e+01,4.188616086353210560e-02
2.083999999999999986e+01,5.746189075888977205e-02
2.087999999999999901e+01,6.994816920500923629e-02
2.092000000000000171e+01,5.000554270005051760e-02
2.096000000000000085e+01,4.987883038682983800e-02
2.100000000000000000e+01,2.401466968901714433e-02
2.103999999999999915e+01,5.862987971502663792e-02
2.107999999999999829e+01,3.482246159916860956e-02
2.112000000000000099e+01,5.167741625500828911e-02
2.116000000000000014e+01,5.206001748157988024e-02
2.119999999999999929e+01,4.034544810653854091e-02
2.123999999999999844e+01,4.638789093173786848e-02
2.128000000000000114e+01,4.290680154416192521e-02
2.132000000000000028e+01,4.071145367404158805e-02
2.135999999999999943e+01,3.877239379086810239e-02
2.139999999999999858e+01,4.429580471943029424e-02
2.144000000000000128e+01,3.386159658825714514e-02
2.148000000000000043e+01,3.629449765479043216e-02
2.151999999999999957e+01,3.152014531689867338e-02
2.155999999999999872e+01,7.152599508129521555e-02
2.160000000000000142e+01,5.285186624847112297e-02
2.164000000000000057e+01,2.285266887528527788e-02
2.167999999999999972e+01,4.741349481801374749e-02
2.171999999999999886e+01,3.825861790722574762e-02
2.176000000000000156e+01,5.072122091897358215e-02
2.180000000000000071e+01,3.873321400472121145e-02
2.183999999999999986e+01,5.428205267118175331e-02
2.187999999999999901e+01,7.497710159129659935e-02
2.192000000000000171e+01,5.191927091939652072e-02
2.196000000000000085e+01,3.349292525675243160e-02
2.200000000000000000e+01,4.517706559146681539e-02
2.203999999999999915e+01,4.836714752199108847e-02
2.207999999999999829e+01,4.048953570119868256e-02
2.212000000000000099e+01,3.466977658424761494e-02
2.216000000000000014e+01,5.072487116497380322e-02
2.219999999999999929e+01,3.846891141719283036e-02
2.223999999999999844e+01,4.062426194790932227e-02
2.228000000000000114e+01,4.149174196874317461e-02
2.232000000000000028e+01,4.287289794631930079e-02
2.235999999999999943e+01,3.473054908652379452e-02
2.239999999999999858e+01,7.008160544048207263e-02
2.244000000000000128e+01,4.237752267544910717e-02
2.248000000000000043e+01,3.809248353594210657e-02
2.251999999999999957e+01,3.843894360034475627e-02
2.255999999999999872e+01,2.951926753299820641e-02
2.260000000000000142e+01,6.074727447958535448e-02
2.264000000000000057e+01,4.719296554001459199e-02
2.267999999999999972e+01,3.981434167658685908e-02
2.271999999999999886e+01,4.478813116967855085e-02
2.276000000000000156e+01,4.023842596443716335e-02
2.280000000000000071e+01,4.263649978535955648e-02
2.283999999999999986e+01,5.275444455465844867e-02
2.287999999999999901e+01,3.919389768166975374e-02
2.292000000000000171e+01,2.614704197398099589e-02
2.296000000000000085e+01,5.093160568043324232e-02
2.300000000000000000e+01,5.667022623616368993e-02
2.303999999999999915e+01,1.814126831698075967e-02
2.307999999999999829e+01,2.490727830063784592e-02
2.312000000000000099e+01,5.869543903772461713e-02
2.316000000000000014e+01,4.667184252499129160e-02
2.319999999999999929e+01,4.983167153275659678e-02
2.323999999999999844e+01,3.960756346748964263e-02
2.328000000000000114e+01,3.530179205082027011e-02
2.332000000000000028e+01,1.452372195569010330e-02
2.335999999999999943e+01,3.131971777763627174e-02
2.339999999999999858e+01,3.807750785150482153e-02
2.344000000000000128e+01,3.840018409664146259e-02
2.348000000000000043e+01,5.030320205416156237e-02
2.351999999999999957e+01,3.904247186406147735e-02
2.355999999999999872e+01,2.392026724797127052e-02
2.360000000000000142e+01,3.298922555502386417e-02
2.364000000000000057e+01,4.797652963580859020e-02
2.367999999999999972e+01,4.057218053289764897e-02
2.371999999999999886e+01,4.268927013696879186e-02
2.376000000000000156e+01,2.910616312383042942e-02
2.380000000000000071e+01,3.559640592570559314e-02
2.383999999999999986e+01,4.671818139031692907e-02
2.387999999999999901e+01,5.423585417627213578e-02
2.392000000000000171e+01,3.472933441210031280e-02
2.396000000000000085e+01,4.610544123488410917e-02
2.400000000000000000e+01,6.779903013871107706e-03
2.403999999999999915e+01,5.135390244484267647e-02
2.407999999999999829e+01,2.901234978533514391e-02
2.412000000000000099e+01,3.884024594891349880e-02
2.416000000000000014e+01,1.907031928475770577e-02
2.419999999999999929e+01,4.022020709899831736e-02
2.423999999999999844e+01,4.412572864625725899e-02
2.428000000000000114e+01,4.108143038455886603e-02
2.432000000000000028e+01,5.708104057421202471e-02
2.435999999999999943e+01,4.811537845550450943e-02
2.439999999999999858e+01,5.819362681595587755e-02
2.444000000000000128e+01,5.282905943166616575e-02
2.448000000000000043e+01,4.720613184661659467e-02
2.451999999999999957e+01,2.639775418073659480e-02
2.455999999999999872e+01,3.672938194647286381e-02
2.460000000000000142e+01,3.625074347293716359e-02
2.464000000000000057e+01,2.290293068520971378e-02
2.467999999999999972e+01,5.176176272323960298e-02
2.471999999999999886e+01,3.352205887318374100e-02
2.476000000000000156e+01,4.333400189102727673e-02
2.480000000000000071e+01,3.049695647837945972e-02
2.483999999999999986e+01,3.593174178952377590e-02
2.487999999999999901e+01,3.415935886416564954e-02
2.492000000000000171e+01,3.135653598268126063e-02
2.496000000000000085e+01,4.373718323346423992e-02
2.500000000000000000e+01,3.063784712614176300e-02
2.503999999999999915e+01,3.889871044536706568e-02
2.507999999999999829e+01,2.734159242856123648e-02
2.512000000000000099e+01,2.221758497213559280e-02
2.516000000000000014e+01,4.257159816161743687e-02
2.519999999999999929e+01,3.590145124589500664e-02
2.523999999999999844e+01,5.470932700388760755e-02
2.528000000000000114e+01,4.005895378190832412e-02
2.532000000000000028e+01,3.801842345630095793e-02
2.535999999999999943e+01,2.310873706677059672e-02
2.539999999999999858e+01,5.066307738936988436e-02
2.544000000000000128e+01,2.442744553547425423e-02
2.548000000000000043e+01,2.161093334989252351e-02
2.551999999999999957e+01,3.269108731071686952e-02
2.555999999999999872e+01,1.932072665250205920e-02
2.560000000000000142e+01,3.503148869857889564e-02
2.564000000000000057e+01,2.320337452018769384e-02
2.567999999999999972e+01,4.843465779308946811e-02
2.571999999999999886e+01,3.892088505844662483e-02
2.576000000000000156e+01,4.716423909517825086e-02
2.580000000000000071e+01,2.272144824099671043e-02
2.583999999999999986e+01,2.041096799974867829e-02
2.587999999999999901e+01,3.508552666327759140e-02
2.592000000000000171e+01,1.424294348047179699e-02
2.596000000000000085e+01,4.744576482908503118e-02
2.600000000000000000e+01,6.366162815858843194e-02
2.603999999999999915e+01,3.612471632817237238e-02
2.607999999999999829e+01,3.149221210242165309e-02
2.612000000000000099e+01,3.689593469008940058e-02
2.616000000000000014e+01,5.001961238015236594e-02
2.619999999999999929e+01,3.997960985415242863e-02
2.623999999999999844e+01,4.126265536379744581e-02
2.628000000000000114e+01,3.945638630122258461e-02
2.632000000000000028e+01,1.628798551701729491e-02
2.635999999999999943e+01,3.249527214539731784e-02
2.639999999999999858e+01,2.373733817451261982e-02
2.644000000000000128e+01,4.097218456666414099e-02
2.648000000000000043e+01,3.941853965383089464e-02
2.651999999999999957e+01,3.940813170205478833e-02
2.655999999999999872e+01,2.704332537567708666e-02
2.660000000000000142e+01,3.706821256250864005e-02
2.664000000000000057e+01,4.477588521056383164e-02
2.667999999999999972e+01,4.476170797558300107e-02
2.671999999999999886e+01,2.853268188007074269e-02
2.676000000000000156e+01,5.167935333618223215e-02
2.680000000000000071e+01,1.511672345815991310e-02
2.683999999999999986e+01,3.002588405641071212e-02
2.687999999999999901e+01,3.669847256893896126e-02
2.692000000000000171e+01,4.697321727038691885e-02
2.696000000000000085e+01,4.360675555575643791e-02
2.700000000000000000e+01,1.192936118107959000e-02
2.703999999999999915e+01,3.532685325763725709e-02
2.707999999999999829e+01,2.989868742975002047e-02
2.712000000000000099e+01,3.836722830442249738e-02
2.716000000000000014e+01,3.113565874371162015e-02
2.719999999999999929e+01,3.136670701079261742e-02
2.723999999999999844e+01,4.446501047773282478e-02
2.728000000000000114e+01,6.604388404887948788e-03
2.732000000000000028e+01,2.201711442788344131e-02
2.735999999999999943e+01,3.099482598472328918e-02
2.739999999999999858e+01,2.941970591166322493e-02
2.744000000000000128e+01,5.949939154350166598e-02
2.748000000000000043e+01,3.964961124948609278e-02
2.751999999999999957e+01,4.296163869677738917e-02
2.755999999999999872e+01,2.799992948669343187e-02
2.760000000000000142e+01,3.928839367896010126e-02
2.764000000000000057e+01,1.789075961989017652e-02
2.767999999999999972e+01,3.046421007406910700e-02
2.771999999999999886e+01,3.222747337347573598e-02
2.776000000000000156e+01,3.733555051767963040e-02
2.780000000000000071e+01,2.314044254351941762e-02
2.783999999999999986e+01,2.798933224424824187e-02
2.787999999999999901e+01,3.875667519251622256e-02
2.792000000000000171e+01,4.514792695810668222e-02
2.796000000000000085e+01,2.580190675837263498e-02
2.800000000000000000e+01,5.200834280775382817e-02
2.803999999999999915e+01,3.446205439240717511e-02
2.807999999999999829e+01,3.106986064941542891e-02
2.812000000000000099e+01,3.488294441790088657e-02
2.816000000000000014e+01,3.354785217882263332e-02
2.819999999999999929e+01,5.022731219535600533e-02
2.823999999999999844e+01,2.006568918344454541e-02
2.828000000000000114e+01,3.159607497642981377e-02
2.832000000000000028e+01,2.330856155959482728e-02
2.835999999999999943e+01,2.093951355714503831e-02
2.839999999999999858e+01,4.096020469357718186e-02
2.844000000000000128e+01,2.134599968196829872e-02
2.848000000000000043e+01,1.897426311498879442e-02
2.851999999999999957e+01,2.715354146786417774e-02
2.855999999999999872e+01,3.481719940206841335e-02
2.860000000000000142e+01,3.810478338996011599e-02
2.864000000000000057e+01,2.852329445404369612e-02
2.867999999999999972e+01,2.074246086609492223e-02
2.871999999999999886e+01,3.766764725318597767e-02
2.876000000000000156e+01,3.271603649457480167e-02
2.880000000000000071e+01,2.647672049240656217e-02
2.883999999999999986e+01,4.442870023478379116e-02
2.887999999999999901e+01,3.304034042618270162e-02
2.892000000000000171e+01,2.911464204323856511e-02
2.896000000000000085e+01,3.779887882191560605e-02
2.900000000000000000e+01,1.997377908845916067e-02
2.903999999999999915e+01,5.439261650429608880e-02
2.907999999999999829e+01,1.906502857050042243e-02
2.912000000000000099e+01,2.851783436681833844e-02
2.916000000000000014e+01,4.388912585559810037e-02
2.919999999999999929e+01,1.550772228286143375e-02
2.923999999999999844e+01,2.521526094327146764e-02
2.928000000000000114e+01,1.870801563299550815e-02
2.932000000000000028e+01,3.845098732293508043e-02
2.935999999999999943e+01,1.650017709579786399e-02
2.939999999999999858e+01,2.620422225484711140e-02
2.944000000000000128e+01,4.388566929250927590e-02
2.948000000000000043e+01,3.917561016253221645e-02
2.951999999999999957e+01,2.185386405073438607e-02
2.955999999999999872e+01,2.975288647816324780e-02
2.960000000000000142e+01,1.963558759341568760e-02
2.964000000000000057e+01,2.779024110092082403e-02
2.967999999999999972e+01,2.745102985986885499e-02
2.971999999999999886e+01,4.332486395005317320e-02
2.976000000000000156e+01,5.224901713610620446e-02
2.980000000000000071e+01,2.848712682163005022e-02
2.983999999999999986e+01,2.840183032708919544e-02
2.987999999999999901e+01,2.599940141998291140e-02
2.992000000000000171e+01,4.315575018297120730e-02
2.996000000000000085e+01,2.917024131766386003e-02
3.000000000000000000e+01,3.088305760871364394e-02
3.003999999999999915e+01,2.976401827060730018e-02
3.007999999999999829e+01,2.401157886452739629e-02
3.012000000000000099e+01,5.917910399461177168e-02
3.016000000000000014e+01,3.180641296135161555e-02
3.019999999999999929e+01,3.068396123419147442e-02
3.023999999999999844e+01,2.441338622246712331e-02
3.028000000000000114e+01,3.770159800597212840e-02
3.032000000000000028e+01,4.095177944676325205e-02
3.035999999999999943e+01,4.857629518051336664e-02
3.039999999999999858e+01,1.502178263089236701e-02
3.044000000000000128e+01,3.139496999227192608e-02
3.048000000000000043e+01,1.533949472559054464e-02
3.051999999999999957e+01,4.921172139771738674e-02
3.055999999999999872e+01,2.105846931774421615e-02
3.060000000000000142e+01,3.691355757401757615e-02
3.064000000000000057e+01,2.522989634380256099e-02
3.067999999999999972e+01,3.928175931432774382e-02
3.071999999999999886e+01,4.226614753676529584e-02
3.076000000000000156e+01,3.727142565825558584e-02
3.080000000000000071e+01,3.562159468123485967e-02
3.083999999999999986e+01,4.580965561100656946e-02
3.087999999999999901e+01,5.136433675088165896e-02
3.092000000000000171e+01,4.610891184829143952e-02
3.096000000000000085e+01,2.283720010625532246e-02
3.100000000000000000e+01,5.875829336958207638e-02
3.103999999999999915e+01,4.217637458346640278e-02
3.107999999999999829e+01,6.780126284772221290e-02
3.112000000000000099e+01,9.754314103300691652e-02
3.116000000000000014e+01,6.345801022202782193e-02
3.119999999999999929e+01,5.896887133408398179e-02
3.123999999999999844e+01,6.914863448910422983e-02
3.128000000000000114e+01,9.116630070385919882e-02
3.132000000000000028e+01,1.139552346398229610e-01
3.135999999999999943e+01,1.092054373395676264e-01
3.139999999999999858e+01,1.348237279401757194e-01
3.144000000000000128e+01,1.733093802005459538e-01
3.148000000000000043e+01,1.731896679139787454e-01
3.151999999999999957e+01,1.792458647763030266e-01
3.155999999999999872e+01,2.213321535893723879e-01
3.160000000000000142e+01,2.353649899774395982e-01
3.164000000000000057e+01,2.751333748999390538e-01
3.167999999999999972e+01,3.048637639524551246e-01
3.171999999999999886e+01,3.098864308910197485e-01
3.176000000000000156e+01,3.429609221306551547e-01
3.180000000000000071e+01,3.711446932640792840e-01
3.183999999999999986e+01,3.715323816920270694e-01
3.187999999999999901e+01,3.546758975086263810e-01
3.192000000000000171e+01,3.321566053524167561e-01
3.196000000000000085e+01,2.957388698820052619e-01
3.200000000000000000e+01,2.956086011513844314e-01
3.203999999999999915e+01,2.874992547647386987e-01
3.207999999999999829e+01,2.621457408362636299e-01
3.211999999999999744e+01,2.576378785231094870e-01
3.215999999999999659e+01,2.155541234437953202e-01
3.220000000000000284e+01,1.750137492998834199e-01
3.224000000000000199e+01,1.751360297929362986e-01
3.228000000000000114e+01,1.554405114526487552e-01
3.232000000000000028e+01,1.444945589003595043e-01
3.235999999999999943e+01,1.299447186170277491e-01
3.239999999999999858e+01,1.156514461581022168e-01
3.243999999999999773e+01,1.250348334228616465e-01
3.247999999999999687e+01,1.261817905484354518e-01
3.252000000000000313e+01,1.054520458352678491e-01
3.256000000000000227e+01,1.174066911511021521e-01
3.260000000000000142e+01,8.921181849268852715e-02
3.264000000000000057e+01,9.807651970483573234e-02
3.267999999999999972e+01,7.837306859517828572e-02
3.271999999999999886e+01,8.440519339535672294e-02
3.275999999999999801e+01,7.010480425683476846e-02
3.279999999999999716e+01,7.407644760896878178e-02
3.284000000000000341e+01,6.003185177513729875e-02
3.288000000000000256e+01,7.403910863168403078e-02
3.292000000000000171e+01,6.616967378852765813e-02
3.296000000000000085e+01,7.142500276958235750e-02
3.300000000000000000e+01,1.325274601818526021e-01
3.303999999999999915e+01,3.084133197068331111e-01
3.307999999999999829e+01,2.475238554417070191e-01
3.311999999999999744e+01,6.309906828570548132e-02
3.315999999999999659e+01,6.140168621532205578e-02
3.320000000000000284e+01,7.025543769154247997e-02
3.324000000000000199e+01,4.179068741310956042e-02
3.328000000000000114e+01,5.501807267755304265e-02
3.332000000000000028e+01,4.636877638133191093e-02
3.335999999999999943e+01,7.555116311424973918e-02
3.339999999999999858e+01,7.565068850342608620e-02
3.343999999999999773e+01,5.155726264872208947e-02
3.347999999999999687e+01,5.268470469582074711e-02
3.352000000000000313e+01,6.719428839788711694e-02
3.356000000000000227e+01,8.556356023301349423e-02
3.360000000000000142e+01,8.540188487414117346e-02
3.364000000000000057e+01,5.898835425208363153e-02
3.367999999999999972e+01,8.250260566723753575e-02
3.371999999999999886e+01,8.027973111921986316e-02
3.375999999999999801e+01,8.912273158466577083e-02
3.379999999999999716e+01,7.608906265629300503e-02
3.384000000000000341e+01,9.265145256860876644e-02
3.388000000000000256e+01,1.007200841922704371e-01
3.392000000000000171e+01,1.213987767016291852e-01
3.396000000000000085e+01,1.284364402280811224e-01
3.400000000000000000e+01,1.444810757625956121e-01
3.403999999999999915e+01,1.533187752445863972e-01
3.407999999999999829e+01,1.636999033154598326e-01
3.411999999999999744e+01,1.799996428028713125e-01
3.415999999999999659e+01,1.988722674513849764e-01
3.420000000000000284e+01,2.118247782835055992e-01
3.424000000000000199e+01,2.090773581412221083e-01
3.428000000000000114e+01,2.230578261874184842e-01
3.432000000000000028e+01,2.375522743615085530e-01
3.435999999999999943e+01,2.203902491645190476e-01
3.439999999999999858e+01,2.199561151977209306e-01
3.443999999999999773e+01,2.313599643890607571e-01
3.447999999999999687e+01,2.383878886779524364e-01
3.452000000000000313e+01,2.477313436169778504e-01
3.456000000000000227e+01,2.210431484406917557e-01
3.460000000000000142e+01,2.092813041113951167e-01
3.464000000000000057e+01,2.039528116515922362e-01
3.467999999999999972e+01,1.767476721038551135e-01
3.471999999999999886e+01,1.719324318918065142e-01
3.475999999999999801e+01,1.648001829634606064e-01
3.479999999999999716e+01,1.491741990662488193e-01
3.484000000000000341e+01,1.698357538960000301e-01
3.488000000000000256e+01,1.506052121801248478e-01
3.492000000000000171e+01,1.408963930643065687e-01
3.496000000000000085e+01,1.350472975681827337e-01
3.500000000000000000e+01,1.284253812558026620e-01
3.503999999999999915e+01,1.318399178573968766e-01
3.507999999999999829e+01,1.041127266103867716e-01
3.511999999999999744e+01,1.070110811933999428e-01
3.515999999999999659e+01,1.114528917406994724e-01
3.520000000000000284e+01,1.277327047103099245e-01
3.524000000000000199e+01,1.229079756949488927e-01
3.528000000000000114e+01,1.121631602385982501e-01
3.532000000000000028e+01,1.014176229855311973e-01
3.535999999999999943e+01,1.125472740184079584e-01
3.539999999999999858e+01,1.272792961878182472e-01
3.543999999999999773e+01,1.283703268887637639e-01
3.547999999999999687e+01,1.297180034847112695e-01
3.552000000000000313e+01,1.647795996829567178e-01
3.556000000000000227e+01,1.566033893026020085e-01
3.560000000000000142e+01,1.618093733002145818e-01
3.564000000000000057e+01,1.546611890793967714e-01
3.567999999999999972e+01,1.644982921697960843e-01
3.571999999999999886e+01,1.748494108747234432e-01
3.575999999999999801e+01,1.998695461937485818e-01
3.579999999999999716e+01,1.950347900949533086e-01
3.584000000000000341e+01,2.303480526122623218e-01
3.588000000000000256e+01,2.520203348140486188e-01
3.592000000000000171e+01,2.492423649978896816e-01
3.596000000000000085e+01,2.961348713753578776e-01
3.600000000000000000e+01,3.142019459489370781e-01
3.603999999999999915e+01,3.260915897095963967e-01
3.607999999999999829e+01,3.284580764019007781e-01
3.611999999999999744e+01,3.418904979279952516e-01
3.615999999999999659e+01,3.661314916656804863e-01
3.620000000000000284e+01,4.032399677176847774e-01
3.624000000000000199e+01,3.561898362870743462e-01
3.628000000000000114e+01,3.799140073217691649e-01
3.632000000000000028e+01,3.933429364632229919e-01
3.635999999999999943e+01,3.861820792812188374e-01
3.639999999999999858e+01,3.625492549673088316e-01
3.643999999999999773e+01,3.530707372316558290e-01
3.647999999999999687e+01,3.276349816641106472e-01
3.652000000000000313e+01,3.341116255937383595e-01
3.656000000000000227e+01,3.032698519227310374e-01
3.660000000000000142e+01,2.762878434414755557e-01
3.664000000000000057e+01,2.482756920779181919e-01
3.667999999999999972e+01,2.627278533473726974e-01
3.671999999999999886e+01,2.205593283640815139e-01
3.675999999999999801e+01,1.881699362565266986e-01
3.679999999999999716e+01,1.848619507463382383e-01
3.684000000000000341e+01,1.558169183574776573e-01
3.688000000000000256e+01,1.347494764333439510e-01
3.692000000000000171e+01,1.280937168904162371e-01
3.696000000000000085e+01,1.317318225649501406e-01
3.700000000000000000e+01,1.387149762960679655e-01
3.703999999999999915e+01,1.130122700432513727e-01
3.707999999999999829e+01,1.078979774937285918e-01
3.711999999999999744e+01,9.403264514565962129e-02
3.715999999999999659e+01,8.660072854302608425e-02
3.720000000000000284e+01,7.324877416678729491e-02
3.724000000000000199e+01,6.452869211107049863e-02
3.728000000000000114e+01,9.441248335537788527e-02
3.732000000000000028e+01,5.557951265865533619e-02
3.735999999999999943e+01,5.612250819807371172e-02
3.739999999999999858e+01,8.935001644885834371e-02
3.743999999999999773e+01,6.003749306679694725e-02
3.747999999999999687e+01,4.771030262162546942e-02
3.752000000000000313e+01,6.806762792953185981e-02
3.756000000000000227e+01,5.265074280101736393e-02
3.760000000000000142e+01,3.234328458234799614e-02
3.764000000000000057e+01,5.604434514700067788e-02
3.767999999999999972e+01,3.805183468657471341e-02
3.771999999999999886e+01,3.318420870491644442e-02
3.775999999999999801e+01,3.629419549386942584e-02
3.779999999999999716e+01,2.910897790402331223e-02
3.784000000000000341e+01,2.192310239340255693e-02
3.788000000000000256e+01,5.437056993577552705e-02
3.792000000000000171e+01,3.946247254222665785e-02
3.796000000000000085e+01,3.150253844439607209e-02
3.800000000000000000e+01,4.464576864185360733e-02
3.803999999999999915e+01,1.892643693650021205e-02
3.807999999999999829e+01,3.721563516741101252e-02
3.811999999999999744e+01,2.796627351185140484e-02
3.815999999999999659e+01,3.081235294358963123e-02
3.820000000000000284e+01,1.924541995791888283e-02
3.824000000000000199e+01,4.087774824780095184e-02
3.828000000000000114e+01,4.243506615381546082e-02
3.832000000000000028e+01,3.369719286178069623e-02
3.835999999999999943e+01,4.400358390134447018e-02
3.839999999999999858e+01,2.883033124058873714e-02
3.843999999999999773e+01,2.086261767850042942e-02
3.847999999999999687e+01,3.734380784788542823e-02
3.852000000000000313e+01,3.220581190020774948e-02
3.856000000000000227e+01,4.688417626195685167e-02
3.860000000000000142e+01,1.858217473790040042e-02
3.864000000000000057e+01,2.888408098659865295e-02
3.867999999999999972e+01,2.889080516238224164e-02
3.871999999999999886e+01,2.658062099834854891e-02
3.875999999999999801e+01,2.452716586943146093e-02
3.879999999999999716e+01,1.217853170931126536e-02
3.884000000000000341e+01,2.350671949748989881e-02
3.888000000000000256e+01,1.630409392697654974e-02
3.892000000000000171e+01,1.553492871366759370e-02
3.896000000000000085e+01,2.892013395455748578e-02
3.900000000000000000e+01,1.708307433978839898e-02
3.903999999999999915e+01,1.631202357378956636e-02
3.907999999999999829e+01,1.399616450141696194e-02
3.911999999999999744e+01,5.245589050617247527e-03
3.915999999999999659e+01,8.847843670814280193e-03
3.920000000000000284e+01,1.116265666245225795e-02
3.924000000000000199e+01,1.707993812539207804e-02
3.928000000000000114e+01,1.527568908500499985e-02
3.932000000000000028e+01,2.325063781019994641e-02
3.935999999999999943e+01,8.319603529797641589e-03
3.939999999999999858e+01,1.346231448690569585e-02
3.943999999999999773e+01,1.706022626277458806e-02
3.947999999999999687e+01,5.987794430054321423e-03
3.952000000000000313e+01,1.936429269030722627e-02
3.956000000000000227e+01,4.944903928524692523e-03
3.960000000000000142e+01,2.115117455399545543e-02
3.964000000000000057e+01,3.452583288723110738e-02
3.967999999999999972e+01,1.572942542639167371e-02
3.971999999999999886e+01,2.344086221686870683e-02
3.975999999999999801e+01,1.056259886571404849e-02
3.979999999999999716e+01,0.000000000000000000e+00
3.984000000000000341e+01,1.671733933562299587e-02
3.988000000000000256e+01,2.211007247103434492e-02
3.992000000000000171e+01,1.926656405337419734e-02
3.996000000000000085e+01,1.513563327132775096e-02
4.000000000000000000e+01,1.074673568321096555e-02
4.003999999999999915e+01,8.673508663957840009e-03
4.007999999999999829e+01,9.945407771884160614e-03
4.011999999999999744e+01,2.073916128736633460e-02
4.015999999999999659e+01,1.325949752518231807e-02
4.020000000000000284e+01,8.095508387477235585e-03
4.024000000000000199e+01,1.322546760734852507e-02
4.028000000000000114e+01,8.060285310458671290e-03
4.032000000000000028e+01,3.532232610381224464e-02
4.035999999999999943e+01,1.497150017327498854e-02
4.039999999999999858e+01,2.112853573041940589e-02
4.043999999999999773e+01,2.625552472612667498e-02
4.047999999999999687e+01,2.623464999665230113e-02
4.052000000000000313e+01,1.617600346994282554e-02
4.056000000000000227e+01,1.512449523152532491e-02
4.060000000000000142e+01,1.819021720934628147e-02
4.064000000000000057e+01,2.048326133135223992e-02
4.067999999999999972e+01,1.942999225041686442e-02
4.071999999999999886e+01,1.605986552485616503e-02
4.075999999999999801e+01,3.482242759836037815e-02
4.079999999999999716e+01,3.453949770835074845e-02
4.084000000000000341e+01,3.477071321256045705e-02
4.088000000000000256e+01,2.084634786702133785e-02
4.092000000000000171e+01,3.548876627873790573e-02
4.096000000000000085e+01,3.365933314358630912e-02
4.100000000000000000e+01,4.469750399121401319e-02
4.103999999999999915e+01,3.720491623095707745e-02
4.107999999999999829e+01,4.206520720908112770e-02
4.111999999999999744e+01,3.791719614293968116e-02
4.115999999999999659e+01,4.046006584872068740e-02
4.120000000000000284e+01,2.756054463546853475e-02
4.124000000000000199e+01,2.830072439672780618e-02
4.128000000000000114e+01,2.131942434985208482e-02
4.132000000000000028e+01,1.279337277521749167e-02
4.135999999999999943e+01,3.540775247181113944e-02
4.139999999999999858e+01,1.941701906961921034e-02
4.143999999999999773e+01,4.100080986903858332e-02
4.147999999999999687e+01,2.706785323071630306e-02
4.152000000000000313e+01,4.762105918857672399e-02
4.156000000000000227e+01,5.504815607746560424e-02
4.160000000000000142e+01,3.802514492275413382e-02
4.164000000000000057e+01,2.280311762085375504e-02
4.167999999999999972e+01,4.129516606244244825e-02
4.171999999999999886e+01,2.015265497206421286e-02
4.175999999999999801e+01,4.327613073320636661e-02
4.179999999999999716e+01,1.647050354606865302e-02
4.184000000000000341e+01,4.525486522679173645e-02
4.188000000000000256e+01,3.491939870336936702e-02
4.192000000000000171e+01,4.800346856273832868e-02
4.196000000000000085e+01,2.119562133746043589e-02
4.200000000000000000e+01,3.942585795543500360e-02
4.203999999999999915e+01,2.445563405524881287e-02
4.207999999999999829e+01,3.933904149604484923e-02
4.211999999999999744e+01,4.032426315421396013e-02
4.215999999999999659e+01,3.590430003505968443e-02
4.220000000000000284e+01,4.975660767396323375e-02
4.224000000000000199e+01,4.636500530261233877e-02
4.228000000000000114e+01,6.870922116411450065e-02
4.232000000000000028e+01,7.072116540993357570e-02
4.235999999999999943e+01,7.479147539493594121e-02
4.239999999999999858e+01,6.444887942243229806e-02
4.243999999999999773e+01,6.826074211376130518e-02
4.247999999999999687e+01,9.343324629371127510e-02
4.252000000000000313e+01,8.694948393896470562e-02
4.256000000000000227e+01,9.513491056196830831e-02
4.260000000000000142e+01,1.048639817353722303e-01
4.264000000000000057e+01,1.099599712066077067e-01
4.267999999999999972e+01,1.248352436113475822e-01
4.271999999999999886e+01,1.281286181669454849e-01
4.275999999999999801e+01,1.311640958758377717e-01
4.279999999999999716e+01,1.679136777175265494e-01
4.284000000000000341e+01,1.997728192904631161e-01
4.288000000000000256e+01,2.033214307231768492e-01
4.292000000000000171e+01,2.372384220610594674e-01
4.296000000000000085e+01,2.636913398108711171e-01
4.300000000000000000e+01,3.187110940409382809e-01
4.303999999999999915e+01,3.696125039800814416e-01
4.307999999999999829e+01,4.272048433585312055e-01
4.311999999999999744e+01,4.950912040956336746e-01
4.315999999999999659e+01,6.080156780791997617e-01
4.320000000000000284e+01,6.882544482200225744e-01
4.324000000000000199e+01,8.143034245434259688e-01
4.328000000000000114e+01,9.877067898799314349e-01
4.332000000000000028e+01,1.000000000000000000e+00
4.335999999999999943e+01,9.345688740149123985e-01
4.339999999999999858e+01,8.585853219614603127e-01
4.343999999999999773e+01,7.560927994151600551e-01
4.347999999999999687e+01,6.229734892122673617e-01
4.352000000000000313e+01,5.135311195844226573e-01
4.356000000000000227e+01,4.218463279151603018e-01
4.360000000000000142e+01,3.463749334017661163e-01
4.364000000000000057e+01,3.120812097601364798e-01
4.367999999999999972e+01,2.623451580615115408e-01
4.371999999999999886e+01,2.393744156406899248e-01
4.375999999999999801e+01,2.205209835345099956e-01
4.379999999999999716e+01,1.913724991351066773e-01
4.384000000000000341e+01,1.508995089119716804e-01
4.388000000000000256e+01,1.500600138274062467e-01
4.392000000000000171e+01,1.281161967750021613e-01
4.396000000000000085e+01,1.138927860122013191e-01
4.400000000000000000e+01,1.207726916302641895e-01
4.403999999999999915e+01,1.008862783279335928e-01
4.407999999999999829e+01,9.978691070934736507e-02
4.411999999999999744e+01,8.401731709501722434e-02
4.415999999999999659e+01,8.085804392576664834e-02
4.420000000000000284e+01,7.280836496049440665e-02
4.424000000000000199e+01,8.611937209561203177e-02
4.428000000000000114e+01,6.520052094677183940e-02
4.432000000000000028e+01,5.534781248200840165e-02
4.435999999999999943e+01,6.634106588714035191e-02
4.439999999999999858e+01,6.523773675488531154e-02
4.443999999999999773e+01,5.512618973238343767e-02
4.447999999999999687e+01,4.861724400258624068e-02
4.452000000000000313e+01,5.188762784587006710e-02
4.456000000000000227e+01,5.258388774319388420e-02
4.460000000000000142e+01,4.401457016978315567e-02
4.464000000000000057e+01,5.526176701918251305e-02
4.467999999999999972e+01,5.621393388124297508e-02
4.471999999999999886e+01,4.455479904494107080e-02
4.475999999999999801e+01,3.675563623477388908e-02
4.479999999999999716e+01,4.491253736148684977e-02
4.484000000000000341e+01,4.354650346478537715e-02
4.488000000000000256e+01,5.298926281071136835e-02
4.492000000000000171e+01,4.235718008080687630e-02
4.496000000000000085e+01,3.790134717148333637e-02
4.500000000000000000e+01,4.142331054936565504e-02
4.503999999999999915e+01,4.597425305357630970e-02
4.507999999999999829e+01,4.125963025389856736e-02
4.511999999999999744e+01,3.860344315276872246e-02
4.515999999999999659e+01,3.697623821967875590e-02
4.520000000000000284e+01,2.737028920492683842e-02
4.524000000000000199e+01,4.375759708801506970e-02
4.528000000000000114e+01,5.551189018658825997e-02
4.532000000000000028e+01,4.925026043719341745e-02
4.535999999999999943e+01,4.350289065315147974e-02
4.539999999999999858e+01,3.157832730968800766e-02
4.543999999999999773e+01,3.663929866997822637e-02
4.547999999999999687e+01,4.169980576512692660e-02
4.552000000000000313e+01,3.723739507322628567e-02
4.556000000000000227e+01,4.203961304370033153e-02
4.560000000000000142e+01,4.606927888243539382e-02
4.564000000000000057e+01,3.491402998156629273e-02
4.567999999999999972e+01,5.206832185640656446e-02
4.571999999999999886e+01,5.583924647217155396e-02
4.575999999999999801e+01,3.644698667085032734e-02
4.579999999999999716e+01,4.973945250070140045e-02
4.584000000000000341e+01,2.777264504443222731e-02
4.588000000000000256e+01,3.849056524714301875e-02
4.592000000000000171e+01,4.895066870155139610e-02
4.596000000000000085e+01,4.396850189148329008e-02
4.600000000000000000e+01,3.821379308871456632e-02
4.603999999999999915e+01,3.220127057935492920e-02
4.607999999999999829e+01,3.802702627415020104e-02
4.611999999999999744e+01,3.767560665979286655e-02
4.615999999999999659e+01,4.452992182754374195e-02
4.620000000000000284e+01,5.086906370821604045e-02
4.624000000000000199e+01,3.661866969967851604e-02
4.628000000000000114e+01,4.861892258658382510e-02
4.632000000000000028e+01,3.642655070664468225e-02
4.635999999999999943e+01,4.199182775855652555e-02
4.639999999999999858e+01,3.777684569320056973e-02
4.643999999999999773e+01,6.135669639552082666e-02
4.647999999999999687e+01,4.555947185653405618e-02
4.652000000000000313e+01,5.086562757435295068e-02
4.656000000000000227e+01,4.973725549985840572e-02
4.660000000000000142e+01,3.599762938048202410e-02
4.664000000000000057e+01,4.850865928168313773e-02
4.667999999999999972e+01,4.274643717154364558e-02
4.671999999999999886e+01,4.805041857971124181e-02
4.675999999999999801e+01,5.335396816766024147e-02
4.679999999999999716e+01,4.398735969142236052e-02
4.684000000000000341e+01,4.594432141130611741e-02
4.688000000000000256e+01,5.073185434981586361e-02
4.692000000000000171e+01,4.393759589908649565e-02
4.696000000000000085e+01,7.188700157156487081e-02
4.700000000000000000e+01,5.016479973936536357e-02
4.703999999999999915e+01,5.031808225303036758e-02
4.707999999999999829e+01,5.639030468807672974e-02
4.711999999999999744e+01,5.345437716443341564e-02
4.715999999999999659e+01,5.412111886505189401e-02
4.720000000000000284e+01,7.331762169781107230e-02
4.724000000000000199e+01,6.214479581704165229e-02
4.728000000000000114e+01,5.766300583548188835e-02
4.732000000000000028e+01,6.810788912233203818e-02
4.735999999999999943e+01,6.079426490641281350e-02
4.739999999999999858e+01,7.098095234774157158e-02
4.743999999999999773e+01,6.392386158631466198e-02
4.747999999999999687e+01,6.304308452141046959e-02
4.752000000000000313e+01,7.966262215546564274e-02
4.756000000000000227e+01,4.866947556832083160e-02
4.760000000000000142e+01,6.425873658758385343e-02
4.764000000000000057e+01,4.922131539625361485e-02
4.767999999999999972e+01,6.918494021450320719e-02
4.771999999999999886e+01,6.366915757202758208e-02
4.775999999999999801e+01,5.043205937383855170e-02
4.779999999999999716e+01,4.337128298340313381e-02
4.784000000000000341e+01,6.770846575272063128e-02
4.788000000000000256e+01,7.325769965560657848e-02
4.792000000000000171e+01,6.387944024751020244e-02
4.796000000000000085e+01,4.034577945064429794e-02
4.800000000000000000e+01,4.409226369149843450e-02
4.803999999999999915e+01,4.552207583212953407e-02
4.807999999999999829e+01,4.746621688357458707e-02
4.811999999999999744e+01,5.249832422076759764e-02
4.815999999999999659e+01,3.668358070003188698e-02
4.820000000000000284e+01,3.785444184241473775e-02
4.824000000000000199e+01,4.365745412887516580e-02
4.828000000000000114e+01,4.740116403463851685e-02
4.832000000000000028e+01,3.158484531860367150e-02
4.835999999999999943e+01,5.308586257344098669e-02
4.839999999999999858e+01,4.215867142913681809e-02
4.843999999999999773e+01,5.079072739240445694e-02
4.847999999999999687e+01,4.166430424221018169e-02
4.852000000000000313e+01,3.691267569731741111e-02
4.856000000000000227e+01,5.661020638766520174e-02
4.860000000000000142e+01,4.954153374265701792e-02
4.864000000000000057e+01,4.504611329194074115e-02
4.867999999999999972e+01,3.746194605515373172e-02
4.871999999999999886e+01,4.763548757054423405e-02
4.875999999999999801e+01,3.438855707553344770e-02
4.879999999999999716e+01,4.945124644073144171e-02
4.884000000000000341e+01,3.311519310414229311e-02
4.888000000000000256e+01,5.280967073866012912e-02
4.892000000000000171e+01,5.114258950721616015e-02
4.896000000000000085e+01,3.274649587356850966e-02
4.900000000000000000e+01,3.288020899773424349e-02
4.903999999999999915e+01,3.790345718015727949e-02
4.907999999999999829e+01,3.211705963245756884e-02
4.911999999999999744e+01,4.022792643442844873e-02
4.915999999999999659e+01,4.473533134496868180e-02
4.920000000000000284e+01,5.747800263872076404e-02
4.924000000000000199e+01,3.470412319207592799e-02
4.928000000000000114e+01,4.770342121947335201e-02
4.932000000000000028e+01,4.989307960017107246e-02
4.935999999999999943e+01,4.101573571196980711e-02
4.939999999999999858e+01,5.375657235385650906e-02
4.943999999999999773e+01,5.594513602685796672e-02
4.947999999999999687e+01,4.552251865605388970e-02
4.952000000000000313e+01,4.925453941006181779e-02
4.956000000000000227e+01,5.015519931998650704e-02
4.960000000000000142e+01,5.517331757451324203e-02
4.964000000000000057e+01,3.985934975775931588e-02
4.967999999999999972e+01,6.726738772886751982e-02
4.971999999999999886e+01,6.224725075966101168e-02
4.975999999999999801e+01,7.112439436258649605e-02
4.979999999999999716e+01,7.099345593837935731e-02
4.984000000000000341e+01,7.395052739778522344e-02
4.988000000000000256e+01,6.892897340227822911e-02
4.992000000000000171e+01,8.526824948150615868e-02
4.996000000000000085e+01,9.517308395024694223e-02
5.000000000000000000e+01,9.298147782813807882e-02
5.003999999999999915e+01,1.229599775388023203e-01
5.007999999999999829e+01,1.269444023368617169e-01
5.011999999999999744e+01,1.208912986746071283e-01
5.015999999999999659e+01,1.320812129928621570e-01
5.020000000000000284e+01,1.569110554000884561e-01
5.024000000000000199e+01,1.567762814947373518e-01
5.028000000000000114e+01,1.780023467892555555e-01
5.032000000000000028e+01,2.133830704866625794e-01
5.035999999999999943e+01,2.155635445579072440e-01
5.039999999999999858e+01,2.252072245211697854e-01
5.043999999999999773e+01,2.240412932270401392e-01
5.047999999999999687e+01,2.280222971278089428e-01
5.052000000000000313e+01,2.302014190625987777e-01
5.056000000000000227e+01,2.300639327731072992e-01
5.060000000000000142e+01,1.825712029552104820e-01
5.064000000000000057e+01,1.906686850640188780e-01
5.067999999999999972e+01,1.611907438441441687e-01
5.071999999999999886e+01,1.435511984412695397e-01
5.075999999999999801e+01,1.354337771443716310e-01
5.079999999999999716e+01,1.147052082624947233e-01
5.084000000000000341e+01,1.037561291505053052e-01
5.088000000000000256e+01,9.743926810024679253e-02
5.092000000000000171e+01,8.674689886201736311e-02
5.096000000000000085e+01,8.454720425487177726e-02
5.100000000000000000e+01,8.543554893455052035e-02
5.103999999999999915e+01,7.834529756252768540e-02
5.107999999999999829e+01,5.709972388623471562e-02
5.111999999999999744e+01,4.563364707715603097e-02
5.115999999999999659e+01,6.273461358471564553e-02
5.120000000000000284e+01,5.744462447442007236e-02
5.124000000000000199e+01,5.138222619282666742e-02
5.128000000000000114e+01,5.947451064781409530e-02
5.132000000000000028e+01,5.160993342923333310e-02
5.135999999999999943e+01,3.628149554238774277e-02
5.139999999999999858e+01,3.948292524758582195e-02
5.143999999999999773e+01,5.426540538394998558e-02
5.147999999999999687e+01,3.764920973618033490e-02
5.152000000000000313e+01,3.493033927231152524e-02
5.156000000000000227e+01,3.040961320396344189e-02
5.160000000000000142e+01,2.331494163673095837e-02
5.164000000000000057e+01,2.677187102577159236e-02
5.167999999999999972e+01,3.717731147954699694e-02
5.171999999999999886e+01,3.625844584864698628e-02
5.175999999999999801e+01,2.967727514124155266e-02
5.179999999999999716e+01,2.927252763197345231e-02
5.184000000000000341e+01,3.581629524305551121e-02
5.188000000000000256e+01,3.257994264169543353e-02
5.192000000000000171e+01,2.676965265268161503e-02
5.196000000000000085e+01,4.103342626698325279e-02
5.200000000000000000e+01,3.882562817187601434e-02
5.203999999999999915e+01,1.937416847295446096e-02
5.207999999999999829e+01,2.282777541619312664e-02
5.211999999999999744e+01,1.341290459717659790e-02
5.215999999999999659e+01,1.892482972893440307e-02
5.220000000000000284e+01,3.009846092566183240e-02
5.224000000000000199e+01,3.097725376287573107e-02
5.228000000000000114e+01,1.898757289344970081e-02
5.232000000000000028e+01,2.861614656909180696e-02
5.235999999999999943e+01,1.456697584957497224e-02
5.239999999999999858e+01,2.316551624734611639e-02
5.243999999999999773e+01,2.507231426056506784e-02
5.247999999999999687e+01,2.723618907791711466e-02
5.252000000000000313e+01,2.476723262734891254e-02
5.256000000000000227e+01,2.281271864482448467e-02
5.260000000000000142e+01,2.188737541645372972e-02
5.264000000000000057e+01,1.143929487591690067e-02
5.267999999999999972e+01,1.488856892249221936e-02
5.271999999999999886e+01,1.885228949272672871e-02
5.275999999999999801e+01,1.123436670368244128e-02
5.279999999999999716e+01,2.626416517096459916e-02
5.284000000000000341e+01,3.434486775662984326e-02
5.288000000000000256e+01,2.518193003046144754e-02
5.292000000000000171e+01,1.498926208085341744e-02
5.296000000000000085e+01,1.457613763803609214e-02
5.300000000000000000e+01,1.030228500245358378e-02
5.303999999999999915e+01,2.533043243728120772e-02
5.307999999999999829e+01,2.157076281317625577e-02
5.311999999999999744e+01,1.523718621853264316e-02
5.315999999999999659e+01,2.177152183343532624e-02
5.320000000000000284e+01,1.955522523913455490e-02
5.324000000000000199e+01,1.605184289652176327e-02
5.328000000000000114e+01,1.203346672780983284e-02
5.332000000000000028e+01,1.136055228844787789e-02
5.335999999999999943e+01,2.046719149491506642e-02
5.339999999999999858e+01,1.876429447287391097e-02
5.343999999999999773e+01,2.684095312446970610e-02
5.347999999999999687e+01,1.767398667278940322e-02
5.352000000000000313e+01,2.369121428071695179e-02
5.356000000000000227e+01,3.022290970428440082e-02
5.360000000000000142e+01,1.719471034136009491e-02
5.364000000000000057e+01,1.446079899379784997e-02
5.367999999999999972e+01,2.021963122278040703e-02
5.371999999999999886e+01,1.902938987603070356e-02
5.375999999999999801e+01,1.680943959782184652e-02
5.379999999999999716e+01,1.587605412698478782e-02
5.384000000000000341e+01,2.266332537999889846e-02
5.388000000000000256e+01,2.610461801833822634e-02
5.392000000000000171e+01,1.410384215906481525e-02
5.396000000000000085e+01,2.655236241205019207e-02
5.400000000000000000e+01,1.249217984280071199e-02
5.403999999999999915e+01,2.725647722736890960e-02
5.407999999999999829e+01,2.940971016707299990e-02
5.411999999999999744e+01,2.512860694228912992e-02
5.415999999999999659e+01,2.007516856118752788e-02
5.420000000000000284e+01,3.097803238436809548e-02
5.424000000000000199e+01,2.463729036844560655e-02
5.428000000000000114e+01,2.061257987115303059e-02
5.432000000000000028e+01,3.331626552816319836e-02
5.435999999999999943e+01,2.774689384336976802e-02
5.439999999999999858e+01,1.960364763296042895e-02
5.443999999999999773e+01,1.737952790223870961e-02
5.447999999999999687e+01,2.313344475393246460e-02
5.452000000000000313e+01,2.090885376355865188e-02
5.456000000000000227e+01,1.739721048369939627e-02
5.460000000000000142e+01,2.675351591392449019e-02
5.464000000000000057e+01,1.732204382746683688e-02
5.467999999999999972e+01,1.638334066514987933e-02
5.471999999999999886e+01,1.981958926322929457e-02
5.475999999999999801e+01,3.689588153531743464e-02
5.479999999999999716e+01,2.386040035780533780e-02
5.484000000000000341e+01,1.803087397953428983e-02
5.488000000000000256e+01,2.841503067801375015e-02
5.492000000000000171e+01,3.159278058177290155e-02
5.496000000000000085e+01,2.807885197692172943e-02
5.500000000000000000e+01,2.353524587163040305e-02
5.503999999999999915e+01,3.237432690157172888e-02
5.507999999999999829e+01,2.525664156490558740e-02
5.511999999999999744e+01,2.354337267208621298e-02
5.515999999999999659e+01,2.182988487885416384e-02
5.520000000000000284e+01,3.452854282088207993e-02
5.524000000000000199e+01,2.329216573272445065e-02
5.528000000000000114e+01,2.286484550219232761e-02
5.532000000000000028e+01,2.604040133230498336e-02
5.535999999999999943e+01,2.406847060946376918e-02
5.539999999999999858e+01,3.187614524154745721e-02
5.543999999999999773e+01,1.497669900465579962e-02
5.547999999999999687e+01,2.561495104160481720e-02
5.552000000000000313e+01,2.364217513422780040e-02
5.556000000000000227e+01,2.810328136805194388e-02
5.560000000000000142e+01,3.977036166528993139e-02
5.564000000000000057e+01,3.496596251836824043e-02
5.567999999999999972e+01,2.938926674347473733e-02
5.571999999999999886e+01,3.719527534017897513e-02
5.575999999999999801e+01,3.753753479804059628e-02
5.579999999999999716e+01,3.324704612809656346e-02
5.584000000000000341e+01,4.722917395741934449e-02
5.588000000000000256e+01,3.393055570967860174e-02
5.592000000000000171e+01,5.074328324975105331e-02
5.596000000000000085e+01,4.362099400990699510e-02
5.600000000000000000e+01,4.885196169457559079e-02
5.603999999999999915e+01,5.485482369302490530e-02
5.607999999999999829e+01,5.133503557503820564e-02
5.611999999999999744e+01,6.505841650923296915e-02
5.615999999999999659e+01,5.690569482185453554e-02
5.620000000000000284e+01,8.092323510844028067e-02
5.624000000000000199e+01,8.177785662074539552e-02
5.628000000000000114e+01,7.671292399157582376e-02
5.632000000000000028e+01,7.885398367608933978e-02
5.635999999999999943e+01,9.463512759076517233e-02
5.639999999999999858e+01,9.240062950883602688e-02
5.643999999999999773e+01,1.097255813152461790e-01
5.647999999999999687e+01,1.090348931528592330e-01
5.652000000000000313e+01,1.237858387289709483e-01
5.656000000000000227e+01,1.197490554557840287e-01
5.660000000000000142e+01,1.332128170377278042e-01
5.664000000000000057e+01,1.219694881678111409e-01
5.667999999999999972e+01,1.243662516392875506e-01
5.671999999999999886e+01,1.308806539302491134e-01
5.675999999999999801e+01,1.286445142494489768e-01
5.679999999999999716e+01,1.171431063385848237e-01
5.684000000000000341e+01,1.200538857330380460e-01
5.688000000000000256e+01,1.327443079968582684e-01
5.692000000000000171e+01,1.191834650895268882e-01
5.696000000000000085e+01,1.025340852742192832e-01
5.700000000000000000e+01,1.057015331780078310e-01
5.703999999999999915e+01,1.065525371099368124e-01
5.707999999999999829e+01,8.681427992059599641e-02
5.711999999999999744e+01,7.659830804794209858e-02
5.715999999999999659e+01,8.002244068352734607e-02
5.720000000000000284e+01,7.315186068367487970e-02
5.724000000000000199e+01,7.914929631156007728e-02
5.728000000000000114e+01,6.713111224872483906e-02
5.732000000000000028e+01,6.695149129702281099e-02
5.735999999999999943e+01,6.291125266807394423e-02
5.739999999999999858e+01,5.346621555916394875e-02
5.743999999999999773e+01,5.328610824206853058e-02
5.747999999999999687e+01,5.516474991980713921e-02
5.752000000000000313e+01,6.244786887562288336e-02
5.756000000000000227e+01,6.355410249878368223e-02
5.760000000000000142e+01,5.616717907826635631e-02
5.764000000000000057e+01,5.315528143312555492e-02
5.767999999999999972e+01,3.727504695836302701e-02
5.771999999999999886e+01,4.507211299451086700e-02
5.775999999999999801e+01,3.845666241222651244e-02
5.779999999999999716e+01,4.831233255777587360e-02
5.784000000000000341e+01,4.246866993218555847e-02
5.788000000000000256e+01,3.765431189605557977e-02
5.792000000000000171e+01,4.390644127130745311e-02
5.796000000000000085e+01,4.166542272801565527e-02
5.800000000000000000e+01,4.714516635457415700e-02
5.803999999999999915e+01,3.949921864054237175e-02
5.807999999999999829e+01,4.497867148233199164e-02
5.811999999999999744e+01,3.810452591964803848e-02
5.815999999999999659e+01,4.461314657669602363e-02
5.820000000000000284e+01,5.472471629546526994e-02
5.824000000000000199e+01,3.112150885492212526e-02
5.828000000000000114e+01,4.689479792222711607e-02
5.832000000000000028e+01,4.748349365744466283e-02
5.835999999999999943e+01,3.957905161315691117e-02
5.839999999999999858e+01,4.377056369150909149e-02
5.843999999999999773e+01,3.560848547661848301e-02
5.847999999999999687e+01,4.597645431475091971e-02
5.852000000000000313e+01,3.807147125707883994e-02
5.856000000000000227e+01,5.178490091347361796e-02
5.860000000000000142e+01,4.490910797694450812e-02
5.864000000000000057e+01,5.012927524647826927e-02
5.867999999999999972e+01,4.196640376178015913e-02
5.871999999999999886e+01,3.457549452242002219e-02
5.875999999999999801e+01,3.413327580877397599e-02
5.879999999999999716e+01,3.883820318202479971e-02
5.884000000000000341e+01,4.071200493688282435e-02
5.888000000000000256e+01,3.460740936519154931e-02
5.892000000000000171e+01,4.368714473012626220e-02
5.896000000000000085e+01,3.397921207999266696e-02
5.900000000000000000e+01,3.636724876105663223e-02
5.903999999999999915e+01,4.107143761530724496e-02
5.907999999999999829e+01,4.629023420392730515e-02
5.911999999999999744e+01,3.297873046919742174e-02
5.915999999999999659e+01,4.308720010981309523e-02
5.920000000000000284e+01,3.852582599643174233e-02
5.924000000000000199e+01,4.322942730053776911e-02
5.928000000000000114e+01,3.223373233404228100e-02
5.932000000000000028e+01,4.054019662085949632e-02
5.935999999999999943e+01,3.675045757032521093e-02
5.939999999999999858e+01,4.145360708458461357e-02
5.943999999999999773e+01,5.027446436379018335e-02
5.947999999999999687e+01,3.541775772271996831e-02
5.952000000000000313e+01,4.295157903771790187e-02
5.956000000000000227e+01,3.607292935995629057e-02
5.960000000000000142e+01,4.129026422194979201e-02
5.964000000000000057e+01,4.367649374362725379e-02
5.967999999999999972e+01,4.631998257212865955e-02
5.971999999999999886e+01,4.947809535746088699e-02
5.975999999999999801e+01,3.796637858344980437e-02
5.979999999999999716e+01,4.704365141011263018e-02
5.984000000000000341e+01,4.453946033847592384e-02
5.988000000000000256e+01,4.229253364318249359e-02
5.992000000000000171e+01,3.412614507166365080e-02
5.996000000000000085e+01,3.573947744010720629e-02
