2.003999999999999915e+01,4.985162013690663113e-02
2.007999999999999829e+01,4.658904555070450537e-02
2.012000000000000099e+01,4.371474408427390712e-02
2.016000000000000014e+01,3.675920322073320673e-02
2.019999999999999929e+01,4.398912505091807229e-02
2.023999999999999844e+01,2.906543128301766754e-02
2.028000000000000114e+01,4.775986177957985274e-02
2.032000000000000028e+01,4.177443012338745432e-02
2.035999999999999943e+01,4.220139536347894404e-02
2.039999999999999858e+01,3.660385353923769486e-02
2.044000000000000128e+01,3.839034122702983387e-02
2.048000000000000043e+01,4.231403942765502718e-02
2.051999999999999957e+01,4.079620969496713240e-02
2.055999999999999872e+01,2.839570640918708325e-02
2.060000000000000142e+01,3.834238144572009455e-02
2.064000000000000057e+01,3.429715651275543759e-02
2.067999999999999972e+01,2.267280984582166134e-02
2.071999999999999886e+01,3.533890697627224686e-02
2.076000000000000156e+01,4.178616822966081668e-02
2.080000000000000071e+01,1.908405213411504958e-02
2.083999999999999986e+01,3.855042819848793906e-02
2.087999999999999901e+01,2.012272850073486274e-02
2.092000000000000171e+01,4.600111330212324628e-02
2.096000000000000085e+01,3.107052254555893109e-02
2.100000000000000000e+01,3.343461554053573509e-02
2.103999999999999915e+01,3.288342350328463809e-02
2.107999999999999829e+01,3.582972466933427580e-02
2.112000000000000099e+01,4.868629727421314168e-02
2.116000000000000014e+01,3.861194219652931692e-02
2.119999999999999929e+01,4.175141062037010520e-02
2.123999999999999844e+01,3.381387472981119136e-02
2.128000000000000114e+01,3.306603661568925656e-02
2.132000000000000028e+01,2.901425852317573301e-02
2.135999999999999943e+01,5.723757321235588801e-03
2.139999999999999858e+01,2.809962403962090738e-02
2.144000000000000128e+01,1.977149654728502584e-02
2.148000000000000043e+01,3.553948160388165772e-02
2.151999999999999957e+01,4.994679167001351422e-02
2.155999999999999872e+01,2.937492114197317455e-02
2.160000000000000142e+01,4.183818697877420695e-02
2.164000000000000057e+01,3.311946179535431301e-02
2.167999999999999972e+01,2.867553264396638033e-02
2.171999999999999886e+01,3.491917776013907238e-02
2.176000000000000156e+01,2.211842395174100709e-02
2.180000000000000071e+01,3.788329301701013480e-02
2.183999999999999986e+01,2.236118557409876029e-02
2.187999999999999901e+01,4.900756395822705724e-02
2.192000000000000171e+01,3.193006162998594799e-02
2.196000000000000085e+01,3.311887031044567081e-02
2.200000000000000000e+01,3.566757376567688403e-02
2.203999999999999915e+01,4.521164374889297816e-02
2.207999999999999829e+01,2.482902210654656244e-02
2.212000000000000099e+01,4.292267903880871843e-02
2.216000000000000014e+01,1.670947393553142910e-02
2.219999999999999929e+01,3.091581312550645624e-02
2.223999999999999844e+01,2.471746412399178014e-02
2.228000000000000114e+01,3.289889177102357093e-02
2.232000000000000028e+01,3.719339348862041317e-02
2.235999999999999943e+01,2.322079911037789809e-02
2.239999999999999858e+01,4.947342118694753044e-02
2.244000000000000128e+01,3.005889317892004864e-02
2.248000000000000043e+01,4.231920983309206408e-02
2.251999999999999957e+01,3.028830417919245455e-02
2.255999999999999872e+01,3.049958064246612727e-02
2.260000000000000142e+01,3.576295401792469603e-02
2.264000000000000057e+01,3.208690738032127232e-02
2.267999999999999972e+01,2.685585206807838618e-02
2.271999999999999886e+01,3.950244989550551200e-02
2.276000000000000156e+01,4.048905429105033316e-02
2.280000000000000071e+01,4.419583493397288149e-02
2.283999999999999986e+01,2.652629062892778930e-02
2.287999999999999901e+01,2.692872510984222964e-02
2.292000000000000171e+01,3.043998834857541622e-02
2.296000000000000085e+01,4.852535071570501790e-02
2.300000000000000000e+01,2.716201144674795440e-02
2.303999999999999915e+01,2.056709743962163370e-02
2.307999999999999829e+01,1.844129756007661242e-02
2.312000000000000099e+01,3.885698727837035710e-02
2.316000000000000014e+01,4.003394292648526642e-02
2.319999999999999929e+01,2.508139019011004084e-02
2.323999999999999844e+01,4.530155665847990232e-02
2.328000000000000114e+01,3.190281840312163275e-02
2.332000000000000028e+01,4.473777431873855043e-02
2.335999999999999943e+01,3.289284957010813609e-02
2.339999999999999858e+01,3.970288030273447927e-02
2.344000000000000128e+01,3.990540559779903740e-02
2.348000000000000043e+01,3.680397776156955902e-02
2.351999999999999957e+01,2.418014469195137878e-02
2.355999999999999872e+01,3.448645178203478545e-02
2.360000000000000142e+01,2.905190129306315858e-02
2.364000000000000057e+01,2.147935642198107661e-02
2.367999999999999972e+01,2.634331346862761949e-02
2.371999999999999886e+01,1.119122655276820304e-02
2.376000000000000156e+01,4.131683994531284293e-02
2.380000000000000071e+01,1.217243153128606467e-02
2.383999999999999986e+01,2.092131135652389173e-02
2.387999999999999901e+01,3.025276802632100373e-02
2.392000000000000171e+01,3.530863578263507274e-02
2.396000000000000085e+01,3.667189424363004324e-02
2.400000000000000000e+01,1.918506676058598023e-02
2.403999999999999915e+01,7.527633903440428959e-03
2.407999999999999829e+01,3.143156837718003027e-02
2.412000000000000099e+01,4.250954141410703130e-02
2.416000000000000014e+01,4.212183911470105541e-02
2.419999999999999929e+01,3.298903392349313707e-02
2.423999999999999844e+01,2.949129551974364466e-02
2.428000000000000114e+01,2.152363938978158267e-02
2.432000000000000028e+01,2.851872734791641509e-02
2.435999999999999943e+01,3.473610288369183979e-02
2.439999999999999858e+01,2.812751527764881243e-02
2.444000000000000128e+01,5.163914743413368369e-02
2.448000000000000043e+01,4.269782728319510001e-02
2.451999999999999957e+01,5.435472199927770393e-02
2.455999999999999872e+01,3.608490998831715563e-02
2.460000000000000142e+01,3.025159429292280724e-02
2.464000000000000057e+01,2.908170984637007198e-02
2.467999999999999972e+01,2.616247792598557290e-02
2.471999999999999886e+01,1.585842629141137258e-02
2.476000000000000156e+01,3.178806005921044897e-02
2.480000000000000071e+01,2.964490949384042742e-02
2.483999999999999986e+01,2.225453130993088752e-02
2.487999999999999901e+01,2.574603477195134757e-02
2.492000000000000171e+01,1.738320502860793079e-02
2.496000000000000085e+01,1.698735713536769429e-02
2.500000000000000000e+01,4.068760035670015984e-02
2.503999999999999915e+01,3.543276703101623515e-02
2.507999999999999829e+01,2.823425717519899986e-02
2.512000000000000099e+01,2.997436129808981817e-02
2.516000000000000014e+01,3.793250646801336889e-02
2.519999999999999929e+01,2.159941301052277149e-02
2.523999999999999844e+01,2.567020341517377291e-02
2.528000000000000114e+01,2.760298945125137446e-02
2.532000000000000028e+01,1.807009308740002013e-02
2.535999999999999943e+01,2.388858771992408148e-02
2.539999999999999858e+01,3.573079531746843618e-02
2.544000000000000128e+01,1.278812531490892274e-02
2.548000000000000043e+01,3.162526597672714324e-02
2.551999999999999957e+01,2.772577902718380283e-02
2.555999999999999872e+01,3.023865730952915096e-02
2.560000000000000142e+01,3.566602140977200019e-02
2.564000000000000057e+01,2.496386226761617561e-02
2.567999999999999972e+01,2.067406762663212896e-02
2.571999999999999886e+01,2.435125020787812233e-02
2.576000000000000156e+01,2.336417943015890036e-02
2.580000000000000071e+01,1.227170967369524412e-02
2.583999999999999986e+01,1.478168840553045760e-02
2.587999999999999901e+01,1.359904615057760946e-02
2.592000000000000171e+01,1.241598845626204831e-02
2.596000000000000085e+01,2.697297134589544607e-02
2.600000000000000000e+01,6.550746604834681124e-03
2.603999999999999915e+01,2.654804277408796820e-02
2.607999999999999829e+01,1.603564309881534353e-02
2.612000000000000099e+01,2.709308165056720577e-02
2.616000000000000014e+01,1.599686855553747802e-02
2.619999999999999929e+01,3.055135223254290197e-02
2.623999999999999844e+01,3.519521717740615487e-03
2.628000000000000114e+01,2.079374306339532019e-02
2.632000000000000028e+01,2.893419536675998285e-02
2.635999999999999943e+01,1.744724087300662113e-02
2.639999999999999858e+01,2.053436456043433722e-02
2.644000000000000128e+01,1.468204509543414964e-02
2.648000000000000043e+01,2.942792856241399635e-02
2.651999999999999957e+01,1.735631929657035361e-02
2.655999999999999872e+01,2.452262613151037079e-02
2.660000000000000142e+01,2.877361407767671866e-02
2.664000000000000057e+01,2.777736344455141587e-02
2.667999999999999972e+01,2.969559205287235215e-02
2.671999999999999886e+01,1.548429084234326583e-02
2.676000000000000156e+01,3.838895360798785100e-02
2.680000000000000071e+01,3.194987586827816028e-02
2.683999999999999986e+01,9.769920820159472968e-03
2.687999999999999901e+01,7.410859785982714353e-03
2.692000000000000171e+01,2.564999900449095940e-02
2.696000000000000085e+01,3.397805880123757477e-02
2.700000000000000000e+01,1.490564308055718733e-02
2.703999999999999915e+01,1.409950743489917641e-02
2.707999999999999829e+01,1.426458238917644068e-02
2.712000000000000099e+01,1.773278714676267825e-02
2.716000000000000014e+01,2.081191567308816187e-02
2.719999999999999929e+01,2.855445985962971889e-02
2.723999999999999844e+01,3.843417339529056620e-02
2.728000000000000114e+01,3.140704721977444214e-02
2.732000000000000028e+01,2.535113018276002883e-02
2.735999999999999943e+01,3.484091858408648601e-02
2.739999999999999858e+01,1.110043041489834452e-02
2.744000000000000128e+01,1.942340994610591148e-02
2.748000000000000043e+01,3.726796894699423157e-02
2.751999999999999957e+01,1.119428651481627589e-02
2.755999999999999872e+01,1.582378470826546757e-02
2.760000000000000142e+01,3.191812784646670675e-02
2.764000000000000057e+01,1.886305198487495116e-02
2.767999999999999972e+01,3.107001064198664994e-02
2.771999999999999886e+01,1.587648939737021023e-02
2.776000000000000156e+01,1.020454591742855389e-02
2.780000000000000071e+01,1.755205912900814971e-02
2.783999999999999986e+01,1.304522135444806386e-02
2.787999999999999901e+01,1.347871244067624019e-03
2.792000000000000171e+01,1.296928798516899621e-02
2.796000000000000085e+01,2.264701065893344467e-02
2.800000000000000000e+01,1.211433668738023592e-02
2.803999999999999915e+01,1.907063021922721091e-02
2.807999999999999829e+01,3.321658012022501300e-02
2.812000000000000099e+01,1.452090230756523243e-02
2.816000000000000014e+01,3.177522022257645018e-02
2.819999999999999929e+01,3.037375323903900026e-02
2.823999999999999844e+01,1.595197311016647093e-02
2.828000000000000114e+01,2.193405833194270529e-02
2.832000000000000028e+01,9.649011165611287577e-03
2.835999999999999943e+01,2.534656706535812210e-02
2.839999999999999858e+01,2.122237712522204861e-02
2.844000000000000128e+01,2.273322839745587839e-02
2.848000000000000043e+01,3.221104008543291403e-02
2.851999999999999957e+01,1.953518575586450298e-02
2.855999999999999872e+01,3.795115920377412078e-02
2.860000000000000142e+01,2.022194946531885931e-02
2.864000000000000057e+01,1.784411075031290886e-02
2.867999999999999972e+01,1.507718654829982505e-02
2.871999999999999886e+01,2.183183426522700490e-02
2.876000000000000156e+01,3.208392841957887626e-02
2.880000000000000071e+01,2.484619374527088573e-02
2.883999999999999986e+01,2.071725178008549176e-02
2.887999999999999901e+01,2.902478006823339812e-02
2.892000000000000171e+01,9.543167906327443620e-03
2.896000000000000085e+01,7.744844266238525878e-03
2.900000000000000000e+01,2.537874848960343724e-02
2.903999999999999915e+01,2.843772173155732427e-02
2.907999999999999829e+01,2.799838112152021330e-02
2.912000000000000099e+01,1.745362131624024135e-02
2.916000000000000014e+01,1.662475737118429900e-02
2.919999999999999929e+01,1.793305084020632711e-02
2.923999999999999844e+01,1.729764244757896197e-02
2.928000000000000114e+01,2.346322987577657143e-02
2.932000000000000028e+01,1.621984434103004163e-02
2.935999999999999943e+01,2.277321248080141705e-02
2.939999999999999858e+01,2.893749074926478884e-02
2.944000000000000128e+01,2.752259394143164936e-02
2.948000000000000043e+01,6.285944717264299077e-03
2.951999999999999957e+01,2.274822252452021396e-02
2.955999999999999872e+01,1.083837612282943959e-02
2.960000000000000142e+01,2.224728634258499663e-02
2.964000000000000057e+01,1.810962882445115926e-02
2.967999999999999972e+01,4.506379226377172503e-02
2.971999999999999886e+01,1.507981729477052280e-02
2.976000000000000156e+01,2.357207437807416067e-02
2.980000000000000071e+01,0.000000000000000000e+00
2.983999999999999986e+01,1.665309677229554267e-02
2.987999999999999901e+01,1.630514837226372440e-03
2.992000000000000171e+01,2.347949372451376381e-03
2.996000000000000085e+01,1.375290799934921968e-02
3.000000000000000000e+01,2.165954717209390978e-02
3.003999999999999915e+01,1.674018885932997136e-02
3.007999999999999829e+01,2.736651942199244333e-02
3.012000000000000099e+01,4.323922772583165680e-02
3.016000000000000014e+01,2.102347713819934655e-02
3.019999999999999929e+01,2.484705220653267085e-02
3.023999999999999844e+01,2.711557256506740010e-02
3.028000000000000114e+01,2.510846528212782106e-02
3.032000000000000028e+01,4.642011023633361988e-02
3.035999999999999943e+01,2.770002887541839209e-02
3.039999999999999858e+01,2.977245319697935030e-02
3.044000000000000128e+01,1.202311925647162050e-02
3.048000000000000043e+01,2.342233519618466472e-02
3.051999999999999957e+01,3.346082134167206040e-02
3.055999999999999872e+01,2.620379456189857875e-02
3.060000000000000142e+01,3.254918728532371630e-02
3.064000000000000057e+01,3.656221638091231713e-02
3.067999999999999972e+01,3.085847002309704407e-02
3.071999999999999886e+01,2.437697251493117431e-02
3.076000000000000156e+01,2.566809491831040929e-02
3.080000000000000071e+01,3.725808305718707192e-02
3.083999999999999986e+01,3.369014939216392890e-02
3.087999999999999901e+01,4.139271407838771705e-02
3.092000000000000171e+01,4.365368750250803176e-02
3.096000000000000085e+01,2.434395991291073841e-02
3.100000000000000000e+01,5.283813461266112510e-02
3.103999999999999915e+01,4.635307099161103256e-02
3.107999999999999829e+01,3.403776189301072758e-02
3.112000000000000099e+01,4.018303464563993677e-02
3.116000000000000014e+01,5.973639687087720085e-02
3.119999999999999929e+01,6.024530268848789921e-02
3.123999999999999844e+01,7.940911624719017292e-02
3.128000000000000114e+01,6.981214188218044792e-02
3.132000000000000028e+01,8.159064745922117723e-02
3.135999999999999943e+01,1.032793621205898849e-01
3.139999999999999858e+01,1.004824737802638562e-01
3.144000000000000128e+01,1.314979683683156486e-01
3.148000000000000043e+01,1.545456222167276017e-01
3.151999999999999957e+01,1.641842897057204098e-01
3.155999999999999872e+01,1.930608428489630490e-01
3.160000000000000142e+01,2.196050265186346162e-01
3.164000000000000057e+01,2.512012520531579085e-01
3.167999999999999972e+01,2.820197205915960237e-01
3.171999999999999886e+01,3.349909731186772044e-01
3.176000000000000156e+01,3.644482535548072555e-01
3.180000000000000071e+01,3.892412438525590379e-01
3.183999999999999986e+01,3.771117247522768334e-01
3.187999999999999901e+01,3.904385412161883728e-01
3.192000000000000171e+01,4.173677691454136807e-01
3.196000000000000085e+01,3.859985586822183845e-01
3.200000000000000000e+01,3.583211015476726047e-01
3.203999999999999915e+01,3.184006146107409840e-01
3.207999999999999829e+01,2.909165784413612066e-01
3.211999999999999744e+01,2.642093955612319633e-01
3.215999999999999659e+01,2.462464571705122729e-01
3.220000000000000284e+01,2.065184835947558861e-01
3.224000000000000199e+01,1.805872461563138298e-01
3.228000000000000114e+01,1.628172726148281735e-01
3.232000000000000028e+01,1.555404821736725007e-01
3.235999999999999943e+01,1.420447852194962057e-01
3.239999999999999858e+01,1.285486333672492543e-01
3.243999999999999773e+01,1.020321427945786869e-01
3.247999999999999687e+01,9.611381861804732529e-02
3.252000000000000313e+01,7.367727606352915404e-02
3.256000000000000227e+01,8.835666216720507171e-02
3.260000000000000142e+01,7.913341782375464539e-02
3.264000000000000057e+01,6.174799905648950538e-02
3.267999999999999972e+01,7.506572973760078371e-02
3.271999999999999886e+01,7.536311999328253186e-02
3.275999999999999801e+01,5.506143137738857968e-02
3.279999999999999716e+01,7.206999657883397803e-02
3.284000000000000341e+01,6.420429676882523362e-02
3.288000000000000256e+01,5.400621969093274272e-02
3.292000000000000171e+01,5.818785447136243932e-02
3.296000000000000085e+01,5.517894598229344805e-02
3.300000000000000000e+01,6.732705534671738767e-02
3.303999999999999915e+01,2.567005838837948528e-01
3.307999999999999829e+01,5.756895093081435544e-01
3.311999999999999744e+01,3.474542119001737261e-01
3.315999999999999659e+01,6.616728754824309500e-02
3.320000000000000284e+01,4.216834907314932074e-02
3.324000000000000199e+01,3.604699967821835965e-02
3.328000000000000114e+01,4.527699305235310251e-02
3.332000000000000028e+01,4.945403379120573428e-02
3.335999999999999943e+01,4.449726261904881491e-02
3.339999999999999858e+01,4.381521611224838131e-02
3.343999999999999773e+01,4.818520050954747808e-02
3.347999999999999687e+01,5.955048177316194652e-02
3.352000000000000313e+01,6.547415594247524284e-02
3.356000000000000227e+01,5.876613781249896001e-02
3.360000000000000142e+01,5.633284313001774013e-02
3.364000000000000057e+01,5.953455799551118921e-02
3.367999999999999972e+01,6.487340299498824125e-02
3.371999999999999886e+01,5.408267555046785552e-02
3.375999999999999801e+01,6.602769953414112936e-02
3.379999999999999716e+01,8.030417954165997019e-02
3.384000000000000341e+01,7.864541299504347605e-02
3.388000000000000256e+01,9.486423163143332948e-02
3.392000000000000171e+01,8.193359302718376813e-02
3.396000000000000085e+01,1.148635724821455567e-01
3.400000000000000000e+01,1.077618034569097355e-01
3.403999999999999915e+01,1.362213411130633600e-01
3.407999999999999829e+01,1.512718768211727405e-01
3.411999999999999744e+01,1.748723184630716077e-01
3.415999999999999659e+01,1.842864511874663103e-01
3.420000000000000284e+01,1.903965655031981952e-01
3.424000000000000199e+01,2.031133188162147774e-01
3.428000000000000114e+01,2.156352791626849896e-01
3.432000000000000028e+01,2.372901240868199313e-01
3.435999999999999943e+01,2.599161352807369818e-01
3.439999999999999858e+01,2.656352634076127872e-01
3.443999999999999773e+01,2.812645818637516948e-01
3.447999999999999687e+01,2.731855850454462664e-01
3.452000000000000313e+01,2.705472657959465677e-01
3.456000000000000227e+01,2.690744382189464434e-01
3.460000000000000142e+01,2.582734645596175826e-01
3.464000000000000057e+01,2.395046309184393207e-01
3.467999999999999972e+01,2.168487960839946549e-01
3.471999999999999886e+01,1.858364475393984028e-01
3.475999999999999801e+01,1.919400142565214906e-01
3.479999999999999716e+01,1.803593889885652390e-01
3.484000000000000341e+01,1.676123342411569295e-01
3.488000000000000256e+01,1.857627421662289557e-01
3.492000000000000171e+01,1.763182997259852558e-01
3.496000000000000085e+01,1.808649034807203737e-01
3.500000000000000000e+01,1.572336765212586918e-01
3.503999999999999915e+01,1.639169313982518361e-01
3.507999999999999829e+01,1.509727263793717023e-01
3.511999999999999744e+01,1.347244973496664611e-01
3.515999999999999659e+01,1.118686915157241224e-01
3.520000000000000284e+01,1.063074829651668857e-01
3.524000000000000199e+01,1.166805851103705494e-01
3.528000000000000114e+01,1.087865124858913568e-01
3.532000000000000028e+01,1.043898463529843307e-01
3.535999999999999943e+01,9.085935613045414971e-02
3.539999999999999858e+01,1.060887325875978365e-01
3.543999999999999773e+01,1.022736268184541997e-01
3.547999999999999687e+01,1.072027453222218069e-01
3.552000000000000313e+01,1.152406158585425749e-01
3.556000000000000227e+01,1.263872381838443137e-01
3.560000000000000142e+01,1.427802048809217461e-01
3.564000000000000057e+01,1.286634175197003682e-01
3.567999999999999972e+01,1.576866650559792526e-01
3.571999999999999886e+01,1.453178672944011873e-01
3.575999999999999801e+01,1.786153500107034164e-01
3.579999999999999716e+01,2.060825585079274214e-01
3.584000000000000341e+01,2.255818997161340433e-01
3.588000000000000256e+01,2.114622594753471085e-01
3.592000000000000171e+01,2.346528540532623608e-01
3.596000000000000085e+01,2.728061218397436760e-01
3.600000000000000000e+01,3.198979373532755410e-01
3.603999999999999915e+01,3.413381618872561307e-01
3.607999999999999829e+01,3.775467322785072688e-01
3.611999999999999744e+01,4.032611876082103919e-01
3.615999999999999659e+01,4.513227265106132813e-01
3.620000000000000284e+01,4.748986331826488549e-01
3.624000000000000199e+01,4.811789923421609938e-01
3.628000000000000114e+01,5.103894142053925220e-01
3.632000000000000028e+01,4.902403956734514012e-01
3.635999999999999943e+01,5.035150768693412715e-01
3.639999999999999858e+01,4.777296280735910949e-01
3.643999999999999773e+01,4.904203706535766871e-01
3.647999999999999687e+01,4.393715019412680056e-01
3.652000000000000313e+01,4.081434685419841335e-01
3.656000000000000227e+01,3.771092815336921644e-01
3.660000000000000142e+01,3.559852717017605861e-01
3.664000000000000057e+01,3.193146515067924462e-01
3.667999999999999972e+01,2.680690538081092478e-01
3.671999999999999886e+01,2.446116816483208389e-01
3.675999999999999801e+01,2.180446021118232214e-01
3.679999999999999716e+01,2.118813360450807481e-01
3.684000000000000341e+01,1.847303130212333278e-01
3.688000000000000256e+01,1.610766869896395892e-01
3.692000000000000171e+01,1.496651556327739940e-01
3.696000000000000085e+01,1.343666091990224909e-01
3.700000000000000000e+01,1.385002419142707664e-01
3.703999999999999915e+01,1.263099553484443305e-01
3.707999999999999829e+01,1.092610198721210707e-01
3.711999999999999744e+01,1.027052382674552289e-01
3.715999999999999659e+01,9.381705333267263691e-02
3.720000000000000284e+01,8.220781158304343861e-02
3.724000000000000199e+01,7.370731139235979501e-02
3.728000000000000114e+01,7.317371803151985488e-02
3.732000000000000028e+01,6.078571595791212867e-02
3.735999999999999943e+01,6.841287070289019112e-02
3.739999999999999858e+01,6.301965652448295041e-02
3.743999999999999773e+01,6.637065468394560963e-02
3.747999999999999687e+01,5.106581143609284501e-02
3.752000000000000313e+01,7.112792705826324891e-02
3.756000000000000227e+01,5.193557900461909932e-02
3.760000000000000142e+01,4.887185389655075707e-02
3.764000000000000057e+01,6.873818321074462445e-02
3.767999999999999972e+01,4.876706825667060513e-02
3.771999999999999886e+01,7.698846791296036496e-02
3.775999999999999801e+01,6.945328184599285082e-02
3.779999999999999716e+01,9.145525432667821197e-02
3.784000000000000341e+01,9.965954872236801321e-02
3.788000000000000256e+01,1.154420930531598888e-01
3.792000000000000171e+01,1.172326321912328106e-01
3.796000000000000085e+01,8.676446355860589765e-02
3.800000000000000000e+01,9.924198907570878914e-02
3.803999999999999915e+01,7.654590702628498444e-02
3.807999999999999829e+01,7.347632416998846339e-02
3.811999999999999744e+01,5.991261407353039303e-02
3.815999999999999659e+01,6.286617675379407855e-02
3.820000000000000284e+01,3.900217557813107083e-02
3.824000000000000199e+01,5.361435481745143589e-02
3.828000000000000114e+01,2.722312641144700868e-02
3.832000000000000028e+01,4.708114275643410229e-02
3.835999999999999943e+01,2.593575096895186019e-02
3.839999999999999858e+01,3.840837310769353724e-02
3.843999999999999773e+01,3.416841419917337336e-02
3.847999999999999687e+01,3.303718929885838401e-02
3.852000000000000313e+01,2.646432685770837984e-02
3.856000000000000227e+01,3.349383544887509639e-02
3.860000000000000142e+01,2.653133470659431101e-02
3.864000000000000057e+01,2.151160727475674717e-02
3.867999999999999972e+01,2.581906449178516041e-02
3.871999999999999886e+01,1.982671743564677971e-02
3.875999999999999801e+01,2.840837329685785145e-02
3.879999999999999716e+01,1.405899406013452237e-02
3.884000000000000341e+01,1.350631077130078767e-02
3.888000000000000256e+01,2.014321808710473408e-02
3.892000000000000171e+01,2.930587687008244860e-02
3.896000000000000085e+01,1.320558013389081659e-02
3.900000000000000000e+01,2.878002746455088703e-02
3.903999999999999915e+01,2.511564402684048763e-02
3.907999999999999829e+01,2.436566432317238337e-02
3.911999999999999744e+01,2.594710824823782958e-02
3.915999999999999659e+01,3.063728204077982228e-02
3.920000000000000284e+01,2.094678960513267005e-02
3.924000000000000199e+01,1.902886544370915520e-02
3.928000000000000114e+01,2.702110213930391386e-02
3.932000000000000028e+01,2.121565173772918186e-02
3.935999999999999943e+01,3.095583370281391675e-02
3.939999999999999858e+01,2.437208201605996910e-02
3.943999999999999773e+01,1.642754621846392177e-02
3.947999999999999687e+01,1.664423047481544335e-02
3.952000000000000313e+01,2.366184819749065499e-02
3.956000000000000227e+01,2.096263639371784629e-02
3.960000000000000142e+01,4.271409167190817931e-03
3.964000000000000057e+01,1.323079687241579712e-02
3.967999999999999972e+01,7.420862185426656092e-03
3.971999999999999886e+01,2.084876346394408733e-02
3.975999999999999801e+01,1.328889000458080387e-02
3.979999999999999716e+01,2.399521892068543633e-02
3.984000000000000341e+01,2.012655109086572761e-02
3.988000000000000256e+01,1.003893095643853921e-02
3.992000000000000171e+01,1.860616570792007415e-02
3.996000000000000085e+01,1.667926201491561414e-02
4.000000000000000000e+01,1.319724418047844329e-02
4.003999999999999915e+01,1.593317678418895364e-02
4.007999999999999829e+01,1.322746234774587089e-02
4.011999999999999744e+01,1.848863744751528745e-02
4.015999999999999659e+01,1.325567288493728971e-02
4.020000000000000284e+01,2.123641612705530826e-02
4.024000000000000199e+01,2.027763218431197917e-02
4.028000000000000114e+01,2.320487777133687854e-02
4.032000000000000028e+01,1.077981720725499498e-02
4.035999999999999943e+01,5.932991476794240680e-03
4.039999999999999858e+01,2.148995729458436435e-02
4.043999999999999773e+01,1.217261182218884290e-02
4.047999999999999687e+01,1.723493217295626878e-02
4.052000000000000313e+01,1.841021576890565156e-02
4.056000000000000227e+01,1.841903505456818704e-02
4.060000000000000142e+01,3.086425322688872430e-02
4.064000000000000057e+01,2.368197764679031217e-02
4.067999999999999972e+01,2.757581412215356215e-02
4.071999999999999886e+01,1.417407580489915726e-02
4.075999999999999801e+01,1.223710229711958732e-02
4.079999999999999716e+01,1.807268756424508516e-02
4.084000000000000341e+01,2.740564570996936386e-02
4.088000000000000256e+01,1.322457623026475175e-02
4.092000000000000171e+01,1.692104906484679858e-02
4.096000000000000085e+01,1.770211556820996610e-02
4.100000000000000000e+01,1.498479563504541597e-02
4.103999999999999915e+01,1.945705315361589624e-02
4.107999999999999829e+01,2.217986333372352209e-02
4.111999999999999744e+01,1.518583448806456147e-02
4.115999999999999659e+01,2.276579394541874968e-02
4.120000000000000284e+01,1.887997430465247067e-02
4.124000000000000199e+01,1.751989200386824819e-02
4.128000000000000114e+01,2.626428500206762912e-02
4.132000000000000028e+01,2.062799886274744796e-02
4.135999999999999943e+01,1.110467085359152437e-02
4.139999999999999858e+01,2.043051533874915004e-02
4.143999999999999773e+01,1.887355912608913028e-02
4.147999999999999687e+01,2.800405685628784905e-02
4.152000000000000313e+01,3.538510456872864807e-02
4.156000000000000227e+01,1.925212051501195426e-02
4.160000000000000142e+01,1.847042856732873661e-02
4.164000000000000057e+01,2.604427014126935863e-02
4.167999999999999972e+01,2.720482182927144374e-02
4.171999999999999886e+01,2.855918848744247798e-02
4.175999999999999801e+01,2.660949070179153414e-02
4.179999999999999716e+01,3.184936574000251513e-02
4.184000000000000341e+01,4.039228094692660226e-02
4.188000000000000256e+01,4.407651801468143171e-02
4.192000000000000171e+01,4.776024221416504123e-02
4.196000000000000085e+01,5.358104612817220919e-02
4.200000000000000000e+01,5.551480427518730443e-02
4.203999999999999915e+01,8.115589653382998536e-02
4.207999999999999829e+01,6.035241263157528624e-02
4.211999999999999744e+01,7.394422648563850342e-02
4.215999999999999659e+01,5.644326671738635753e-02
4.220000000000000284e+01,7.158866463309820904e-02
4.224000000000000199e+01,6.341435326250277615e-02
4.228000000000000114e+01,4.940972821412119992e-02
4.232000000000000028e+01,4.589822537300181776e-02
4.235999999999999943e+01,4.452379981068323861e-02
4.239999999999999858e+01,4.101126563085930044e-02
4.243999999999999773e+01,6.198336960925541345e-02
4.247999999999999687e+01,5.710951677238602919e-02
4.252000000000000313e+01,4.640534879629684695e-02
4.256000000000000227e+01,4.697160804835152220e-02
4.260000000000000142e+01,5.142388270298271780e-02
4.264000000000000057e+01,5.898486603430297404e-02
4.267999999999999972e+01,7.334676358973737931e-02
4.271999999999999886e+01,7.740883251477796712e-02
4.275999999999999801e+01,8.904912165910346122e-02
4.279999999999999716e+01,9.602505368267620633e-02
4.284000000000000341e+01,1.354530128724779348e-01
4.288000000000000256e+01,1.560307711521287666e-01
4.292000000000000171e+01,2.162506410722801475e-01
4.296000000000000085e+01,2.891012221289043782e-01
4.300000000000000000e+01,3.940151761363108185e-01
4.303999999999999915e+01,5.471216123589689451e-01
4.307999999999999829e+01,7.519184097237251452e-01
4.311999999999999744e+01,8.962791079130301153e-01
4.315999999999999659e+01,9.469738545643341388e-01
4.320000000000000284e+01,1.000000000000000000e+00
4.324000000000000199e+01,9.609148063751505875e-01
4.328000000000000114e+01,8.501225686069896481e-01
4.332000000000000028e+01,7.399127893072645623e-01
4.335999999999999943e+01,5.989988823192134992e-01
4.339999999999999858e+01,5.068604352159999937e-01
4.343999999999999773e+01,4.057824414421435932e-01
4.347999999999999687e+01,3.550345200306108673e-01
4.352000000000000313e+01,2.961243579436058093e-01
4.356000000000000227e+01,2.735527510501050696e-01
4.360000000000000142e+01,2.698303032544430158e-01
4.364000000000000057e+01,2.239384554512989234e-01
4.367999999999999972e+01,2.157454484549940765e-01
4.371999999999999886e+01,1.949206872920428990e-01
4.375999999999999801e+01,1.657393573716068325e-01
4.379999999999999716e+01,1.495773867137836222e-01
4.384000000000000341e+01,1.411879563193728371e-01
4.388000000000000256e+01,1.244419564367604675e-01
4.392000000000000171e+01,1.100273509542091244e-01
4.396000000000000085e+01,8.414694956705065509e-02
4.400000000000000000e+01,7.692137822142930403e-02
4.403999999999999915e+01,6.269952275736895286e-02
4.407999999999999829e+01,6.849278319175289287e-02
4.411999999999999744e+01,4.688546385977761938e-02
4.415999999999999659e+01,4.762517938604788476e-02
4.420000000000000284e+01,5.438849339837079078e-02
4.424000000000000199e+01,2.792142829625318332e-02
4.428000000000000114e+01,3.643262765928735603e-02
4.432000000000000028e+01,3.580994837250973256e-02
4.435999999999999943e+01,3.285482191260659379e-02
4.439999999999999858e+01,2.756724803600561768e-02
4.443999999999999773e+01,2.461106539302621715e-02
4.447999999999999687e+01,3.409125801019453894e-02
4.452000000000000313e+01,1.928009435454194204e-02
4.456000000000000227e+01,3.828123373556242826e-02
4.460000000000000142e+01,2.871583070388348050e-02
4.464000000000000057e+01,3.236410844037842377e-02
4.467999999999999972e+01,2.007707361465261089e-02
4.471999999999999886e+01,2.275265865516541697e-02
4.475999999999999801e+01,1.726599546946554209e-02
4.479999999999999716e+01,2.654762504228102768e-02
4.484000000000000341e+01,2.688969941942397079e-02
4.488000000000000256e+01,1.460001256632458347e-02
4.492000000000000171e+01,3.068148118154088999e-02
4.496000000000000085e+01,3.568580104400088937e-02
4.500000000000000000e+01,3.427681080402383840e-02
4.503999999999999915e+01,1.770981229199082574e-02
4.507999999999999829e+01,3.029127475629967564e-02
4.511999999999999744e+01,2.790905508198675972e-02
4.515999999999999659e+01,2.630360929236401704e-02
4.520000000000000284e+01,2.139407811170395551e-02
4.524000000000000199e+01,3.358475645721006875e-02
4.528000000000000114e+01,2.226138038433743069e-02
4.532000000000000028e+01,2.376302769775244864e-02
4.535999999999999943e+01,2.079462892236823637e-02
4.539999999999999858e+01,1.627108312329472034e-02
4.543999999999999773e+01,1.602218867432406504e-02
4.547999999999999687e+01,2.199121153767221934e-02
4.552000000000000313e+01,3.359517160803054264e-02
4.556000000000000227e+01,3.237303968683908489e-02
4.560000000000000142e+01,3.173335235046401831e-02
4.564000000000000057e+01,2.584631073796843717e-02
4.567999999999999972e+01,3.142400397555838304e-02
4.571999999999999886e+01,2.436993086788832516e-02
4.575999999999999801e+01,3.499904398168141029e-02
4.579999999999999716e+01,2.910985785149356950e-02
4.584000000000000341e+01,2.846695373858001976e-02
4.588000000000000256e+01,3.326465801994733101e-02
4.592000000000000171e+01,3.223202645845185677e-02
4.596000000000000085e+01,2.886693798094002242e-02
4.600000000000000000e+01,1.772824696763271313e-02
4.603999999999999915e+01,2.738196640004360652e-02
4.607999999999999829e+01,3.178832887703915422e-02
4.611999999999999744e+01,2.317426933189434962e-02
4.615999999999999659e+01,2.252706254354904652e-02
4.620000000000000284e+01,1.896441751601733033e-02
4.624000000000000199e+01,2.084237869061603132e-02
4.628000000000000114e+01,2.408008679161773372e-02
4.632000000000000028e+01,3.722791288091808343e-02
4.635999999999999943e+01,3.016523052522815732e-02
4.639999999999999858e+01,2.718286705332791792e-02
4.643999999999999773e+01,4.032907269753161633e-02
4.647999999999999687e+01,2.976688999560961335e-02
4.652000000000000313e+01,2.872617082296727645e-02
4.656000000000000227e+01,3.642960845371705919e-02
4.660000000000000142e+01,2.761474196904055781e-02
4.664000000000000057e+01,2.404615263019290600e-02
4.667999999999999972e+01,2.086567467913145665e-02
4.671999999999999886e+01,2.642935255717305046e-02
4.675999999999999801e+01,3.898824643553599339e-02
4.679999999999999716e+01,3.347422201598081182e-02
4.684000000000000341e+01,3.534406635076012271e-02
4.688000000000000256e+01,4.323749285224998823e-02
4.692000000000000171e+01,3.130906073989547789e-02
4.696000000000000085e+01,3.550919457720534689e-02
4.700000000000000000e+01,4.106907095661740253e-02
4.703999999999999915e+01,4.643407666992876298e-02
4.707999999999999829e+01,4.402547327099327196e-02
4.711999999999999744e+01,6.260360036190351640e-02
4.715999999999999659e+01,4.717402407528223374e-02
4.720000000000000284e+01,5.370281089425628374e-02
4.724000000000000199e+01,5.245798762669438148e-02
4.728000000000000114e+01,5.820837719301440172e-02
4.732000000000000028e+01,5.385323673870816980e-02
4.735999999999999943e+01,5.163514311666889817e-02
4.739999999999999858e+01,5.097111622158781441e-02
4.743999999999999773e+01,5.749662780667837148e-02
4.747999999999999687e+01,6.266130632290030367e-02
4.752000000000000313e+01,6.218996587394748365e-02
4.756000000000000227e+01,6.443865090113669314e-02
4.760000000000000142e+01,6.688111509337105187e-02
4.764000000000000057e+01,6.524217255434430762e-02
4.767999999999999972e+01,6.943248069000385048e-02
4.771999999999999886e+01,7.770309967156802111e-02
4.775999999999999801e+01,8.150365794999665792e-02
4.779999999999999716e+01,7.753060273187765972e-02
4.784000000000000341e+01,7.277969211447607445e-02
4.788000000000000256e+01,8.862685411788945311e-02
4.792000000000000171e+01,8.193157873004831837e-02
4.796000000000000085e+01,9.447408913182585299e-02
4.800000000000000000e+01,8.777771420504422439e-02
4.803999999999999915e+01,9.001981369005945810e-02
4.807999999999999829e+01,9.478760886419841658e-02
4.811999999999999744e+01,7.293210639706627918e-02
4.815999999999999659e+01,6.603920284895760384e-02
4.820000000000000284e+01,5.739680860652180555e-02
4.824000000000000199e+01,6.857517831043530299e-02
4.828000000000000114e+01,5.215861629589455678e-02
4.832000000000000028e+01,3.613015568267691213e-02
4.835999999999999943e+01,4.439197055840450601e-02
4.839999999999999858e+01,4.157661573416045198e-02
4.843999999999999773e+01,4.439618033615070486e-02
4.847999999999999687e+01,4.857547846806905406e-02
4.852000000000000313e+01,4.167760616929899742e-02
4.856000000000000227e+01,3.419620070752426438e-02
4.860000000000000142e+01,3.545893962695582935e-02
4.864000000000000057e+01,2.467287428208810030e-02
4.867999999999999972e+01,2.710046510459485775e-02
4.871999999999999886e+01,2.875019516922910912e-02
4.875999999999999801e+01,4.186464132888399053e-02
4.879999999999999716e+01,2.660684612132987667e-02
4.884000000000000341e+01,2.611731907149174650e-02
4.888000000000000256e+01,3.029107566569883003e-02
4.892000000000000171e+01,3.077207097548983333e-02
4.896000000000000085e+01,3.280712351292047746e-02
4.900000000000000000e+01,2.667990200547764451e-02
4.903999999999999915e+01,2.016347103274175948e-02
4.907999999999999829e+01,2.336281462123898992e-02
4.911999999999999744e+01,2.520131515440456049e-02
4.915999999999999659e+01,2.490166590635092478e-02
4.920000000000000284e+01,2.537876594218799534e-02
4.924000000000000199e+01,2.235742936560961361e-02
4.928000000000000114e+01,3.002349923529705825e-02
4.932000000000000028e+01,1.845067573854037787e-02
4.935999999999999943e+01,1.581631861569563965e-02
4.939999999999999858e+01,2.173177438203298048e-02
4.943999999999999773e+01,2.084523976825359420e-02
4.947999999999999687e+01,2.695390459188120105e-02
4.952000000000000313e+01,3.073009082156032828e-02
4.956000000000000227e+01,2.187448732304144577e-02
4.960000000000000142e+01,2.040273577237034647e-02
4.964000000000000057e+01,2.203965027324082671e-02
4.967999999999999972e+01,2.464763775571360976e-02
4.971999999999999886e+01,2.239689935885199115e-02
4.975999999999999801e+01,2.772433855612786366e-02
4.979999999999999716e+01,1.750508725508984759e-02
4.984000000000000341e+01,2.749524339866792066e-02
4.988000000000000256e+01,2.446495462431212339e-02
4.992000000000000171e+01,2.104545102607335155e-02
4.996000000000000085e+01,2.306653097774377659e-02
5.000000000000000000e+01,3.324876692385456134e-02
5.003999999999999915e+01,2.866161739253306542e-02
5.007999999999999829e+01,2.621149813056408706e-02
5.011999999999999744e+01,2.492677579148126418e-02
5.015999999999999659e+01,3.568974088412607548e-02
5.020000000000000284e+01,3.887340448646571522e-02
5.024000000000000199e+01,3.428343973434914982e-02
5.028000000000000114e+01,3.727164940993060727e-02
5.032000000000000028e+01,4.297986775516739189e-02
5.035999999999999943e+01,4.208041673870404481e-02
5.039999999999999858e+01,3.476762273754709781e-02
5.043999999999999773e+01,3.406136908690503284e-02
5.047999999999999687e+01,2.130629996763913625e-02
5.052000000000000313e+01,2.856630753168191636e-02
5.056000000000000227e+01,3.038460423963606008e-02
5.060000000000000142e+01,2.268033081577420715e-02
5.064000000000000057e+01,2.780104838308799023e-02
5.067999999999999972e+01,1.504315064655213120e-02
5.071999999999999886e+01,9.669098037840495596e-03
5.075999999999999801e+01,1.634272920727238010e-02
5.079999999999999716e+01,2.418175315886178511e-02
5.084000000000000341e+01,2.269253213778044467e-02
5.088000000000000256e+01,2.528360272039427425e-02
5.092000000000000171e+01,1.757479474029870203e-02
5.096000000000000085e+01,1.608387070312086373e-02
5.100000000000000000e+01,1.459237850676626744e-02
5.103999999999999915e+01,2.825779431281035328e-02
5.107999999999999829e+01,2.035238658828466066e-02
5.111999999999999744e+01,1.089179700923482638e-02
5.115999999999999659e+01,2.047464711344326727e-02
5.120000000000000284e+01,2.170088315572452423e-02
5.124000000000000199e+01,2.681308198897174380e-02
5.128000000000000114e+01,1.890482737925571616e-02
5.132000000000000028e+01,2.246127327593492803e-02
5.135999999999999943e+01,2.426820923607768063e-02
5.139999999999999858e+01,2.704620770421509168e-02
5.143999999999999773e+01,1.971865106378233728e-02
5.147999999999999687e+01,1.608272913230318624e-02
5.152000000000000313e+01,8.948356704789042423e-03
5.156000000000000227e+01,1.327868332223659104e-02
5.160000000000000142e+01,1.391623233592590922e-02
5.164000000000000057e+01,1.338724956980924877e-02
5.167999999999999972e+01,1.188606140089317267e-02
5.171999999999999886e+01,1.893467199396748485e-02
5.175999999999999801e+01,1.995858456204857578e-02
5.179999999999999716e+01,2.001029099661348967e-02
5.184000000000000341e+01,2.375362994798153188e-02
5.188000000000000256e+01,1.603112476743270495e-02
5.192000000000000171e+01,1.608111064869760173e-02
5.196000000000000085e+01,7.385824599004510958e-03
5.200000000000000000e+01,2.570136456128350316e-02
5.203999999999999915e+01,2.633260755883439289e-02
5.207999999999999829e+01,1.374906562139773317e-02
5.211999999999999744e+01,2.565010289769171364e-02
5.215999999999999659e+01,3.269239943674265986e-02
5.220000000000000284e+01,3.079509596282322195e-02
5.224000000000000199e+01,1.956953899120350560e-02
5.228000000000000114e+01,2.408386233297855547e-02
5.232000000000000028e+01,3.423308147447757382e-02
5.235999999999999943e+01,2.941857439077384673e-02
5.239999999999999858e+01,3.976096702801161509e-02
5.243999999999999773e+01,3.747155239984782671e-02
5.247999999999999687e+01,3.693050018554265568e-02
5.252000000000000313e+01,4.921442751451641368e-02
5.256000000000000227e+01,3.856723595669448584e-02
5.260000000000000142e+01,2.889109959969913058e-02
5.264000000000000057e+01,3.340022839931757609e-02
5.267999999999999972e+01,2.858110102194071078e-02
5.271999999999999886e+01,2.317841515004303785e-02
5.275999999999999801e+01,2.224466267510150780e-02
5.279999999999999716e+01,2.927772252396260849e-02
5.284000000000000341e+01,2.115272660417478676e-02
5.288000000000000256e+01,2.818462748246121363e-02
5.292000000000000171e+01,1.850385914032376053e-02
5.296000000000000085e+01,2.864382600300754284e-02
5.300000000000000000e+01,2.634630881085681803e-02
5.303999999999999915e+01,2.249359807271307868e-02
5.307999999999999829e+01,1.805732664789804973e-02
5.311999999999999744e+01,2.197651883946506041e-02
5.315999999999999659e+01,2.706108944242566899e-02
5.320000000000000284e+01,2.184576759905737173e-02
5.324000000000000199e+01,1.799015030051686823e-02
5.328000000000000114e+01,1.257933799454972502e-02
5.332000000000000028e+01,1.474668160478800026e-02
5.335999999999999943e+01,2.954467302270862711e-02
5.339999999999999858e+01,2.354913326518292410e-02
5.343999999999999773e+01,1.211186511436516434e-02
5.347999999999999687e+01,2.068965562250794227e-02
5.352000000000000313e+01,2.343706400905646095e-02
5.356000000000000227e+01,2.443494906259361527e-02
5.360000000000000142e+01,2.601522998649283963e-02
5.364000000000000057e+01,2.312541440213271640e-02
5.367999999999999972e+01,1.829174813346554074e-02
5.371999999999999886e+01,1.676104969254717594e-02
5.375999999999999801e+01,1.600707276828066197e-02
5.379999999999999716e+01,2.283124883735224153e-02
5.384000000000000341e+01,2.557398042146081726e-02
5.388000000000000256e+01,2.559555362108567600e-02
5.392000000000000171e+01,2.095270198686643992e-02
5.396000000000000085e+01,2.796886140385149849e-02
5.400000000000000000e+01,2.623973646769274179e-02
5.403999999999999915e+01,1.615398017597557273e-02
5.407999999999999829e+01,1.850454068706107111e-02
5.411999999999999744e+01,2.085451404033276251e-02
5.415999999999999659e+01,1.854006109832673221e-02
5.420000000000000284e+01,2.011155292293861224e-02
5.424000000000000199e+01,1.915621079149530670e-02
5.428000000000000114e+01,1.858893376910664488e-02
5.432000000000000028e+01,2.385086698840722941e-02
5.435999999999999943e+01,2.483702593572647763e-02
5.439999999999999858e+01,2.523961615848947793e-02
5.443999999999999773e+01,1.728557258997133472e-02
5.447999999999999687e+01,2.273947649142725111e-02
5.452000000000000313e+01,1.731050004693296396e-02
5.456000000000000227e+01,1.887669210616717622e-02
5.460000000000000142e+01,2.257988691108725812e-02
5.464000000000000057e+01,1.850942656860140104e-02
5.467999999999999972e+01,2.940152544285869543e-02
5.471999999999999886e+01,1.833412538031186159e-02
5.475999999999999801e+01,2.980802224993756369e-02
5.479999999999999716e+01,3.681181554770797393e-02
5.484000000000000341e+01,2.729725455416427693e-02
5.488000000000000256e+01,1.894806149840657164e-02
5.492000000000000171e+01,1.623374841017518819e-02
5.496000000000000085e+01,1.954296828705559888e-02
5.500000000000000000e+01,2.770976116200258091e-02
5.503999999999999915e+01,1.935819852777416125e-02
5.507999999999999829e+01,2.130535378067462821e-02
5.511999999999999744e+01,2.927604102439776423e-02
5.515999999999999659e+01,3.705180815684924744e-02
5.520000000000000284e+01,2.578297273831152425e-02
5.524000000000000199e+01,2.986534636766286291e-02
5.528000000000000114e+01,2.403646812608489433e-02
5.532000000000000028e+01,2.811765306904452644e-02
5.535999999999999943e+01,2.753440440955834401e-02
5.539999999999999858e+01,2.675623417736681595e-02
5.543999999999999773e+01,3.277890046973512550e-02
5.547999999999999687e+01,2.908464029389149982e-02
5.552000000000000313e+01,2.888766360562326080e-02
5.556000000000000227e+01,3.413123636714631565e-02
5.560000000000000142e+01,3.665364027057801261e-02
5.564000000000000057e+01,3.295699590192747996e-02
5.567999999999999972e+01,3.917041252566419440e-02
5.571999999999999886e+01,3.158604218760020094e-02
5.575999999999999801e+01,4.090749069561628454e-02
5.579999999999999716e+01,3.176731286079560734e-02
5.584000000000000341e+01,4.283650593475036433e-02
5.588000000000000256e+01,4.107954417550939430e-02
5.592000000000000171e+01,3.660141160959898277e-02
5.596000000000000085e+01,5.213832260116837980e-02
5.600000000000000000e+01,4.027458148541406685e-02
5.603999999999999915e+01,4.434502440783983507e-02
5.607999999999999829e+01,4.919217471972579109e-02
5.611999999999999744e+01,6.084015741544285955e-02
5.615999999999999659e+01,5.247189861154220869e-02
5.620000000000000284e+01,6.295272218021485955e-02
5.624000000000000199e+01,7.071237299363979101e-02
5.628000000000000114e+01,7.788844363461180920e-02
5.632000000000000028e+01,8.545256696245272232e-02
5.635999999999999943e+01,9.709694852458777836e-02
5.639999999999999858e+01,9.630382532824528774e-02
5.643999999999999773e+01,1.042547987729439407e-01
5.647999999999999687e+01,1.112335375861707304e-01
5.652000000000000313e+01,1.257904128298212021e-01
5.656000000000000227e+01,1.282984355818627131e-01
5.660000000000000142e+01,1.366356546919740844e-01
5.664000000000000057e+01,1.486644770902159907e-01
5.667999999999999972e+01,1.447579138545558031e-01
5.671999999999999886e+01,1.587287967221353013e-01
5.675999999999999801e+01,1.476309423014637023e-01
5.679999999999999716e+01,1.499410212235743889e-01
5.684000000000000341e+01,1.462263711870135374e-01
5.688000000000000256e+01,1.522274482150930142e-01
5.692000000000000171e+01,1.500662029709893264e-01
5.696000000000000085e+01,1.261397717706131405e-01
5.700000000000000000e+01,1.062935949073747638e-01
5.703999999999999915e+01,1.045191888193766488e-01
5.707999999999999829e+01,1.031328307903742469e-01
5.711999999999999744e+01,9.164088306553924701e-02
5.715999999999999659e+01,8.694976139165640217e-02
5.720000000000000284e+01,8.808783242225932952e-02
5.724000000000000199e+01,7.678839357936699528e-02
5.728000000000000114e+01,6.723728792166079604e-02
5.732000000000000028e+01,6.137778141135654536e-02
5.735999999999999943e+01,5.901554718430319230e-02
5.739999999999999858e+01,6.248250444387432045e-02
5.743999999999999773e+01,4.709917213298787236e-02
5.747999999999999687e+01,5.231385398557135413e-02
5.752000000000000313e+01,5.403004880627929052e-02
5.756000000000000227e+01,5.049881676633000832e-02
5.760000000000000142e+01,4.113717776041479757e-02
5.764000000000000057e+01,4.285154753531845301e-02
5.767999999999999972e+01,4.009579620116338755e-02
5.771999999999999886e+01,4.686144019605206767e-02
5.775999999999999801e+01,4.196687763332122845e-02
5.779999999999999716e+01,3.882064508933703167e-02
5.784000000000000341e+01,4.500148052310089936e-02
5.788000000000000256e+01,4.146537487431665309e-02
5.792000000000000171e+01,3.034992072577902614e-02
5.796000000000000085e+01,4.274737712652627170e-02
5.800000000000000000e+01,3.765482689085591222e-02
5.803999999999999915e+01,4.150069017391468801e-02
5.807999999999999829e+01,4.262536949740140108e-02
5.811999999999999744e+01,3.617069910327334881e-02
5.815999999999999659e+01,3.360194936210834232e-02
5.820000000000000284e+01,2.889499479239092741e-02
5.824000000000000199e+01,3.506971872932944378e-02
5.828000000000000114e+01,3.308211211262762630e-02
5.832000000000000028e+01,3.731234462154569415e-02
5.835999999999999943e+01,2.910506043694485387e-02
5.839999999999999858e+01,2.284042923808538017e-02
5.843999999999999773e+01,2.395959615760179934e-02
5.847999999999999687e+01,2.430084288761160879e-02
5.852000000000000313e+01,2.328118932280601530e-02
5.856000000000000227e+01,2.711908707813489444e-02
5.860000000000000142e+01,2.434926529587590205e-02
5.864000000000000057e+01,3.421005916975945749e-02
5.867999999999999972e+01,4.290427839511733871e-02
5.871999999999999886e+01,2.886166784412875011e-02
5.875999999999999801e+01,2.880995856261759497e-02
5.879999999999999716e+01,2.953494010765220223e-02
5.884000000000000341e+01,3.434016478550010881e-02
5.888000000000000256e+01,3.117738187670247504e-02
5.892000000000000171e+01,2.607071637563028108e-02
5.896000000000000085e+01,3.320601134096488188e-02
5.900000000000000000e+01,3.198464474777952538e-02
5.903999999999999915e+01,2.707045524639343712e-02
5.907999999999999829e+01,2.779112038101754639e-02
5.911999999999999744e+01,3.064876073766101966e-02
5.915999999999999659e+01,2.651002490554702287e-02
5.920000000000000284e+01,2.625720339351709717e-02
5.924000000000000199e+01,2.833568299336847868e-02
5.928000000000000114e+01,2.400076553548207911e-02
5.932000000000000028e+01,2.782694731969687085e-02
5.935999999999999943e+01,3.048655031465746443e-02
5.939999999999999858e+01,2.595544903884822868e-02
5.943999999999999773e+01,2.492160738053178157e-02
5.947999999999999687e+01,1.553110124082807304e-02
5.952000000000000313e+01,2.712725008356613871e-02
5.956000000000000227e+01,2.278799575519852710e-02
5.960000000000000142e+01,2.116869358771937548e-02
5.964000000000000057e+01,2.945942829897266885e-02
5.967999999999999972e+01,2.239773897013986464e-02
5.971999999999999886e+01,2.408012630942205426e-02
5.975999999999999801e+01,2.925977131761886910e-02
5.979999999999999716e+01,1.675507210806713443e-02
5.984000000000000341e+01,2.795759862048231500e-02
5.988000000000000256e+01,2.439067973668664416e-02
5.992000000000000171e+01,3.073379602661746937e-02
5.996000000000000085e+01,2.327909953608684607e-02
