2.003999999999999915e+01,3.722878031282283312e-02
2.007999999999999829e+01,4.408780453205634470e-02
2.012000000000000099e+01,3.452924850632216325e-02
2.016000000000000014e+01,4.471048728681788903e-02
2.019999999999999929e+01,2.831099009314976683e-02
2.023999999999999844e+01,3.595108228821446844e-02
2.028000000000000114e+01,2.189656891506559094e-02
2.032000000000000028e+01,4.693092960968687360e-02
2.035999999999999943e+01,2.740358616553842386e-02
2.039999999999999858e+01,4.989679445028612909e-02
2.044000000000000128e+01,4.287758327530126479e-02
2.048000000000000043e+01,3.312195451662317686e-02
2.051999999999999957e+01,4.877402697166777906e-02
2.055999999999999872e+01,4.136337184073471396e-02
2.060000000000000142e+01,4.333390395985337734e-02
2.064000000000000057e+01,3.826821954444397517e-02
2.067999999999999972e+01,4.922886025537902277e-02
2.071999999999999886e+01,3.693132519363252764e-02
2.076000000000000156e+01,4.476446456625107068e-02
2.080000000000000071e+01,3.969802625764684567e-02
2.083999999999999986e+01,3.306783545974628646e-02
2.087999999999999901e+01,4.520019999066753058e-02
2.092000000000000171e+01,3.231537763828903898e-02
2.096000000000000085e+01,2.412104939588608638e-02
2.100000000000000000e+01,3.703461759192860914e-02
2.103999999999999915e+01,3.998028285565324164e-02
2.107999999999999829e+01,3.843051214451282532e-02
2.112000000000000099e+01,4.860726251249478103e-02
2.116000000000000014e+01,2.848979921781926231e-02
2.119999999999999929e+01,3.045745509372462315e-02
2.123999999999999844e+01,4.434707513906890886e-02
2.128000000000000114e+01,3.321950174861550142e-02
2.132000000000000028e+01,2.013727658323699599e-02
2.135999999999999943e+01,4.047599359619985515e-02
2.139999999999999858e+01,4.459255234090903075e-02
2.144000000000000128e+01,3.874120087274720431e-02
2.148000000000000043e+01,5.790664259601582126e-02
2.151999999999999957e+01,2.821056302829732035e-02
2.155999999999999872e+01,3.818967078208167221e-02
2.160000000000000142e+01,2.803771113768693118e-02
2.164000000000000057e+01,1.534475807047737221e-02
2.167999999999999972e+01,3.001393784821111688e-02
2.171999999999999886e+01,3.960133417874769912e-02
2.176000000000000156e+01,4.703862545126859945e-02
2.180000000000000071e+01,4.196721139014892438e-02
2.183999999999999986e+01,4.490884508798973634e-02
2.187999999999999901e+01,3.065108540850093946e-02
2.192000000000000171e+01,3.711031487322042494e-02
2.196000000000000085e+01,3.242895301345550402e-02
2.200000000000000000e+01,4.475111862662200374e-02
2.203999999999999915e+01,3.616042773507131824e-02
2.207999999999999829e+01,2.854675035278134501e-02
2.212000000000000099e+01,3.559125496546781953e-02
2.216000000000000014e+01,4.615356019957590761e-02
2.219999999999999929e+01,3.072142888020229154e-02
2.223999999999999844e+01,1.802531562821014025e-02
2.228000000000000114e+01,3.327766012377910559e-02
2.232000000000000028e+01,2.194923005825279855e-02
2.235999999999999943e+01,3.485579606901040295e-02
2.239999999999999858e+01,3.173563088461435477e-02
2.244000000000000128e+01,2.607445771629727030e-02
2.248000000000000043e+01,2.354018879599466263e-02
2.251999999999999957e+01,2.686905723840550542e-02
2.255999999999999872e+01,1.944821398446707275e-02
2.260000000000000142e+01,3.372157387020910391e-02
2.264000000000000057e+01,2.102326282144872938e-02
2.267999999999999972e+01,2.728291961350414255e-02
2.271999999999999886e+01,1.243426224941942063e-02
2.276000000000000156e+01,1.869346928934680074e-02
2.280000000000000071e+01,2.456155981216238959e-02
2.283999999999999986e+01,2.573873705119713792e-02
2.287999999999999901e+01,3.512438839423683012e-02
2.292000000000000171e+01,2.867874435188605409e-02
2.296000000000000085e+01,3.923661030913946218e-02
2.300000000000000000e+01,3.982653765936493284e-02
2.303999999999999915e+01,3.513921226208569643e-02
2.307999999999999829e+01,3.807402150508764488e-02
2.312000000000000099e+01,3.358167852516739244e-02
2.316000000000000014e+01,2.693920500529570564e-02
2.319999999999999929e+01,3.300044107808264293e-02
2.323999999999999844e+01,1.756246298104597106e-02
2.328000000000000114e+01,2.147333235296013457e-02
2.332000000000000028e+01,2.890198123269241762e-02
2.335999999999999943e+01,3.672128450046836801e-02
2.339999999999999858e+01,1.991424629448030129e-02
2.344000000000000128e+01,2.050159990039768579e-02
2.348000000000000043e+01,1.405268527986000375e-02
2.351999999999999957e+01,2.851617595580101597e-02
2.355999999999999872e+01,3.750695914503593409e-02
2.360000000000000142e+01,2.323951414160759649e-02
2.364000000000000057e+01,2.597556676084309887e-02
2.367999999999999972e+01,1.893911367059290460e-02
2.371999999999999886e+01,2.284735323794058470e-02
2.376000000000000156e+01,3.183692650035730570e-02
2.380000000000000071e+01,2.968587494774535193e-02
2.383999999999999986e+01,2.030310334169829409e-02
2.387999999999999901e+01,2.245135730447509262e-02
2.392000000000000171e+01,1.267720317012748822e-02
2.396000000000000085e+01,3.417404587121955495e-02
2.400000000000000000e+01,3.866690188253318200e-02
2.403999999999999915e+01,2.869655904428492291e-02
2.407999999999999829e+01,2.146220078287403368e-02
2.412000000000000099e+01,2.556341844747283404e-02
2.416000000000000014e+01,2.438736297901825112e-02
2.419999999999999929e+01,2.438372770737581852e-02
2.423999999999999844e+01,2.437984025759535808e-02
2.428000000000000114e+01,2.711193374437593367e-02
2.432000000000000028e+01,2.945288304794300635e-02
2.435999999999999943e+01,2.964367996989939955e-02
2.439999999999999858e+01,4.312450046630260381e-02
2.444000000000000128e+01,3.080628891260922889e-02
2.448000000000000043e+01,4.213669902482143625e-02
2.451999999999999957e+01,2.141382684738840983e-02
2.455999999999999872e+01,2.355779378182039016e-02
2.460000000000000142e+01,3.312842241594941839e-02
2.464000000000000057e+01,4.172156521897547876e-02
2.467999999999999972e+01,4.171485575802770518e-02
2.471999999999999886e+01,5.069836800847053737e-02
2.476000000000000156e+01,2.743314832645398632e-02
2.480000000000000071e+01,1.863061658522573161e-02
2.483999999999999986e+01,3.074046611465114723e-02
2.487999999999999901e+01,3.698669358258051265e-02
2.492000000000000171e+01,1.899744245960915956e-02
2.496000000000000085e+01,2.954293612794061871e-02
2.500000000000000000e+01,1.428938755340128375e-02
2.503999999999999915e+01,2.502979374578251023e-02
2.507999999999999829e+01,2.873390258949649195e-02
2.512000000000000099e+01,4.006010894267104244e-02
2.516000000000000014e+01,3.105973782626176086e-02
2.519999999999999929e+01,2.440444035217649577e-02
2.523999999999999844e+01,1.813976304753565916e-02
2.528000000000000114e+01,2.848766296632632838e-02
2.532000000000000028e+01,2.710857458053943583e-02
2.535999999999999943e+01,2.338387033727671455e-02
2.539999999999999858e+01,4.174420881878804918e-02
2.544000000000000128e+01,3.352371595089047307e-02
2.548000000000000043e+01,1.748513735584261014e-02
2.551999999999999957e+01,1.962269381175420560e-02
2.555999999999999872e+01,9.446921771309154184e-03
2.560000000000000142e+01,3.542824857809708655e-02
2.564000000000000057e+01,1.684777514281500521e-02
2.567999999999999972e+01,4.243765535243556458e-02
2.571999999999999886e+01,1.877504727629690159e-02
2.576000000000000156e+01,2.325627888139017094e-02
2.580000000000000071e+01,4.356829714726620506e-02
2.583999999999999986e+01,2.791810360802308988e-02
2.587999999999999901e+01,2.614424252862773343e-02
2.592000000000000171e+01,1.147071057693068406e-02
2.596000000000000085e+01,2.670002213653082518e-02
2.600000000000000000e+01,2.746609917185911104e-02
2.603999999999999915e+01,1.240082403348303011e-02
2.607999999999999829e+01,3.231996735878175930e-02
2.612000000000000099e+01,1.959946344877565305e-02
2.616000000000000014e+01,5.119664943635015078e-03
2.619999999999999929e+01,2.366982997317895743e-02
2.623999999999999844e+01,2.580230336529467511e-02
2.628000000000000114e+01,2.383013668432061929e-02
2.632000000000000028e+01,2.400757798563955825e-02
2.635999999999999943e+01,3.297976587359927741e-02
2.639999999999999858e+01,2.318891591812029945e-02
2.644000000000000128e+01,3.333319173867045626e-02
2.648000000000000043e+01,2.236908496588216333e-02
2.651999999999999957e+01,2.137239351440788429e-02
2.655999999999999872e+01,2.369797732378937233e-02
2.660000000000000142e+01,3.364563170458512165e-02
2.664000000000000057e+01,2.248490057982114113e-02
2.667999999999999972e+01,1.992346494277287897e-02
2.671999999999999886e+01,2.263875439918363805e-02
2.676000000000000156e+01,2.085850449687620678e-02
2.680000000000000071e+01,1.673261252710196018e-02
2.683999999999999986e+01,2.413769225005877803e-02
2.687999999999999901e+01,1.258428011843099222e-02
2.692000000000000171e+01,1.197550239997629065e-02
2.696000000000000085e+01,2.993372407145489592e-02
2.700000000000000000e+01,2.658810841039347880e-02
2.703999999999999915e+01,2.187407268594559334e-02
2.707999999999999829e+01,2.204586495349409800e-02
2.712000000000000099e+01,2.260824317188752861e-02
2.716000000000000014e+01,1.300716179101890808e-02
2.719999999999999929e+01,3.506790882207511811e-02
2.723999999999999844e+01,3.576343862656747308e-03
2.728000000000000114e+01,1.039174519145558313e-02
2.732000000000000028e+01,1.896584575219993282e-02
2.735999999999999943e+01,2.910319954235206230e-02
2.739999999999999858e+01,1.207335048493788678e-02
2.744000000000000128e+01,1.849662394285417344e-02
2.748000000000000043e+01,1.886078274119725243e-02
2.751999999999999957e+01,2.958322920843653794e-02
2.755999999999999872e+01,2.251984309104555770e-02
2.760000000000000142e+01,4.008224822365853007e-02
2.764000000000000057e+01,3.380001580657474719e-02
2.767999999999999972e+01,2.399945365791295027e-02
2.771999999999999886e+01,2.905241685096708257e-02
2.776000000000000156e+01,3.019615830736764248e-02
2.780000000000000071e+01,2.547622455423476789e-02
2.783999999999999986e+01,1.762884870626748451e-02
2.787999999999999901e+01,2.365776891538267160e-02
2.792000000000000171e+01,3.359527545492074774e-02
2.796000000000000085e+01,1.792913114997778806e-02
2.800000000000000000e+01,2.200263895242459897e-02
2.803999999999999915e+01,3.311185529284729756e-02
2.807999999999999829e+01,2.682612013288566966e-02
2.812000000000000099e+01,2.464441293755253656e-02
2.816000000000000014e+01,1.913981254846027283e-02
2.819999999999999929e+01,2.028002723615770012e-02
2.823999999999999844e+01,2.161536221466902469e-02
2.828000000000000114e+01,2.510026950076350502e-02
2.832000000000000028e+01,1.783536025054462820e-02
2.835999999999999943e+01,3.636890006417357879e-02
2.839999999999999858e+01,1.835384565369639967e-02
2.844000000000000128e+01,4.744077376954230346e-02
2.848000000000000043e+01,5.522383761480191555e-02
2.851999999999999957e+01,3.877135734418334090e-02
2.855999999999999872e+01,3.502248910681254879e-02
2.860000000000000142e+01,1.954657286432898849e-02
2.864000000000000057e+01,1.384258808174598614e-02
2.867999999999999972e+01,3.022358632340177778e-02
2.871999999999999886e+01,3.116407416061279384e-02
2.876000000000000156e+01,9.628020983955683579e-03
2.880000000000000071e+01,2.483534423355450091e-02
2.883999999999999986e+01,2.479760016902504693e-02
2.887999999999999901e+01,1.049201443472404932e-02
2.892000000000000171e+01,5.958355063936377274e-03
2.896000000000000085e+01,2.507323581685995742e-02
2.900000000000000000e+01,1.272108856139141098e-02
2.903999999999999915e+01,9.554529661823019104e-03
2.907999999999999829e+01,9.710200155626163426e-03
2.912000000000000099e+01,2.315580831335005071e-02
2.916000000000000014e+01,1.217041543182842758e-02
2.919999999999999929e+01,2.776523742292280952e-02
2.923999999999999844e+01,4.856997155925382899e-03
2.928000000000000114e+01,2.103746787230963491e-02
2.932000000000000028e+01,2.236375308686665980e-02
2.935999999999999943e+01,2.212613073634712296e-02
2.939999999999999858e+01,3.146498073819482821e-02
2.944000000000000128e+01,3.103122019059288694e-02
2.948000000000000043e+01,2.199752001238061694e-02
2.951999999999999957e+01,1.609059594444912228e-02
2.955999999999999872e+01,2.405993735527736654e-02
2.960000000000000142e+01,2.987903100924987898e-02
2.964000000000000057e+01,2.494828410108396177e-02
2.967999999999999972e+01,1.649917105857473879e-02
2.971999999999999886e+01,2.798512409155952396e-02
2.976000000000000156e+01,3.048024184858203617e-02
2.980000000000000071e+01,1.499404097539473908e-02
2.983999999999999986e+01,2.120191146387747499e-02
2.987999999999999901e+01,1.959161613912666425e-02
2.992000000000000171e+01,0.000000000000000000e+00
2.996000000000000085e+01,1.773807499697285794e-02
3.000000000000000000e+01,3.039421583930032936e-02
3.003999999999999915e+01,2.291913566377925399e-02
3.007999999999999829e+01,2.951575677678131351e-02
3.012000000000000099e+01,2.829420770821786460e-02
3.016000000000000014e+01,3.371743804173434750e-02
3.019999999999999929e+01,2.545913850310156309e-02
3.023999999999999844e+01,2.873174877249888570e-02
3.028000000000000114e+01,2.027728045846087165e-02
3.032000000000000028e+01,3.605766333770097504e-02
3.035999999999999943e+01,2.134821982708078741e-02
3.039999999999999858e+01,3.009184495569844353e-02
3.044000000000000128e+01,2.124503035418623051e-02
3.048000000000000043e+01,2.392912119237234139e-02
3.051999999999999957e+01,3.345343015462301506e-02
3.055999999999999872e+01,1.678770512535047998e-02
3.060000000000000142e+01,3.608354266191547005e-02
3.064000000000000057e+01,1.765807355638265158e-02
3.067999999999999972e+01,1.389063064199073244e-02
3.071999999999999886e+01,2.243586989689510744e-02
3.076000000000000156e+01,3.293519104547122656e-02
3.080000000000000071e+01,2.154426987280595729e-02
3.083999999999999986e+01,2.324780978320087343e-02
3.087999999999999901e+01,1.830583732587415247e-02
3.092000000000000171e+01,4.072582953271518952e-02
3.096000000000000085e+01,3.695578046747990952e-02
3.100000000000000000e+01,3.338080145724255793e-02
3.103999999999999915e+01,3.332346144014919354e-02
3.107999999999999829e+01,3.307029947297827899e-02
3.112000000000000099e+01,3.008052625940270397e-02
3.116000000000000014e+01,3.080383512928774881e-02
3.119999999999999929e+01,4.638060600007713058e-02
3.123999999999999844e+01,4.084890763894653831e-02
3.128000000000000114e+01,3.805306280469851477e-02
3.132000000000000028e+01,5.050156833615374735e-02
3.135999999999999943e+01,5.552277166529395735e-02
3.139999999999999858e+01,7.539743335506195188e-02
3.144000000000000128e+01,8.061331623055410789e-02
3.148000000000000043e+01,1.071323500684839558e-01
3.151999999999999957e+01,1.160609245187907840e-01
3.155999999999999872e+01,1.382793922216446481e-01
3.160000000000000142e+01,1.548295608241934962e-01
3.164000000000000057e+01,1.743110216756096065e-01
3.167999999999999972e+01,2.047370303016175508e-01
3.171999999999999886e+01,2.236313794086814966e-01
3.176000000000000156e+01,2.370528717777017624e-01
3.180000000000000071e+01,2.704093923633402174e-01
3.183999999999999986e+01,2.781621914831330367e-01
3.187999999999999901e+01,2.479982161166312260e-01
3.192000000000000171e+01,2.350330329398275242e-01
3.196000000000000085e+01,2.320351660688164397e-01
3.200000000000000000e+01,2.147694007397199789e-01
3.203999999999999915e+01,1.695545670107120040e-01
3.207999999999999829e+01,1.456428733233122996e-01
3.211999999999999744e+01,1.320893835784487935e-01
3.215999999999999659e+01,1.103267959722343955e-01
3.220000000000000284e+01,9.599073173520895896e-02
3.224000000000000199e+01,8.732218266897534553e-02
3.228000000000000114e+01,8.725282716271465233e-02
3.232000000000000028e+01,7.643358231461014340e-02
3.235999999999999943e+01,6.287770365038650167e-02
3.239999999999999858e+01,6.124358602817150943e-02
3.243999999999999773e+01,4.534156193926281581e-02
3.247999999999999687e+01,5.230623280726873908e-02
3.252000000000000313e+01,3.972597334144446768e-02
3.256000000000000227e+01,4.297637749505640176e-02
3.260000000000000142e+01,4.974439224765546397e-02
3.264000000000000057e+01,3.208134262019742694e-02
3.267999999999999972e+01,3.591686738800038692e-02
3.271999999999999886e+01,3.369318212098512677e-02
3.275999999999999801e+01,5.042728122484844283e-02
3.279999999999999716e+01,4.233942248746853931e-02
3.284000000000000341e+01,4.382797348969964812e-02
3.288000000000000256e+01,3.202583638904089869e-02
3.292000000000000171e+01,4.504483898151278448e-02
3.296000000000000085e+01,4.340503509360715828e-02
3.300000000000000000e+01,2.407281090065758467e-01
3.303999999999999915e+01,4.595497507623078071e-01
3.307999999999999829e+01,2.053934151921740225e-01
3.311999999999999744e+01,3.860070350927520544e-02
3.315999999999999659e+01,3.578616258267270506e-02
3.320000000000000284e+01,4.332980594111318640e-02
3.324000000000000199e+01,3.426018497796455564e-02
3.328000000000000114e+01,2.734004531548578018e-02
3.332000000000000028e+01,2.374205787251625413e-02
3.335999999999999943e+01,3.968817970304311382e-02
3.339999999999999858e+01,2.143095959634007397e-02
3.343999999999999773e+01,1.900438709185651998e-02
3.347999999999999687e+01,2.908589179533561941e-02
3.352000000000000313e+01,4.444399782287178358e-02
3.356000000000000227e+01,4.670684864506037537e-02
3.360000000000000142e+01,3.978334902349484753e-02
3.364000000000000057e+01,4.771326699145998079e-02
3.367999999999999972e+01,2.163528320029057747e-02
3.371999999999999886e+01,2.839168079492574923e-02
3.375999999999999801e+01,4.277001863907547996e-02
3.379999999999999716e+01,4.600754965437013622e-02
3.384000000000000341e+01,5.237177814997263925e-02
3.388000000000000256e+01,6.127636757438025689e-02
3.392000000000000171e+01,6.333994402438060389e-02
3.396000000000000085e+01,6.638031775121602807e-02
3.400000000000000000e+01,7.176560494820817537e-02
3.403999999999999915e+01,8.281837455350342381e-02
3.407999999999999829e+01,9.172081485974864501e-02
3.411999999999999744e+01,1.029681664519848105e-01
3.415999999999999659e+01,1.265281376007610370e-01
3.420000000000000284e+01,1.205754388387796777e-01
3.424000000000000199e+01,1.437436517827177518e-01
3.428000000000000114e+01,1.575300566314790096e-01
3.432000000000000028e+01,1.574394113439120391e-01
3.435999999999999943e+01,1.983918373215274311e-01
3.439999999999999858e+01,1.719152064985152439e-01
3.443999999999999773e+01,1.733868120942513857e-01
3.447999999999999687e+01,1.750534244041736520e-01
3.452000000000000313e+01,1.624520923885263701e-01
3.456000000000000227e+01,1.375372680640786216e-01
3.460000000000000142e+01,1.478021524020081412e-01
3.464000000000000057e+01,1.160458612536955370e-01
3.467999999999999972e+01,1.165375981944129502e-01
3.471999999999999886e+01,9.865703640515294248e-02
3.475999999999999801e+01,8.448949117437609679e-02
3.479999999999999716e+01,8.830246681124512276e-02
3.484000000000000341e+01,8.312451470912804452e-02
3.488000000000000256e+01,7.599166402133733511e-02
3.492000000000000171e+01,6.143144633430940721e-02
3.496000000000000085e+01,5.644759979996128579e-02
3.500000000000000000e+01,5.654488237714145465e-02
3.503999999999999915e+01,5.585993510332143419e-02
3.507999999999999829e+01,6.455591152353283568e-02
3.511999999999999744e+01,5.742037050148557364e-02
3.515999999999999659e+01,4.774358997393024495e-02
3.520000000000000284e+01,4.940218370106479184e-02
3.524000000000000199e+01,4.754231009416846898e-02
3.528000000000000114e+01,4.900455303207134489e-02
3.532000000000000028e+01,5.515702870809534308e-02
3.535999999999999943e+01,6.052726870867661951e-02
3.539999999999999858e+01,7.019684944230340784e-02
3.543999999999999773e+01,5.172185461683537905e-02
3.547999999999999687e+01,6.686299024066830188e-02
3.552000000000000313e+01,8.200366837476709414e-02
3.556000000000000227e+01,7.251778370628902959e-02
3.560000000000000142e+01,8.804843522571868808e-02
3.564000000000000057e+01,8.833389566161793660e-02
3.567999999999999972e+01,1.060135251244990612e-01
3.571999999999999886e+01,1.117705317139407462e-01
3.575999999999999801e+01,1.362898227956307884e-01
3.579999999999999716e+01,1.475183726263936679e-01
3.584000000000000341e+01,1.644143721029708294e-01
3.588000000000000256e+01,2.026134424559019875e-01
3.592000000000000171e+01,2.642654809764389268e-01
3.596000000000000085e+01,3.009000588648811370e-01
3.600000000000000000e+01,3.586422601710290703e-01
3.603999999999999915e+01,4.472643478909494319e-01
3.607999999999999829e+01,4.844838607394796881e-01
3.611999999999999744e+01,5.357749649401820635e-01
3.615999999999999659e+01,5.540353486147330253e-01
3.620000000000000284e+01,5.844128694405210656e-01
3.624000000000000199e+01,5.413024964661818927e-01
3.628000000000000114e+01,5.230132020283276839e-01
3.632000000000000028e+01,4.779474329355390960e-01
3.635999999999999943e+01,4.209590293204262257e-01
3.639999999999999858e+01,3.936778339196933540e-01
3.643999999999999773e+01,3.620963682453406385e-01
3.647999999999999687e+01,3.213284997072519134e-01
3.652000000000000313e+01,2.750876877925381714e-01
3.656000000000000227e+01,2.470228099855192316e-01
3.660000000000000142e+01,2.230618057954042444e-01
3.664000000000000057e+01,1.963640898872524021e-01
3.667999999999999972e+01,1.768973705316130296e-01
3.671999999999999886e+01,1.587982887659573628e-01
3.675999999999999801e+01,1.223268711395038150e-01
3.679999999999999716e+01,1.122400847806758195e-01
3.684000000000000341e+01,1.013710358083588919e-01
3.688000000000000256e+01,8.483359163243676948e-02
3.692000000000000171e+01,9.057642577584300303e-02
3.696000000000000085e+01,8.205127118230606809e-02
3.700000000000000000e+01,8.720680137475955718e-02
3.703999999999999915e+01,5.620447063212586497e-02
3.707999999999999829e+01,5.705923374623894651e-02
3.711999999999999744e+01,3.778264697671440686e-02
3.715999999999999659e+01,4.547702074576496362e-02
3.720000000000000284e+01,6.157505324950356129e-02
3.724000000000000199e+01,3.213384800272133662e-02
3.728000000000000114e+01,3.884952901102305123e-02
3.732000000000000028e+01,4.751917251192629837e-02
3.735999999999999943e+01,4.446160856360505814e-02
3.739999999999999858e+01,3.808098324074883634e-02
3.743999999999999773e+01,4.811726853802886228e-02
3.747999999999999687e+01,3.626318992883154763e-02
3.752000000000000313e+01,1.639536117335480686e-02
3.756000000000000227e+01,2.740739116554894578e-02
3.760000000000000142e+01,3.236012230017747127e-02
3.764000000000000057e+01,3.711691208365832523e-02
3.767999999999999972e+01,3.131916024036677376e-02
3.771999999999999886e+01,2.884348053050078686e-02
3.775999999999999801e+01,2.363106871704950818e-02
3.779999999999999716e+01,3.073121020710541801e-02
3.784000000000000341e+01,1.769998870852821857e-02
3.788000000000000256e+01,2.655813750698716655e-02
3.792000000000000171e+01,1.782571042897411473e-02
3.796000000000000085e+01,2.433751285948368426e-02
3.800000000000000000e+01,2.537634497532187741e-02
3.803999999999999915e+01,3.950950712426522932e-02
3.807999999999999829e+01,3.917921487623439447e-02
3.811999999999999744e+01,2.829437299282281174e-02
3.815999999999999659e+01,3.421731917351686358e-02
3.820000000000000284e+01,3.466729139926302133e-02
3.824000000000000199e+01,3.335774915717236444e-02
3.828000000000000114e+01,3.419759720883837339e-02
3.832000000000000028e+01,2.975991439587299600e-02
3.835999999999999943e+01,3.372586920399182203e-02
3.839999999999999858e+01,2.948261257413212558e-02
3.843999999999999773e+01,2.680240750236047645e-02
3.847999999999999687e+01,2.959415875027049045e-02
3.852000000000000313e+01,4.137588053049073150e-02
3.856000000000000227e+01,4.201670884327458888e-02
3.860000000000000142e+01,4.558870272330244056e-02
3.864000000000000057e+01,4.446949573770382635e-02
3.867999999999999972e+01,5.331748274460643144e-02
3.871999999999999886e+01,5.317447139115827337e-02
3.875999999999999801e+01,9.251088902094913025e-02
3.879999999999999716e+01,1.048753415818941964e-01
3.884000000000000341e+01,1.401063733389602828e-01
3.888000000000000256e+01,1.786594561158480754e-01
3.892000000000000171e+01,2.162347931458886152e-01
3.896000000000000085e+01,2.739404733451302199e-01
3.900000000000000000e+01,3.023288415414601138e-01
3.903999999999999915e+01,2.630926232082646532e-01
3.907999999999999829e+01,2.291329049994388634e-01
3.911999999999999744e+01,1.973225617952083233e-01
3.915999999999999659e+01,1.580847744178781045e-01
3.920000000000000284e+01,1.172829003738662251e-01
3.924000000000000199e+01,8.156207826752026602e-02
3.928000000000000114e+01,5.561299395836352688e-02
3.932000000000000028e+01,4.803523879556806375e-02
3.935999999999999943e+01,3.713438658352768984e-02
3.939999999999999858e+01,4.382308096380824192e-02
3.943999999999999773e+01,3.370295289944488099e-02
3.947999999999999687e+01,2.983654405131026116e-02
3.952000000000000313e+01,3.085573676997204265e-02
3.956000000000000227e+01,3.558785868048025547e-02
3.960000000000000142e+01,3.230619258583312947e-02
3.964000000000000057e+01,2.511508852210668497e-02
3.967999999999999972e+01,2.339591893640266193e-02
3.971999999999999886e+01,2.343522288549943974e-02
3.975999999999999801e+01,1.409261899584265954e-02
3.979999999999999716e+01,1.960332057519956553e-02
3.984000000000000341e+01,2.237725219209516295e-02
3.988000000000000256e+01,2.339163949088647956e-02
3.992000000000000171e+01,2.479637976282489734e-02
3.996000000000000085e+01,3.304116633777581802e-02
4.000000000000000000e+01,2.701790884358027181e-02
4.003999999999999915e+01,3.662973354799630571e-02
4.007999999999999829e+01,2.220124900303329860e-02
4.011999999999999744e+01,2.731675069022007976e-02
4.015999999999999659e+01,1.699153374914456199e-02
4.020000000000000284e+01,1.428813984067939247e-02
4.024000000000000199e+01,1.998834933469901404e-02
4.028000000000000114e+01,3.252859930728858179e-02
4.032000000000000028e+01,1.438339632976430929e-02
4.035999999999999943e+01,1.597762049054041178e-02
4.039999999999999858e+01,2.206653965193134531e-02
4.043999999999999773e+01,2.463689683210162906e-02
4.047999999999999687e+01,3.150650228229364552e-02
4.052000000000000313e+01,1.824469596414704867e-02
4.056000000000000227e+01,2.491775841850677603e-02
4.060000000000000142e+01,1.790910170633780440e-02
4.064000000000000057e+01,1.774047892024102971e-02
4.067999999999999972e+01,1.659407835286356644e-02
4.071999999999999886e+01,2.736928739199115737e-02
4.075999999999999801e+01,2.544000072478103808e-02
4.079999999999999716e+01,1.432423256386177075e-02
4.084000000000000341e+01,3.012464807370381775e-03
4.088000000000000256e+01,1.515357493962677347e-02
4.092000000000000171e+01,2.416700490296377554e-02
4.096000000000000085e+01,2.184405244106361541e-02
4.100000000000000000e+01,1.717519945206327781e-02
4.103999999999999915e+01,1.954181838306449231e-02
4.107999999999999829e+01,2.014887115430222947e-02
4.111999999999999744e+01,3.072307350666755171e-02
4.115999999999999659e+01,2.644287485283523115e-02
4.120000000000000284e+01,1.688509291438950594e-02
4.124000000000000199e+01,3.097562758667635890e-02
4.128000000000000114e+01,1.398980128655708324e-02
4.132000000000000028e+01,1.185725278934995387e-02
4.135999999999999943e+01,1.812828730907896715e-02
4.139999999999999858e+01,1.443104831633957967e-02
4.143999999999999773e+01,1.972372670787312515e-02
4.147999999999999687e+01,3.146553318735258176e-02
4.152000000000000313e+01,2.620303408882987059e-02
4.156000000000000227e+01,1.996274119180969225e-02
4.160000000000000142e+01,2.818483045234958934e-02
4.164000000000000057e+01,2.155250997002817678e-02
4.167999999999999972e+01,2.000119701399910577e-02
4.171999999999999886e+01,2.235821920931236467e-02
4.175999999999999801e+01,3.429148878790342497e-02
4.179999999999999716e+01,2.433431583004418489e-02
4.184000000000000341e+01,2.551695099521167354e-02
4.188000000000000256e+01,2.454911489054463145e-02
4.192000000000000171e+01,2.866228194383809227e-02
4.196000000000000085e+01,2.378439166430094606e-02
4.200000000000000000e+01,2.867818967419232326e-02
4.203999999999999915e+01,3.063973240409821261e-02
4.207999999999999829e+01,3.338247934112963805e-02
4.211999999999999744e+01,3.436564118895958642e-02
4.215999999999999659e+01,1.404468977128877673e-02
4.220000000000000284e+01,3.163954252824122126e-02
4.224000000000000199e+01,2.832117111254719294e-02
4.228000000000000114e+01,3.106102267472810388e-02
4.232000000000000028e+01,3.458207407570272618e-02
4.235999999999999943e+01,2.891661558881129454e-02
4.239999999999999858e+01,3.888619634526848529e-02
4.243999999999999773e+01,3.576036026810022750e-02
4.247999999999999687e+01,4.279709429266162490e-02
4.252000000000000313e+01,3.537029310610990962e-02
4.256000000000000227e+01,5.432801834721969619e-02
4.260000000000000142e+01,7.191704031142934217e-02
4.264000000000000057e+01,6.527026115623786595e-02
4.267999999999999972e+01,5.862289418941258462e-02
4.271999999999999886e+01,7.034679448424767390e-02
4.275999999999999801e+01,7.972476221754902503e-02
4.279999999999999716e+01,9.457460764055904134e-02
4.284000000000000341e+01,1.188052355148712519e-01
4.288000000000000256e+01,1.416671550158960236e-01
4.292000000000000171e+01,1.518245394955965444e-01
4.296000000000000085e+01,2.493453687609269165e-01
4.300000000000000000e+01,3.130535719047190524e-01
4.303999999999999915e+01,4.617798750842410649e-01
4.307999999999999829e+01,5.935018442916037973e-01
4.311999999999999744e+01,7.924563921006838596e-01
4.315999999999999659e+01,9.370765570553485357e-01
4.320000000000000284e+01,1.000000000000000000e+00
4.324000000000000199e+01,9.642229813266112171e-01
4.328000000000000114e+01,8.174324480147329153e-01
4.332000000000000028e+01,6.768955640257743323e-01
4.335999999999999943e+01,5.254131444772249804e-01
4.339999999999999858e+01,3.854613952065103488e-01
4.343999999999999773e+01,2.787347409531259479e-01
4.347999999999999687e+01,2.040605093421218874e-01
4.352000000000000313e+01,1.563571225088993266e-01
4.356000000000000227e+01,1.211616294137024680e-01
4.360000000000000142e+01,1.062918403077736523e-01
4.364000000000000057e+01,8.751254042723485838e-02
4.367999999999999972e+01,7.928667935573138759e-02
4.371999999999999886e+01,6.070161199558693488e-02
4.375999999999999801e+01,6.341947208490140986e-02
4.379999999999999716e+01,4.053339301983390625e-02
4.384000000000000341e+01,4.461815290810544621e-02
4.388000000000000256e+01,4.147082798723385200e-02
4.392000000000000171e+01,4.477258674293452950e-02
4.396000000000000085e+01,3.243811243063642047e-02
4.400000000000000000e+01,3.534775769050975402e-02
4.403999999999999915e+01,4.490192971727190174e-02
4.407999999999999829e+01,3.276106298291377172e-02
4.411999999999999744e+01,2.843739320622842154e-02
4.415999999999999659e+01,3.447170822743232665e-02
4.420000000000000284e+01,3.855095502607648605e-02
4.424000000000000199e+01,3.793889903135137798e-02
4.428000000000000114e+01,3.263553951520167112e-02
4.432000000000000028e+01,3.593115441437808727e-02
4.435999999999999943e+01,2.163607622017820614e-02
4.439999999999999858e+01,2.082610284725483832e-02
4.443999999999999773e+01,3.838736542961364989e-02
4.447999999999999687e+01,2.545854461858922807e-02
4.452000000000000313e+01,2.230136622950896694e-02
4.456000000000000227e+01,2.109801855502002610e-02
4.460000000000000142e+01,1.637603318155866211e-02
4.464000000000000057e+01,2.357558606518241409e-02
4.467999999999999972e+01,2.608382814682863940e-02
4.471999999999999886e+01,3.250035077566921365e-02
4.475999999999999801e+01,2.210795412851031955e-02
4.479999999999999716e+01,1.855551568967181431e-02
4.484000000000000341e+01,2.575194022074726516e-02
4.488000000000000256e+01,2.903883140749839373e-02
4.492000000000000171e+01,1.962115117015995891e-02
4.496000000000000085e+01,2.017055062063982662e-02
4.500000000000000000e+01,2.365099914951476062e-02
4.503999999999999915e+01,2.380824724529141331e-02
4.507999999999999829e+01,2.005595835646721559e-02
4.511999999999999744e+01,7.507999892925741603e-03
4.515999999999999659e+01,1.157225680932897141e-02
4.520000000000000284e+01,3.048972090727959661e-02
4.524000000000000199e+01,2.360777436637485210e-02
4.528000000000000114e+01,2.317488674816199634e-02
4.532000000000000028e+01,1.902790305149882483e-02
4.535999999999999943e+01,2.445710121313596913e-02
4.539999999999999858e+01,2.363141327194048444e-02
4.543999999999999773e+01,2.436864947915461446e-02
4.547999999999999687e+01,2.471435636189877466e-02
4.552000000000000313e+01,2.447308791763511127e-02
4.556000000000000227e+01,1.778148518383514121e-02
4.560000000000000142e+01,2.809298037033643516e-02
4.564000000000000057e+01,2.609078157671756645e-02
4.567999999999999972e+01,2.271982344593992398e-02
4.571999999999999886e+01,1.250763756443992389e-02
4.575999999999999801e+01,2.164388998480912610e-02
4.579999999999999716e+01,2.902049033488882102e-02
4.584000000000000341e+01,1.294301241907276634e-02
4.588000000000000256e+01,2.579078907059964218e-02
4.592000000000000171e+01,1.674804819597973740e-02
4.596000000000000085e+01,3.096264747260131164e-02
4.600000000000000000e+01,7.260215259405396020e-03
4.603999999999999915e+01,3.906359203094304788e-02
4.607999999999999829e+01,1.946421191726418337e-02
4.611999999999999744e+01,2.312216904260564962e-02
4.615999999999999659e+01,2.384779589826513044e-02
4.620000000000000284e+01,1.851396736446837832e-02
4.624000000000000199e+01,2.959688927864055630e-02
4.628000000000000114e+01,1.448949107555452115e-02
4.632000000000000028e+01,1.247627219812540156e-02
4.635999999999999943e+01,2.101644335002613231e-02
4.639999999999999858e+01,2.760150623632529748e-02
4.643999999999999773e+01,2.597721134552948008e-02
4.647999999999999687e+01,1.848890124337265045e-02
4.652000000000000313e+01,2.272664990521916506e-02
4.656000000000000227e+01,2.540017793820767075e-02
4.660000000000000142e+01,1.888711890946782532e-02
4.664000000000000057e+01,3.621772347847664747e-02
4.667999999999999972e+01,2.872611757105122954e-02
4.671999999999999886e+01,2.787898965080914601e-02
4.675999999999999801e+01,2.839931657866921755e-02
4.679999999999999716e+01,3.634590113553174545e-02
4.684000000000000341e+01,4.096925249680728742e-02
4.688000000000000256e+01,3.484244950410773228e-02
4.692000000000000171e+01,2.773775515349981291e-02
4.696000000000000085e+01,3.998147726310199990e-02
4.700000000000000000e+01,3.463445822767781401e-02
4.703999999999999915e+01,2.889588147362666740e-02
4.707999999999999829e+01,3.449246274183965372e-02
4.711999999999999744e+01,3.227056440498237561e-02
4.715999999999999659e+01,3.395690220394585734e-02
4.720000000000000284e+01,3.798791321481535116e-02
4.724000000000000199e+01,3.263688024058911119e-02
4.728000000000000114e+01,3.432120560973681705e-02
4.732000000000000028e+01,4.831791100522904447e-02
4.735999999999999943e+01,4.706921199698637509e-02
4.739999999999999858e+01,5.051052585416247048e-02
4.743999999999999773e+01,4.906503339906242295e-02
4.747999999999999687e+01,3.413314182640354161e-02
4.752000000000000313e+01,4.324034310875910642e-02
4.756000000000000227e+01,3.886114381744519564e-02
4.760000000000000142e+01,4.210363286851011994e-02
4.764000000000000057e+01,4.339099108425899937e-02
4.767999999999999972e+01,3.412362565940912223e-02
4.771999999999999886e+01,3.814585935276290640e-02
4.775999999999999801e+01,3.395871124319664591e-02
4.779999999999999716e+01,4.012948167848680303e-02
4.784000000000000341e+01,3.672275193336923399e-02
4.788000000000000256e+01,4.230582235562038718e-02
4.792000000000000171e+01,4.124307025858979514e-02
4.796000000000000085e+01,4.232953226593189761e-02
4.800000000000000000e+01,4.009273996408314888e-02
4.803999999999999915e+01,2.984200603740967683e-02
4.807999999999999829e+01,4.519391696883576920e-02
4.811999999999999744e+01,3.806893450762595388e-02
4.815999999999999659e+01,3.367949833395963988e-02
4.820000000000000284e+01,4.942023714871876527e-02
4.824000000000000199e+01,3.017558281979982465e-02
4.828000000000000114e+01,3.536089806180937184e-02
4.832000000000000028e+01,1.924198791780106291e-02
4.835999999999999943e+01,2.677126479068086401e-02
4.839999999999999858e+01,2.550481238830839409e-02
4.843999999999999773e+01,2.306499568744353051e-02
4.847999999999999687e+01,2.003814978347823184e-02
4.852000000000000313e+01,3.499157502418910604e-02
4.856000000000000227e+01,3.254967600019906954e-02
4.860000000000000142e+01,2.834807394204809025e-02
4.864000000000000057e+01,2.707745470925940895e-02
4.867999999999999972e+01,2.248356879033961558e-02
4.871999999999999886e+01,2.101610951515398701e-02
4.875999999999999801e+01,2.599764582184869305e-02
4.879999999999999716e+01,3.215115457134248150e-02
4.884000000000000341e+01,2.814080911559856818e-02
4.888000000000000256e+01,2.842955903826216782e-02
4.892000000000000171e+01,2.187702296577898400e-02
4.896000000000000085e+01,2.431426740317126078e-02
4.900000000000000000e+01,2.401457515343733903e-02
4.903999999999999915e+01,2.703674899747757557e-02
4.907999999999999829e+01,2.556297722793897040e-02
4.911999999999999744e+01,2.584750790020440281e-02
4.915999999999999659e+01,1.987708403243847871e-02
4.920000000000000284e+01,2.563267014897034624e-02
4.924000000000000199e+01,3.236477542521058043e-02
4.928000000000000114e+01,1.857441894003538860e-02
4.932000000000000028e+01,2.159164739153554557e-02
4.935999999999999943e+01,1.952658930962249823e-02
4.939999999999999858e+01,1.277013451520574161e-02
4.943999999999999773e+01,2.927095653121897234e-02
4.947999999999999687e+01,2.583564896898756999e-02
4.952000000000000313e+01,2.572219876386668685e-02
4.956000000000000227e+01,1.544488124851256701e-02
4.960000000000000142e+01,2.705672070999005571e-02
4.964000000000000057e+01,2.772291030719404095e-02
4.967999999999999972e+01,2.193869062516520113e-02
4.971999999999999886e+01,2.748958091375037702e-02
4.975999999999999801e+01,2.580827936906239517e-02
4.979999999999999716e+01,2.314903404648404814e-02
4.984000000000000341e+01,2.342074970760886499e-02
4.988000000000000256e+01,2.975055001610048960e-02
4.992000000000000171e+01,2.122578987428265160e-02
4.996000000000000085e+01,2.305890896233475304e-02
5.000000000000000000e+01,2.117784678946576724e-02
5.003999999999999915e+01,2.672298327311954658e-02
5.007999999999999829e+01,2.503592209905771554e-02
5.011999999999999744e+01,3.155683922333778896e-02
5.015999999999999659e+01,2.459130845035358698e-02
5.020000000000000284e+01,2.153395848098694013e-02
5.024000000000000199e+01,2.277567913614749612e-02
5.028000000000000114e+01,2.049865870848225843e-02
5.032000000000000028e+01,2.584327711543508987e-02
5.035999999999999943e+01,3.020994155172327875e-02
5.039999999999999858e+01,3.262142491687929774e-02
5.043999999999999773e+01,2.428268913113812086e-02
5.047999999999999687e+01,1.535688773953119979e-02
5.052000000000000313e+01,3.086101514775566740e-02
5.056000000000000227e+01,2.506087639886522139e-02
5.060000000000000142e+01,1.613288129167141094e-02
5.064000000000000057e+01,1.795364358637226848e-02
5.067999999999999972e+01,3.130494365284217789e-02
5.071999999999999886e+01,1.924762388584472586e-02
5.075999999999999801e+01,2.458419866897896058e-02
5.079999999999999716e+01,1.760698555285862207e-02
5.084000000000000341e+01,3.036900882454867875e-02
5.088000000000000256e+01,1.694062825262029545e-02
5.092000000000000171e+01,1.934257712274288152e-02
5.096000000000000085e+01,1.842121780758195632e-02
5.100000000000000000e+01,3.059395263560719946e-02
5.103999999999999915e+01,1.657628070779283008e-02
5.107999999999999829e+01,2.972476122978971735e-02
5.111999999999999744e+01,2.039629375500270556e-02
5.115999999999999659e+01,2.181657421739139832e-02
5.120000000000000284e+01,2.558145508615550234e-02
5.124000000000000199e+01,1.664164949809182961e-02
5.128000000000000114e+01,2.783196283819504638e-02
5.132000000000000028e+01,2.827204101018427479e-02
5.135999999999999943e+01,3.047038085288041737e-02
5.139999999999999858e+01,2.250481989479923353e-02
5.143999999999999773e+01,2.079276046441045495e-02
5.147999999999999687e+01,1.947084359918561935e-02
5.152000000000000313e+01,2.342520043313032693e-02
5.156000000000000227e+01,2.659702672923367622e-02
5.160000000000000142e+01,2.507741626979157618e-02
5.164000000000000057e+01,2.355705491432723633e-02
5.167999999999999972e+01,2.907197181615321646e-02
5.171999999999999886e+01,1.934140495621605033e-02
5.175999999999999801e+01,1.957779401469519204e-02
5.179999999999999716e+01,1.903164816700116113e-02
5.184000000000000341e+01,2.102553635128014478e-02
5.188000000000000256e+01,1.480996774294252201e-02
5.192000000000000171e+01,1.680234467045802621e-02
5.196000000000000085e+01,2.700266640577140068e-02
5.200000000000000000e+01,2.371650675327644647e-02
5.203999999999999915e+01,3.547887505935409802e-02
5.207999999999999829e+01,2.847773811048688597e-02
5.211999999999999744e+01,2.948909778271391682e-02
5.215999999999999659e+01,2.639534633006845529e-02
5.220000000000000284e+01,2.642795818034554545e-02
5.224000000000000199e+01,2.196456690067472711e-02
5.228000000000000114e+01,1.495962450782513734e-02
5.232000000000000028e+01,3.003923485852880854e-02
5.235999999999999943e+01,2.010108607446242299e-02
5.239999999999999858e+01,2.872947363715490365e-02
5.243999999999999773e+01,2.719394146963209288e-02
5.247999999999999687e+01,1.471270774590901359e-02
5.252000000000000313e+01,2.802948334062914035e-02
5.256000000000000227e+01,2.453719768856514952e-02
5.260000000000000142e+01,3.296630541058043901e-02
5.264000000000000057e+01,2.849525591934988153e-02
5.267999999999999972e+01,1.171038431026540094e-02
5.271999999999999886e+01,2.072351837934752541e-02
5.275999999999999801e+01,3.227666973513061699e-02
5.279999999999999716e+01,2.858431767165739781e-02
5.284000000000000341e+01,2.586841924291489320e-02
5.288000000000000256e+01,1.963373240775178816e-02
5.292000000000000171e+01,2.277964455395385321e-02
5.296000000000000085e+01,2.709745342520327241e-02
5.300000000000000000e+01,3.024181499965539546e-02
5.303999999999999915e+01,1.892244988444910861e-02
5.307999999999999829e+01,1.483378281907982502e-02
5.311999999999999744e+01,2.383917130996552128e-02
5.315999999999999659e+01,2.502597025942982292e-02
5.320000000000000284e+01,3.148901232974087028e-02
5.324000000000000199e+01,2.935168230459007932e-02
5.328000000000000114e+01,2.369555659246566984e-02
5.332000000000000028e+01,2.839724895356555978e-02
5.335999999999999943e+01,2.488945758400255490e-02
5.339999999999999858e+01,2.783057734190443055e-02
5.343999999999999773e+01,3.331170200956709571e-02
5.347999999999999687e+01,2.432909197896288359e-02
5.352000000000000313e+01,2.726785857716594250e-02
5.356000000000000227e+01,3.685097866509515208e-02
5.360000000000000142e+01,3.177491659610909291e-02
5.364000000000000057e+01,3.295231601177362607e-02
5.367999999999999972e+01,4.507386277161205823e-02
5.371999999999999886e+01,2.768238432970391086e-02
5.375999999999999801e+01,3.452533044066494888e-02
5.379999999999999716e+01,3.628590920407379072e-02
5.384000000000000341e+01,4.605895328219871548e-02
5.388000000000000256e+01,3.472311604910072180e-02
5.392000000000000171e+01,3.863121783045844054e-02
5.396000000000000085e+01,4.566565088030530989e-02
5.400000000000000000e+01,5.543552392162105075e-02
5.403999999999999915e+01,6.442282128566649557e-02
5.407999999999999829e+01,7.419110444024581974e-02
5.411999999999999744e+01,8.532670848075114833e-02
5.415999999999999659e+01,9.685240630671483608e-02
5.420000000000000284e+01,9.665059017217035586e-02
5.424000000000000199e+01,1.101291450317797016e-01
5.428000000000000114e+01,1.099257317299457276e-01
5.432000000000000028e+01,9.369500624482400564e-02
5.435999999999999943e+01,8.664940825659400714e-02
5.439999999999999858e+01,8.566181264548131113e-02
5.443999999999999773e+01,7.060135541173938323e-02
5.447999999999999687e+01,7.000304590174905028e-02
5.452000000000000313e+01,4.653683596130907263e-02
5.456000000000000227e+01,4.476424744436038189e-02
5.460000000000000142e+01,4.357718997874419214e-02
5.464000000000000057e+01,4.141210064054574175e-02
5.467999999999999972e+01,3.025572244792953946e-02
5.471999999999999886e+01,2.867535574867218981e-02
5.475999999999999801e+01,3.041675103128030355e-02
5.479999999999999716e+01,2.609853439254139831e-02
5.484000000000000341e+01,3.585156837609149161e-02
5.488000000000000256e+01,3.270440437529862493e-02
5.492000000000000171e+01,2.818831285657139724e-02
5.496000000000000085e+01,1.526726321048663126e-02
5.500000000000000000e+01,3.361664542892442431e-02
5.503999999999999915e+01,2.733911028185162517e-02
5.507999999999999829e+01,3.044213480115737919e-02
5.511999999999999744e+01,2.553108882984932854e-02
5.515999999999999659e+01,2.550535975571324027e-02
5.520000000000000284e+01,3.388296179137761238e-02
5.524000000000000199e+01,2.857857819227146989e-02
5.528000000000000114e+01,2.972307150203085807e-02
5.532000000000000028e+01,2.930318473882035160e-02
5.535999999999999943e+01,3.044604156630376438e-02
5.539999999999999858e+01,2.122947951299689398e-02
5.543999999999999773e+01,2.627960243563197407e-02
5.547999999999999687e+01,3.504236478410179684e-02
5.552000000000000313e+01,2.425977816694078332e-02
5.556000000000000227e+01,2.833021016500310296e-02
5.560000000000000142e+01,2.751368732750689508e-02
5.564000000000000057e+01,2.825990298431745734e-02
5.567999999999999972e+01,2.509638872187118161e-02
5.571999999999999886e+01,3.580866379001473865e-02
5.575999999999999801e+01,2.443479695592388340e-02
5.579999999999999716e+01,2.713216327079472773e-02
5.584000000000000341e+01,3.764651322313392057e-02
5.588000000000000256e+01,2.705194546148490323e-02
5.592000000000000171e+01,3.072405393911415220e-02
5.596000000000000085e+01,3.654523091005504321e-02
5.600000000000000000e+01,3.474321192213023629e-02
5.603999999999999915e+01,4.036728238243229849e-02
5.607999999999999829e+01,3.993171762361764215e-02
5.611999999999999744e+01,4.711768613140169398e-02
5.615999999999999659e+01,4.804857268947592547e-02
5.620000000000000284e+01,4.506971986357433124e-02
5.624000000000000199e+01,5.010328866907041989e-02
5.628000000000000114e+01,5.376790520275175067e-02
5.632000000000000028e+01,5.704079510897523686e-02
5.635999999999999943e+01,5.190870140590557458e-02
5.639999999999999858e+01,6.358406377372211038e-02
5.643999999999999773e+01,6.880889382095928264e-02
5.647999999999999687e+01,8.224158640574481816e-02
5.652000000000000313e+01,6.713842919732450343e-02
5.656000000000000227e+01,8.447834710616450304e-02
5.660000000000000142e+01,8.364101331325750344e-02
5.664000000000000057e+01,8.436639981327455351e-02
5.667999999999999972e+01,7.649135160507360143e-02
5.671999999999999886e+01,9.715047011226282669e-02
5.675999999999999801e+01,8.477849314481838983e-02
5.679999999999999716e+01,7.455556938152411994e-02
5.684000000000000341e+01,8.270365587636734073e-02
5.688000000000000256e+01,8.049229655237395697e-02
5.692000000000000171e+01,7.691197330768095863e-02
5.696000000000000085e+01,6.629477245424222898e-02
5.700000000000000000e+01,6.740343961431684294e-02
5.703999999999999915e+01,6.401601627780677262e-02
5.707999999999999829e+01,6.043229775527054343e-02
5.711999999999999744e+01,6.056118880830160811e-02
5.715999999999999659e+01,5.521676080816999982e-02
5.720000000000000284e+01,4.752613741853936591e-02
5.724000000000000199e+01,4.315723087134523683e-02
5.728000000000000114e+01,4.699617230059331685e-02
5.732000000000000028e+01,4.145288627480865629e-02
5.735999999999999943e+01,3.454062831971600744e-02
5.739999999999999858e+01,3.505443505896992107e-02
5.743999999999999773e+01,3.204937039349835259e-02
5.747999999999999687e+01,3.295235402557874366e-02
5.752000000000000313e+01,3.365903446302461605e-02
5.756000000000000227e+01,3.514663735019277896e-02
5.760000000000000142e+01,3.409259229282646936e-02
5.764000000000000057e+01,2.893333636701091172e-02
5.767999999999999972e+01,2.924568729433032685e-02
5.771999999999999886e+01,2.232570150537078330e-02
5.775999999999999801e+01,2.537256242653172442e-02
5.779999999999999716e+01,3.310924691873199516e-02
5.784000000000000341e+01,3.185458504014541253e-02
5.788000000000000256e+01,2.160857606271670076e-02
5.792000000000000171e+01,2.523831637283608514e-02
5.796000000000000085e+01,3.003986240108959607e-02
5.800000000000000000e+01,3.132252683184338915e-02
5.803999999999999915e+01,2.537284872187578130e-02
5.807999999999999829e+01,3.818504884929608406e-02
5.811999999999999744e+01,2.519760390405255748e-02
5.815999999999999659e+01,2.921302826974424977e-02
5.820000000000000284e+01,2.970956739765977933e-02
5.824000000000000199e+01,2.649177528526125772e-02
5.828000000000000114e+01,3.011369602654523012e-02
5.832000000000000028e+01,2.845772187554509308e-02
5.835999999999999943e+01,2.855988198557334393e-02
5.839999999999999858e+01,2.299325519824196515e-02
5.843999999999999773e+01,2.074832341168793975e-02
5.847999999999999687e+01,2.280231227026815327e-02
5.852000000000000313e+01,2.954611159489216321e-02
5.856000000000000227e+01,2.143519320926061400e-02
5.860000000000000142e+01,2.837268338113167060e-02
5.864000000000000057e+01,2.651425789559215887e-02
5.867999999999999972e+01,3.149553798318205367e-02
5.871999999999999886e+01,3.237158754482945960e-02
5.875999999999999801e+01,2.777428893110190852e-02
5.879999999999999716e+01,2.239432800152267589e-02
5.884000000000000341e+01,2.991287324180730983e-02
5.888000000000000256e+01,2.433570241773594031e-02
5.892000000000000171e+01,2.579367807294458831e-02
5.896000000000000085e+01,3.409135420489551455e-02
5.900000000000000000e+01,2.616618769660549598e-02
5.903999999999999915e+01,2.703517295377151977e-02
5.907999999999999829e+01,2.497159277939188515e-02
5.911999999999999744e+01,2.877048379712115675e-02
5.915999999999999659e+01,2.377344969272094169e-02
5.920000000000000284e+01,2.522522114776626703e-02
5.924000000000000199e+01,2.237630733766766619e-02
5.928000000000000114e+01,1.483581698540492773e-02
5.932000000000000028e+01,2.644807284978044348e-02
5.935999999999999943e+01,2.672361138347821574e-02
5.939999999999999858e+01,2.211212591636356473e-02
5.943999999999999773e+01,2.394944164036260509e-02
5.947999999999999687e+01,1.992250553502633581e-02
5.952000000000000313e+01,2.781683685020153521e-02
5.956000000000000227e+01,2.456989246890489698e-02
5.960000000000000142e+01,2.581729362167642025e-02
5.964000000000000057e+01,1.220995740669918346e-02
5.967999999999999972e+01,2.185971161999363671e-02
5.971999999999999886e+01,3.502658281077809105e-02
5.975999999999999801e+01,2.102566215725410262e-02
5.979999999999999716e+01,2.187768294509110506e-02
5.984000000000000341e+01,2.663770907521698442e-02
5.988000000000000256e+01,1.967011786098136691e-02
5.992000000000000171e+01,2.149666239498507908e-02
5.996000000000000085e+01,2.449497624435763646e-02
