2.003999999999999915e+01,4.180824712976070889e-02
2.007999999999999829e+01,2.937821492544257646e-02
2.012000000000000099e+01,6.363169295337080256e-02
2.016000000000000014e+01,4.503939184999480178e-02
2.019999999999999929e+01,5.108502663566261842e-02
2.023999999999999844e+01,3.216605277304600274e-02
2.028000000000000114e+01,2.070243508219569289e-02
2.032000000000000028e+01,5.851592799329759231e-02
2.035999999999999943e+01,6.390822243787412649e-02
2.039999999999999858e+01,5.146830294089381475e-02
2.044000000000000128e+01,3.059795975966464118e-02
2.048000000000000043e+01,2.755736452139145171e-02
2.051999999999999957e+01,6.115009709351666711e-02
2.055999999999999872e+01,7.528962010413596528e-02
2.060000000000000142e+01,4.403996286212104316e-02
2.064000000000000057e+01,5.590762820660108434e-02
2.067999999999999972e+01,4.151389345479204740e-02
2.071999999999999886e+01,2.906412808427134495e-02
2.076000000000000156e+01,5.357189404891977980e-02
2.080000000000000071e+01,4.695526723286883031e-02
2.083999999999999986e+01,6.011359203470937468e-02
2.087999999999999901e+01,4.312012427538412102e-02
2.092000000000000171e+01,5.692439724707629850e-02
2.096000000000000085e+01,4.187367751886530987e-02
2.100000000000000000e+01,6.475309193405225094e-02
2.103999999999999915e+01,2.117035650314537040e-02
2.107999999999999829e+01,5.571851208435189134e-02
2.112000000000000099e+01,2.834331409801460130e-02
2.116000000000000014e+01,5.543243457193799267e-02
2.119999999999999929e+01,2.837899417415570141e-02
2.123999999999999844e+01,6.130126744037017045e-02
2.128000000000000114e+01,4.299877790478527639e-02
2.132000000000000028e+01,4.511964703663449289e-02
2.135999999999999943e+01,6.604287727444695111e-02
2.139999999999999858e+01,7.270010580906167974e-02
2.144000000000000128e+01,3.818276302416413748e-02
2.148000000000000043e+01,4.029876358183399898e-02
2.151999999999999957e+01,7.321251457812663621e-02
2.155999999999999872e+01,5.684670515320890821e-02
2.160000000000000142e+01,5.863486143383907917e-02
2.164000000000000057e+01,2.573244246540122571e-02
2.167999999999999972e+01,4.729435037048158874e-02
2.171999999999999886e+01,1.633470402575837310e-02
2.176000000000000156e+01,4.502658011656143766e-02
2.180000000000000071e+01,3.092289250377147289e-02
2.183999999999999986e+01,7.092005290897275202e-03
2.187999999999999901e+01,3.869804711259639679e-02
2.192000000000000171e+01,4.663630603422145443e-02
2.196000000000000085e+01,2.896158485257342013e-02
2.200000000000000000e+01,4.013942402526030767e-02
2.203999999999999915e+01,5.261285465250968574e-02
2.207999999999999829e+01,3.850070819282083029e-02
2.212000000000000099e+01,4.416353406058240449e-02
2.216000000000000014e+01,6.408993899357853796e-02
2.219999999999999929e+01,6.002436591498771373e-02
2.223999999999999844e+01,5.174299361743897596e-02
2.228000000000000114e+01,5.967040017701873145e-02
2.232000000000000028e+01,4.360583066653259121e-02
2.235999999999999943e+01,5.996002339396114267e-02
2.239999999999999858e+01,7.307101841631276351e-02
2.244000000000000128e+01,3.722666689700407372e-02
2.248000000000000043e+01,4.417546809245179867e-02
2.251999999999999957e+01,3.912768319766685154e-02
2.255999999999999872e+01,5.936627165863207073e-02
2.260000000000000142e+01,4.977729502862948685e-02
2.264000000000000057e+01,6.904088910774101862e-02
2.267999999999999972e+01,5.588332225640163520e-02
2.271999999999999886e+01,3.850996395218891921e-02
2.276000000000000156e+01,4.836818008996711382e-02
2.280000000000000071e+01,1.802444583732559086e-02
2.283999999999999986e+01,2.334147800597071928e-02
2.287999999999999901e+01,5.329648942429791175e-02
2.292000000000000171e+01,1.289898571295014854e-02
2.296000000000000085e+01,2.631743030122164415e-02
2.300000000000000000e+01,3.552008796683534669e-02
2.303999999999999915e+01,3.823756186486391984e-02
2.307999999999999829e+01,6.721401645708684203e-02
2.312000000000000099e+01,5.274652941899161951e-02
2.316000000000000014e+01,2.822766449581563114e-02
2.319999999999999929e+01,2.672578579106753630e-02
2.323999999999999844e+01,4.726829502673451922e-02
2.328000000000000114e+01,4.025264766548818096e-02
2.332000000000000028e+01,6.144118273185149304e-02
2.335999999999999943e+01,8.711013728433593048e-03
2.339999999999999858e+01,3.767796933222054140e-02
2.344000000000000128e+01,2.968498131765420420e-02
2.348000000000000043e+01,4.827518011074815457e-02
2.351999999999999957e+01,2.698763980427740933e-02
2.355999999999999872e+01,6.891784711516599216e-02
2.360000000000000142e+01,4.535854492426430462e-02
2.364000000000000057e+01,1.109947333090822649e-02
2.367999999999999972e+01,3.422255774531496320e-02
2.371999999999999886e+01,4.502487584297128198e-02
2.376000000000000156e+01,7.560219280219947213e-02
2.380000000000000071e+01,3.906900528686186452e-02
2.383999999999999986e+01,3.268520646276445313e-02
2.387999999999999901e+01,2.824542814667762441e-02
2.392000000000000171e+01,3.579985987936683961e-02
2.396000000000000085e+01,4.854030983170198182e-02
2.400000000000000000e+01,2.950801949377589856e-02
2.403999999999999915e+01,5.099950961827940527e-02
2.407999999999999829e+01,2.807447471944710810e-02
2.412000000000000099e+01,4.275542480183298216e-02
2.416000000000000014e+01,2.631203646610988031e-02
2.419999999999999929e+01,1.991766485900664518e-02
2.423999999999999844e+01,2.973210382054315704e-02
2.428000000000000114e+01,5.672795292307960396e-02
2.432000000000000028e+01,2.147630059024002377e-02
2.435999999999999943e+01,4.263421634192948034e-02
2.439999999999999858e+01,5.795536961339690235e-02
2.444000000000000128e+01,4.506998577253053945e-02
2.448000000000000043e+01,6.330659990287006156e-02
2.451999999999999957e+01,5.690287427424003952e-02
2.455999999999999872e+01,3.785419627777820983e-02
2.460000000000000142e+01,3.987732930045142371e-02
2.464000000000000057e+01,3.703630265113138503e-02
2.467999999999999972e+01,4.910729512244658285e-02
2.471999999999999886e+01,2.259736647632332868e-02
2.476000000000000156e+01,4.666141883534827978e-02
2.480000000000000071e+01,4.576093632389048593e-02
2.483999999999999986e+01,3.772689988420657725e-02
2.487999999999999901e+01,5.270987684424583569e-02
2.492000000000000171e+01,3.235393234000304846e-02
2.496000000000000085e+01,2.334381542759491474e-02
2.500000000000000000e+01,6.588028232856363298e-02
2.503999999999999915e+01,6.075824332107773035e-02
2.507999999999999829e+01,2.224248328837697547e-02
2.512000000000000099e+01,4.402669933725081308e-02
2.516000000000000014e+01,6.354036126121971606e-02
2.519999999999999929e+01,2.955992631431073395e-02
2.523999999999999844e+01,2.799830020182284690e-02
2.528000000000000114e+01,4.848109503560924655e-02
2.532000000000000028e+01,5.275275373884796837e-02
2.535999999999999943e+01,6.221045331281206681e-02
2.539999999999999858e+01,2.465805208634221785e-02
2.544000000000000128e+01,3.476184609141466653e-02
2.548000000000000043e+01,5.167268111737739755e-02
2.551999999999999957e+01,4.783358826445797962e-02
2.555999999999999872e+01,3.588835420725264985e-02
2.560000000000000142e+01,4.663594555716860796e-02
2.564000000000000057e+01,1.653323318253966528e-02
2.567999999999999972e+01,3.570771813113899490e-02
2.571999999999999886e+01,4.029207162957167826e-02
2.576000000000000156e+01,2.769269719118106279e-02
2.580000000000000071e+01,4.880893921455859569e-02
2.583999999999999986e+01,4.949945817817268112e-02
2.587999999999999901e+01,3.170945257956943319e-02
2.592000000000000171e+01,2.105069476249608537e-02
2.596000000000000085e+01,4.702535277144458820e-02
2.600000000000000000e+01,5.581628672661207574e-02
2.603999999999999915e+01,4.936869512554496048e-02
2.607999999999999829e+01,4.259576213494064428e-02
2.612000000000000099e+01,2.933769520912591841e-02
2.616000000000000014e+01,4.298705809333832478e-02
2.619999999999999929e+01,5.274488547051803949e-02
2.623999999999999844e+01,4.856098909424684529e-02
2.628000000000000114e+01,2.719337319441060552e-02
2.632000000000000028e+01,7.585174204322328584e-02
2.635999999999999943e+01,5.675124855312956018e-02
2.639999999999999858e+01,2.922042780766882786e-02
2.644000000000000128e+01,3.929562957950073071e-02
2.648000000000000043e+01,4.807289750834583403e-02
2.651999999999999957e+01,2.053867093467071775e-02
2.655999999999999872e+01,5.816743836675498935e-02
2.660000000000000142e+01,2.155335450839951372e-02
2.664000000000000057e+01,4.588767060767705991e-02
2.667999999999999972e+01,3.002009909238355714e-02
2.671999999999999886e+01,1.869019116826355770e-02
2.676000000000000156e+01,1.740934139188017940e-02
2.680000000000000071e+01,3.201314396152469405e-02
2.683999999999999986e+01,9.332858280851863766e-03
2.687999999999999901e+01,3.755078754726242501e-02
2.692000000000000171e+01,3.367182412536342401e-02
2.696000000000000085e+01,2.817073498483344679e-02
2.700000000000000000e+01,5.476428351263906702e-02
2.703999999999999915e+01,4.990934057711352012e-02
2.707999999999999829e+01,3.435468389607266443e-02
2.712000000000000099e+01,5.802705894292116418e-02
2.716000000000000014e+01,0.000000000000000000e+00
2.719999999999999929e+01,5.317229454310352238e-02
2.723999999999999844e+01,6.290071411478012631e-02
2.728000000000000114e+01,5.447283141704815229e-02
2.732000000000000028e+01,2.853704638053849649e-02
2.735999999999999943e+01,5.512048226584006366e-02
2.739999999999999858e+01,3.210025257556314848e-02
2.744000000000000128e+01,2.690988343646589717e-02
2.748000000000000043e+01,4.376397083819646289e-02
2.751999999999999957e+01,3.662616630244243388e-02
2.755999999999999872e+01,3.986163249962785399e-02
2.760000000000000142e+01,2.915539694726797595e-02
2.764000000000000057e+01,4.762601264246365401e-02
2.767999999999999972e+01,6.512291355161269057e-02
2.771999999999999886e+01,1.161897770847334158e-02
2.776000000000000156e+01,2.911364883742268220e-02
2.780000000000000071e+01,4.725560533049007889e-02
2.783999999999999986e+01,3.654268043753103323e-02
2.787999999999999901e+01,5.079201533269564472e-02
2.792000000000000171e+01,6.341924004139828930e-02
2.796000000000000085e+01,3.649299712854586764e-02
2.800000000000000000e+01,3.258381809496568166e-02
2.803999999999999915e+01,3.937211720213781851e-02
2.807999999999999829e+01,3.675751731005221651e-02
2.812000000000000099e+01,2.927881405008520010e-02
2.816000000000000014e+01,3.703638585659471683e-02
2.819999999999999929e+01,2.955546705424947490e-02
2.823999999999999844e+01,3.633822568754163651e-02
2.828000000000000114e+01,2.690989608114028112e-02
2.832000000000000028e+01,2.688225057879212176e-02
2.835999999999999943e+01,3.171649484346815429e-02
2.839999999999999858e+01,3.752223382159675796e-02
2.844000000000000128e+01,4.689306529418176689e-02
2.848000000000000043e+01,4.329480818022937716e-02
2.851999999999999957e+01,2.380966635135434162e-02
2.855999999999999872e+01,4.160638169824950466e-02
2.860000000000000142e+01,6.231979284483819825e-02
2.864000000000000057e+01,4.931534092294295735e-02
2.867999999999999972e+01,2.172080544173485978e-02
2.871999999999999886e+01,7.741555878791192384e-03
2.876000000000000156e+01,3.039576744402862005e-02
2.880000000000000071e+01,2.354671387195076543e-02
2.883999999999999986e+01,1.896596069915125124e-02
2.887999999999999901e+01,5.630720754025497939e-03
2.892000000000000171e+01,2.439014954157275525e-02
2.896000000000000085e+01,2.629010180792174314e-02
2.900000000000000000e+01,3.272775455434536601e-02
2.903999999999999915e+01,5.829209230581221951e-02
2.907999999999999829e+01,2.485100205286113959e-02
2.912000000000000099e+01,2.609818090228179649e-02
2.916000000000000014e+01,3.350406102911576006e-02
2.919999999999999929e+01,4.804124200572300329e-02
2.923999999999999844e+01,4.701574955826298002e-02
2.928000000000000114e+01,4.339557000306052542e-02
2.932000000000000028e+01,3.134511043617122655e-02
2.935999999999999943e+01,2.221135896527608525e-02
2.939999999999999858e+01,1.923631265483639191e-02
2.944000000000000128e+01,3.020076355351650199e-02
2.948000000000000043e+01,4.375772484798287620e-02
2.951999999999999957e+01,3.721322226439511410e-02
2.955999999999999872e+01,1.705124928450247809e-02
2.960000000000000142e+01,2.963235532269341624e-02
2.964000000000000057e+01,2.632659476682525437e-02
2.967999999999999972e+01,1.945355464976534013e-02
2.971999999999999886e+01,8.689035976958482330e-03
2.976000000000000156e+01,5.627937060750307086e-02
2.980000000000000071e+01,4.907888422523069838e-02
2.983999999999999986e+01,3.085452911069939963e-02
2.987999999999999901e+01,3.208107223358777627e-02
2.992000000000000171e+01,3.395493502080065840e-02
2.996000000000000085e+01,3.842131596988430237e-02
3.000000000000000000e+01,1.889584510625293493e-02
3.003999999999999915e+01,5.383483637544369399e-02
3.007999999999999829e+01,4.370900041389649132e-02
3.012000000000000099e+01,5.076466908070972200e-02
3.016000000000000014e+01,2.928969353929992275e-02
3.019999999999999929e+01,4.898699740852742457e-02
3.023999999999999844e+01,2.945507018682959680e-02
3.028000000000000114e+01,3.164344516638995658e-02
3.032000000000000028e+01,3.804534234102827095e-02
3.035999999999999943e+01,4.152837023988519005e-02
3.039999999999999858e+01,5.343951697064163592e-02
3.044000000000000128e+01,4.719441255871174856e-02
3.048000000000000043e+01,3.219484726140365433e-02
3.051999999999999957e+01,6.841775544571436496e-02
3.055999999999999872e+01,5.110304354937514684e-03
3.060000000000000142e+01,4.846346677574731032e-02
3.064000000000000057e+01,5.777459884502914728e-02
3.067999999999999972e+01,3.887929476107496174e-02
3.071999999999999886e+01,4.138010035556088234e-02
3.076000000000000156e+01,1.372927324078536231e-02
3.080000000000000071e+01,4.119131983858999313e-02
3.083999999999999986e+01,5.568431603310552286e-02
3.087999999999999901e+01,7.276984527448697448e-02
3.092000000000000171e+01,4.511476051750720750e-02
3.096000000000000085e+01,5.052697642424543861e-02
3.100000000000000000e+01,6.371892158703121312e-02
3.103999999999999915e+01,5.518842925571951913e-02
3.107999999999999829e+01,4.568427714812586804e-02
3.112000000000000099e+01,5.790044083243817835e-02
3.116000000000000014e+01,8.243513134569542544e-02
3.119999999999999929e+01,3.045764750138733185e-02
3.123999999999999844e+01,6.082581439378693250e-02
3.128000000000000114e+01,6.363595412401361340e-02
3.132000000000000028e+01,8.492441646472689842e-02
3.135999999999999943e+01,7.541285652032676812e-02
3.139999999999999858e+01,6.460344233530544711e-02
3.144000000000000128e+01,8.070154338723993515e-02
3.148000000000000043e+01,9.615019077635816869e-02
3.151999999999999957e+01,9.214580592956497784e-02
3.155999999999999872e+01,1.325557189146025217e-01
3.160000000000000142e+01,1.492980056156019419e-01
3.164000000000000057e+01,1.517744562898715177e-01
3.167999999999999972e+01,1.581402515213960192e-01
3.171999999999999886e+01,1.771487822840263349e-01
3.176000000000000156e+01,1.877270725125655959e-01
3.180000000000000071e+01,1.671811479331735129e-01
3.183999999999999986e+01,2.040175113849789779e-01
3.187999999999999901e+01,2.055150659807265801e-01
3.192000000000000171e+01,2.128471668671439720e-01
3.196000000000000085e+01,2.068860358294073998e-01
3.200000000000000000e+01,2.022206573924852091e-01
3.203999999999999915e+01,2.030656275460253901e-01
3.207999999999999829e+01,1.938593641342204466e-01
3.211999999999999744e+01,1.697388731783123494e-01
3.215999999999999659e+01,1.495077345457435924e-01
3.220000000000000284e+01,1.334901485254170184e-01
3.224000000000000199e+01,1.356267003588434439e-01
3.228000000000000114e+01,1.063148455086941613e-01
3.232000000000000028e+01,1.155817072355579678e-01
3.235999999999999943e+01,1.002083560494976544e-01
3.239999999999999858e+01,1.214685248844252635e-01
3.243999999999999773e+01,8.696531649481388515e-02
3.247999999999999687e+01,6.964365091681129494e-02
3.252000000000000313e+01,9.479110085243586115e-02
3.256000000000000227e+01,6.222997765466964371e-02
3.260000000000000142e+01,9.158994976860444781e-02
3.264000000000000057e+01,5.578475828373413020e-02
3.267999999999999972e+01,5.369529457450876453e-02
3.271999999999999886e+01,5.517099260732601790e-02
3.275999999999999801e+01,6.475064801356233968e-02
3.279999999999999716e+01,6.460328114530886068e-02
3.284000000000000341e+01,6.996627581099176818e-02
3.288000000000000256e+01,7.824603552395451023e-02
3.292000000000000171e+01,6.123719210096738308e-02
3.296000000000000085e+01,5.978890104702971886e-02
3.300000000000000000e+01,7.292856408412884406e-02
3.303999999999999915e+01,5.202623560012242798e-02
3.307999999999999829e+01,3.501353260848193982e-01
3.311999999999999744e+01,1.000000000000000000e+00
3.315999999999999659e+01,6.279863759880198737e-01
3.320000000000000284e+01,1.006800970370671788e-01
3.324000000000000199e+01,5.091886444888377161e-02
3.328000000000000114e+01,4.784135501310159827e-02
3.332000000000000028e+01,3.925142705856190378e-02
3.335999999999999943e+01,3.973806511023321442e-02
3.339999999999999858e+01,4.670767268145902679e-02
3.343999999999999773e+01,5.367625758483753062e-02
3.347999999999999687e+01,3.924664411344327281e-02
3.352000000000000313e+01,4.815838347302102418e-02
3.356000000000000227e+01,5.317870640552709027e-02
3.360000000000000142e+01,5.203821606603407229e-02
3.364000000000000057e+01,8.072307333360947967e-02
3.367999999999999972e+01,7.082715445065568272e-02
3.371999999999999886e+01,8.459679127627095507e-02
3.375999999999999801e+01,5.297746076940015869e-02
3.379999999999999716e+01,4.891408296619117330e-02
3.384000000000000341e+01,5.489987786046390122e-02
3.388000000000000256e+01,9.038682460311861511e-02
3.392000000000000171e+01,1.051239793733689254e-01
3.396000000000000085e+01,8.614335714923744558e-02
3.400000000000000000e+01,8.791049838833199515e-02
3.403999999999999915e+01,9.907841627731930889e-02
3.407999999999999829e+01,9.727733618408757055e-02
3.411999999999999744e+01,1.233564136136361261e-01
3.415999999999999659e+01,1.102063233752822030e-01
3.420000000000000284e+01,1.142378037770064025e-01
3.424000000000000199e+01,1.503640389855060711e-01
3.428000000000000114e+01,1.355899213653885271e-01
3.432000000000000028e+01,1.483717648621910301e-01
3.435999999999999943e+01,1.326230321040091920e-01
3.439999999999999858e+01,1.642064399025499610e-01
3.443999999999999773e+01,1.419717006856093533e-01
3.447999999999999687e+01,1.479413244577411635e-01
3.452000000000000313e+01,1.623391337206637752e-01
3.456000000000000227e+01,1.815989330625343845e-01
3.460000000000000142e+01,1.473647876193472650e-01
3.464000000000000057e+01,1.497641984388753400e-01
3.467999999999999972e+01,1.479480113104668926e-01
3.471999999999999886e+01,1.402952286726517062e-01
3.475999999999999801e+01,1.310204465150773823e-01
3.479999999999999716e+01,1.321190522288825664e-01
3.484000000000000341e+01,1.254358665244292848e-01
3.488000000000000256e+01,1.018933000804858463e-01
3.492000000000000171e+01,9.423551735883198277e-02
3.496000000000000085e+01,1.063529147073866976e-01
3.500000000000000000e+01,7.826855905350052489e-02
3.503999999999999915e+01,1.033519478622342280e-01
3.507999999999999829e+01,7.688659750236717660e-02
3.511999999999999744e+01,8.186761690363937582e-02
3.515999999999999659e+01,5.799387335167265067e-02
3.520000000000000284e+01,6.913269691420917407e-02
3.524000000000000199e+01,5.595555380205687740e-02
3.528000000000000114e+01,7.908777766567023915e-02
3.532000000000000028e+01,9.605921608575375414e-02
3.535999999999999943e+01,8.709369156402560486e-02
3.539999999999999858e+01,8.072077321979174991e-02
3.543999999999999773e+01,9.347464342839348350e-02
3.547999999999999687e+01,9.034174153029675414e-02
3.552000000000000313e+01,9.109824631813047413e-02
3.556000000000000227e+01,7.758897850225709991e-02
3.560000000000000142e+01,8.482750003655792348e-02
3.564000000000000057e+01,1.004942251825131916e-01
3.567999999999999972e+01,1.106485699929592309e-01
3.571999999999999886e+01,1.159389343985274407e-01
3.575999999999999801e+01,1.183105168967641535e-01
3.579999999999999716e+01,1.287861059536212494e-01
3.584000000000000341e+01,1.311557201298339248e-01
3.588000000000000256e+01,1.387115453834554257e-01
3.592000000000000171e+01,1.734991579992162247e-01
3.596000000000000085e+01,1.651672363691460976e-01
3.600000000000000000e+01,1.613731284745483219e-01
3.603999999999999915e+01,1.822172127497807825e-01
3.607999999999999829e+01,2.056539142044604973e-01
3.611999999999999744e+01,2.251992406511856282e-01
3.615999999999999659e+01,2.460403870047904173e-01
3.620000000000000284e+01,2.266797997711651469e-01
3.624000000000000199e+01,2.647015717578449778e-01
3.628000000000000114e+01,2.660878075106586915e-01
3.632000000000000028e+01,2.580712775819974381e-01
3.635999999999999943e+01,2.419487811859496185e-01
3.639999999999999858e+01,2.258253100129083979e-01
3.643999999999999773e+01,2.278560446468590461e-01
3.647999999999999687e+01,2.013562373260315286e-01
3.652000000000000313e+01,2.396953855154867197e-01
3.656000000000000227e+01,2.115726349622446545e-01
3.660000000000000142e+01,1.941475010449272565e-01
3.664000000000000057e+01,1.695890041156256633e-01
3.667999999999999972e+01,1.849060928721859565e-01
3.671999999999999886e+01,1.577520589626730529e-01
3.675999999999999801e+01,1.675558152578104643e-01
3.679999999999999716e+01,1.540162290432197656e-01
3.684000000000000341e+01,1.210236966668199465e-01
3.688000000000000256e+01,1.139661686178133071e-01
3.692000000000000171e+01,1.432180340786941286e-01
3.696000000000000085e+01,1.017934119261405951e-01
3.700000000000000000e+01,1.067283734714140342e-01
3.703999999999999915e+01,7.794560785468077069e-02
3.707999999999999829e+01,7.444945051775152256e-02
3.711999999999999744e+01,9.623990210780013210e-02
3.715999999999999659e+01,6.226705283980640826e-02
3.720000000000000284e+01,6.914239659611896849e-02
3.724000000000000199e+01,5.591640137890197676e-02
3.728000000000000114e+01,6.603181982698479169e-02
3.732000000000000028e+01,8.133347265072987664e-02
3.735999999999999943e+01,5.610921101355368507e-02
3.739999999999999858e+01,7.789293882939890556e-02
3.743999999999999773e+01,4.488596924260421922e-02
3.747999999999999687e+01,5.240299756860305330e-02
3.752000000000000313e+01,6.348526529748867164e-02
3.756000000000000227e+01,6.516478740728380570e-02
3.760000000000000142e+01,5.322696920268814302e-02
3.764000000000000057e+01,3.804619986619619393e-02
3.767999999999999972e+01,4.134385604080951376e-02
3.771999999999999886e+01,3.167257312601082925e-02
3.775999999999999801e+01,1.810994173737921764e-02
3.779999999999999716e+01,4.961010842313356983e-02
3.784000000000000341e+01,1.594519564266410824e-02
3.788000000000000256e+01,2.863988079784315910e-02
3.792000000000000171e+01,4.230621469381578431e-02
3.796000000000000085e+01,2.809042986389503546e-02
3.800000000000000000e+01,2.943527894691007687e-02
3.803999999999999915e+01,4.698916187349228696e-02
3.807999999999999829e+01,4.119972299990496550e-02
3.811999999999999744e+01,3.087054219359060964e-02
3.815999999999999659e+01,3.253580182989038172e-02
3.820000000000000284e+01,2.123213014286257083e-02
3.824000000000000199e+01,2.678589481872792680e-02
3.828000000000000114e+01,9.644740213749827470e-03
3.832000000000000028e+01,2.200480929343446440e-02
3.835999999999999943e+01,2.755574283133295846e-02
3.839999999999999858e+01,1.981354864004350458e-02
3.843999999999999773e+01,1.109781375243323528e-02
3.847999999999999687e+01,9.513529858895031222e-03
3.852000000000000313e+01,3.386427682687188911e-02
3.856000000000000227e+01,2.871191656791666907e-02
3.860000000000000142e+01,4.755037906252883653e-03
3.864000000000000057e+01,4.271935227951898645e-02
3.867999999999999972e+01,2.265099289524218421e-02
3.871999999999999886e+01,1.425288337228258415e-02
3.875999999999999801e+01,2.789941289313481107e-02
3.879999999999999716e+01,3.408841470765408554e-02
3.884000000000000341e+01,4.222167907314838126e-02
3.888000000000000256e+01,1.793404461354154017e-02
3.892000000000000171e+01,3.157683423115115184e-02
3.896000000000000085e+01,3.030550697136071350e-02
3.900000000000000000e+01,1.865885846554690350e-02
3.903999999999999915e+01,2.711165568338803206e-02
3.907999999999999829e+01,2.259553581572289541e-02
3.911999999999999744e+01,1.613328732850353650e-02
3.915999999999999659e+01,1.712670047903821699e-02
3.920000000000000284e+01,4.437935513476928828e-02
3.924000000000000199e+01,2.591893147908277267e-02
3.928000000000000114e+01,1.880456710341652654e-02
3.932000000000000028e+01,2.498146050531695889e-02
3.935999999999999943e+01,8.463452100063929145e-03
3.939999999999999858e+01,2.857907697119667703e-02
3.943999999999999773e+01,1.789481028630386661e-02
3.947999999999999687e+01,1.336941184963951965e-02
3.952000000000000313e+01,3.007495564412621027e-03
3.956000000000000227e+01,2.863081586080885518e-02
3.960000000000000142e+01,8.865263312079599972e-03
3.964000000000000057e+01,2.508494863932078656e-02
3.967999999999999972e+01,1.958233626198424907e-02
3.971999999999999886e+01,8.891608555411377110e-03
3.975999999999999801e+01,2.414555776910152184e-03
3.979999999999999716e+01,7.931969975144932336e-03
3.984000000000000341e+01,7.288671860478087260e-03
3.988000000000000256e+01,1.701884380825086085e-02
3.992000000000000171e+01,3.971608359946700306e-02
3.996000000000000085e+01,1.799705529530722450e-02
4.000000000000000000e+01,2.188888215636044729e-02
4.003999999999999915e+01,2.610399277495599121e-02
4.007999999999999829e+01,2.448259460542093896e-02
4.011999999999999744e+01,1.281009295245479074e-02
4.015999999999999659e+01,1.604986087634701492e-02
4.020000000000000284e+01,2.317911120549288190e-02
4.024000000000000199e+01,2.738965211076177173e-02
4.028000000000000114e+01,1.085050394424501470e-02
4.032000000000000028e+01,2.413681146280488923e-02
4.035999999999999943e+01,1.602503192046886987e-02
4.039999999999999858e+01,3.773870935755700706e-02
4.043999999999999773e+01,3.221870747697868492e-02
4.047999999999999687e+01,1.729600722099010682e-02
4.052000000000000313e+01,9.180591323203772872e-03
4.056000000000000227e+01,7.548260789064780742e-03
4.060000000000000142e+01,2.180080587588104080e-02
4.064000000000000057e+01,9.468074164356913430e-03
4.067999999999999972e+01,3.863199106470874278e-02
4.071999999999999886e+01,2.240705324079861685e-02
4.075999999999999801e+01,1.979759613443719118e-02
4.079999999999999716e+01,1.524203758981703197e-02
4.084000000000000341e+01,4.310554027736203386e-02
4.088000000000000256e+01,2.395919262069593630e-02
4.092000000000000171e+01,2.653331931349277306e-02
4.096000000000000085e+01,3.332114034957246729e-02
4.100000000000000000e+01,4.788885243512512602e-02
4.103999999999999915e+01,3.262929777678661575e-02
4.107999999999999829e+01,3.779342148969078163e-02
4.111999999999999744e+01,3.355485718196394435e-02
4.115999999999999659e+01,3.061219367782947592e-02
4.120000000000000284e+01,4.549961335262855261e-02
4.124000000000000199e+01,3.607116342879412157e-02
4.128000000000000114e+01,3.669200657675008442e-02
4.132000000000000028e+01,2.110197246363934229e-02
4.135999999999999943e+01,3.695840907076550913e-02
4.139999999999999858e+01,2.039398762473360743e-02
4.143999999999999773e+01,3.300664070118461413e-02
4.147999999999999687e+01,2.324862591241697723e-02
4.152000000000000313e+01,3.229329840515890448e-02
4.156000000000000227e+01,4.749687279916169763e-02
4.160000000000000142e+01,5.621556371417699149e-02
4.164000000000000057e+01,4.515718648649868355e-02
4.167999999999999972e+01,3.312532098356939236e-02
4.171999999999999886e+01,4.378654169876342039e-02
4.175999999999999801e+01,4.212728797254670227e-02
4.179999999999999716e+01,1.971836976714498590e-02
4.184000000000000341e+01,2.324453613867533477e-02
4.188000000000000256e+01,4.557339561627853086e-02
4.192000000000000171e+01,1.732622551717044948e-02
4.196000000000000085e+01,7.369427708942379029e-02
4.200000000000000000e+01,4.641793692297818685e-02
4.203999999999999915e+01,4.377988600241822237e-02
4.207999999999999829e+01,3.789895578624286054e-02
4.211999999999999744e+01,5.341431969301276700e-02
4.215999999999999659e+01,4.428962924441551957e-02
4.220000000000000284e+01,4.035125212667216993e-02
4.224000000000000199e+01,4.775898217980317079e-02
4.228000000000000114e+01,5.289643509837358565e-02
4.232000000000000028e+01,3.825683087620335154e-02
4.235999999999999943e+01,4.760712179385078596e-02
4.239999999999999858e+01,4.398854934140918049e-02
4.243999999999999773e+01,5.690328156337076670e-02
4.247999999999999687e+01,5.360715529230301868e-02
4.252000000000000313e+01,6.554753642307088735e-02
4.256000000000000227e+01,8.040483921715441129e-02
4.260000000000000142e+01,5.992350659773212906e-02
4.264000000000000057e+01,4.624949263671817440e-02
4.267999999999999972e+01,8.768854459887394370e-02
4.271999999999999886e+01,6.558359425864146441e-02
4.275999999999999801e+01,9.210771830135051907e-02
4.279999999999999716e+01,8.199641159950697700e-02
4.284000000000000341e+01,8.452802034305852141e-02
4.288000000000000256e+01,1.071591369389404136e-01
4.292000000000000171e+01,1.203875946370079331e-01
4.296000000000000085e+01,1.358845811866708220e-01
4.300000000000000000e+01,1.371159155069350544e-01
4.303999999999999915e+01,1.723873448625619087e-01
4.307999999999999829e+01,2.219226917552697409e-01
4.311999999999999744e+01,2.545987912262699937e-01
4.315999999999999659e+01,2.561508596866702292e-01
4.320000000000000284e+01,3.056836103654650971e-01
4.324000000000000199e+01,3.380329159223446345e-01
4.328000000000000114e+01,4.147967089329497314e-01
4.332000000000000028e+01,4.127791261875198292e-01
4.335999999999999943e+01,4.418838468792831708e-01
4.339999999999999858e+01,4.518599271874532142e-01
4.343999999999999773e+01,4.459493641764917804e-01
4.347999999999999687e+01,3.858966007695767697e-01
4.352000000000000313e+01,3.472401541366866295e-01
4.356000000000000227e+01,3.076102496457094881e-01
4.360000000000000142e+01,2.715456829280219475e-01
4.364000000000000057e+01,2.283478664537481051e-01
4.367999999999999972e+01,1.955235815234155627e-01
4.371999999999999886e+01,1.831230176777900176e-01
4.375999999999999801e+01,1.584020117494388258e-01
4.379999999999999716e+01,1.378947461137033370e-01
4.384000000000000341e+01,1.222496207012146591e-01
4.388000000000000256e+01,8.585486446257353799e-02
4.392000000000000171e+01,9.873760065836872934e-02
4.396000000000000085e+01,9.314010481446016732e-02
4.400000000000000000e+01,9.921294425879763346e-02
4.403999999999999915e+01,9.231694686716784837e-02
4.407999999999999829e+01,8.736529680626831107e-02
4.411999999999999744e+01,7.852240117215446291e-02
4.415999999999999659e+01,5.768326956878101763e-02
4.420000000000000284e+01,7.931344245375562818e-02
4.424000000000000199e+01,6.690180502626118242e-02
4.428000000000000114e+01,5.092312425597622649e-02
4.432000000000000028e+01,6.185216711257927880e-02
4.435999999999999943e+01,6.467537293653632946e-02
4.439999999999999858e+01,6.555253556786784508e-02
4.443999999999999773e+01,4.276227965791970509e-02
4.447999999999999687e+01,3.682956106996234519e-02
4.452000000000000313e+01,6.720635895489587841e-02
4.456000000000000227e+01,5.802995779536088833e-02
4.460000000000000142e+01,4.852851488771271760e-02
4.464000000000000057e+01,5.069741762308976191e-02
4.467999999999999972e+01,3.633129781826241467e-02
4.471999999999999886e+01,3.039352853351976261e-02
4.475999999999999801e+01,4.358269859308533389e-02
4.479999999999999716e+01,3.472545414457836599e-02
4.484000000000000341e+01,6.315033027153839351e-02
4.488000000000000256e+01,3.516363116152304569e-02
4.492000000000000171e+01,3.829926072847538582e-02
4.496000000000000085e+01,3.851625723804762841e-02
4.500000000000000000e+01,5.234880306558109542e-02
4.503999999999999915e+01,3.505734829967847160e-02
4.507999999999999829e+01,3.462344056337234022e-02
4.511999999999999744e+01,5.785527298014041253e-02
4.515999999999999659e+01,5.839229742994168915e-02
4.520000000000000284e+01,5.017509915428719491e-02
4.524000000000000199e+01,2.801648453269028199e-02
4.528000000000000114e+01,2.693001551903227361e-02
4.532000000000000028e+01,4.853669096913074132e-02
4.535999999999999943e+01,3.221117852687854777e-02
4.539999999999999858e+01,6.224538568893091262e-02
4.543999999999999773e+01,4.332461843420144093e-02
4.547999999999999687e+01,5.779558640897298344e-02
4.552000000000000313e+01,2.947137445415704340e-02
4.556000000000000227e+01,2.837910583034256376e-02
4.560000000000000142e+01,4.933158691704302157e-02
4.564000000000000057e+01,3.429708249198133024e-02
4.567999999999999972e+01,4.876392083154374585e-02
4.571999999999999886e+01,5.415234521717977867e-02
4.575999999999999801e+01,5.662214948890973570e-02
4.579999999999999716e+01,3.185836116424936582e-02
4.584000000000000341e+01,3.886531568500925515e-02
4.588000000000000256e+01,4.457465024202826587e-02
4.592000000000000171e+01,4.704116763210729191e-02
4.596000000000000085e+01,4.950686491970769654e-02
4.600000000000000000e+01,3.122296568136180908e-02
4.603999999999999915e+01,3.336282506379757012e-02
4.607999999999999829e+01,4.490365589541044089e-02
4.611999999999999744e+01,3.796428963469950651e-02
4.615999999999999659e+01,5.112448429456251803e-02
4.620000000000000284e+01,4.515608387299158838e-02
4.624000000000000199e+01,3.951106752088687224e-02
4.628000000000000114e+01,5.364141438914850346e-02
4.632000000000000028e+01,5.156096489305624087e-02
4.635999999999999943e+01,2.613732756175069297e-02
4.639999999999999858e+01,4.285883067161806725e-02
4.643999999999999773e+01,5.828272287817626296e-02
4.647999999999999687e+01,5.555062345870270812e-02
4.652000000000000313e+01,4.730631908779332068e-02
4.656000000000000227e+01,5.527118640844969760e-02
4.660000000000000142e+01,5.966904792239033362e-02
4.664000000000000057e+01,5.758210750122984972e-02
4.667999999999999972e+01,3.604238012299103983e-02
4.671999999999999886e+01,6.313179119789028015e-02
4.675999999999999801e+01,5.585523309053493091e-02
4.679999999999999716e+01,6.154585414049981718e-02
4.684000000000000341e+01,5.134988688109766442e-02
4.688000000000000256e+01,4.958230508916038060e-02
4.692000000000000171e+01,4.003312732542285007e-02
4.696000000000000085e+01,5.285292091783470869e-02
4.700000000000000000e+01,5.302812520686225189e-02
4.703999999999999915e+01,5.093312937499978876e-02
4.707999999999999829e+01,6.148111758894465179e-02
4.711999999999999744e+01,5.841191951583990516e-02
4.715999999999999659e+01,4.172553580285909974e-02
4.720000000000000284e+01,5.291952123845925643e-02
4.724000000000000199e+01,4.368812985222657319e-02
4.728000000000000114e+01,5.779831392471926343e-02
4.732000000000000028e+01,3.819093715884687434e-02
4.735999999999999943e+01,8.050489451177141043e-02
4.739999999999999858e+01,5.019733531322526782e-02
4.743999999999999773e+01,5.749613839816550276e-02
4.747999999999999687e+01,6.025535098902499997e-02
4.752000000000000313e+01,4.680378663074167417e-02
4.756000000000000227e+01,4.405001623397748062e-02
4.760000000000000142e+01,6.787982289061611496e-02
4.764000000000000057e+01,6.998746063024390007e-02
4.767999999999999972e+01,4.324053798200135079e-02
4.771999999999999886e+01,6.090817462376536817e-02
4.775999999999999801e+01,7.176682780956311625e-02
4.779999999999999716e+01,5.117732541518167644e-02
4.784000000000000341e+01,4.874221327229705941e-02
4.788000000000000256e+01,4.825150994164425361e-02
4.792000000000000171e+01,5.813440675534523733e-02
4.796000000000000085e+01,4.888873696325504031e-02
4.800000000000000000e+01,3.088888974786826655e-02
4.803999999999999915e+01,5.633100807469135218e-02
4.807999999999999829e+01,6.458975958761702107e-02
4.811999999999999744e+01,5.501674565036154818e-02
4.815999999999999659e+01,5.808673323260335475e-02
4.820000000000000284e+01,3.554416525752088912e-02
4.824000000000000199e+01,4.769017573383977499e-02
4.828000000000000114e+01,4.913681546670526507e-02
4.832000000000000028e+01,3.566948976081717876e-02
4.835999999999999943e+01,2.965797454263447222e-02
4.839999999999999858e+01,2.202468049092523930e-02
4.843999999999999773e+01,4.745896991784204211e-02
4.847999999999999687e+01,3.236752479812671918e-02
4.852000000000000313e+01,3.672727949877641757e-02
4.856000000000000227e+01,5.729623824967688961e-02
4.860000000000000142e+01,4.933485113943109068e-02
4.864000000000000057e+01,3.586129337795566918e-02
4.867999999999999972e+01,5.253752620258946016e-02
4.871999999999999886e+01,4.489801045007222463e-02
4.875999999999999801e+01,3.498832240513419234e-02
4.879999999999999716e+01,3.966684408484528329e-02
4.884000000000000341e+01,4.855918760105860238e-02
4.888000000000000256e+01,5.161516470735571377e-02
4.892000000000000171e+01,4.332338214152117034e-02
4.896000000000000085e+01,3.956962299543866080e-02
4.900000000000000000e+01,3.581509293207896932e-02
4.903999999999999915e+01,3.400499044898852574e-02
4.907999999999999829e+01,3.835391153581507034e-02
4.911999999999999744e+01,2.876147905254828469e-02
4.915999999999999659e+01,3.602665961059543093e-02
4.920000000000000284e+01,5.658325779811375356e-02
4.924000000000000199e+01,4.504332442024845673e-02
4.928000000000000114e+01,4.193181534027005247e-02
4.932000000000000028e+01,4.011633908731929848e-02
4.935999999999999943e+01,4.121789451721364489e-02
4.939999999999999858e+01,3.486209374180605780e-02
4.943999999999999773e+01,2.202153633345659695e-02
4.947999999999999687e+01,3.446778782875883906e-02
4.952000000000000313e+01,5.339726965461762120e-02
4.956000000000000227e+01,5.417080968681972641e-02
4.960000000000000142e+01,5.364678994243504001e-02
4.964000000000000057e+01,4.955581357653604524e-02
4.967999999999999972e+01,4.740927514568541584e-02
4.971999999999999886e+01,4.396517887976925110e-02
4.975999999999999801e+01,5.705450572104380641e-02
4.979999999999999716e+01,6.365908175393973634e-02
4.984000000000000341e+01,6.086111085007184923e-02
4.988000000000000256e+01,5.384778792427417915e-02
4.992000000000000171e+01,5.202090323385494264e-02
4.996000000000000085e+01,6.089185133537701466e-02
5.000000000000000000e+01,6.100865437228751575e-02
5.003999999999999915e+01,6.663609722782640188e-02
5.007999999999999829e+01,7.258698628150681009e-02
5.011999999999999744e+01,6.881113328691053355e-02
5.015999999999999659e+01,6.762812527690473252e-02
5.020000000000000284e+01,1.011337274298116651e-01
5.024000000000000199e+01,1.028670138384063931e-01
5.028000000000000114e+01,9.973655541335087193e-02
5.032000000000000028e+01,9.725374671120783077e-02
5.035999999999999943e+01,9.801218551298139514e-02
5.039999999999999858e+01,1.149798581349960602e-01
5.043999999999999773e+01,1.056866121579561335e-01
5.047999999999999687e+01,1.229769898308256532e-01
5.052000000000000313e+01,1.237324394508512032e-01
5.056000000000000227e+01,1.102223591573078115e-01
5.060000000000000142e+01,1.070859223687562478e-01
5.064000000000000057e+01,1.149715290158276754e-01
5.067999999999999972e+01,8.589763276983712614e-02
5.071999999999999886e+01,7.368137480493501534e-02
5.075999999999999801e+01,1.049071263900543810e-01
5.079999999999999716e+01,6.286301715001017809e-02
5.084000000000000341e+01,9.570828400202610609e-02
5.088000000000000256e+01,6.079508523261497460e-02
5.092000000000000171e+01,5.441071508239654630e-02
5.096000000000000085e+01,5.904839354519084843e-02
5.100000000000000000e+01,6.400953309112178413e-02
5.103999999999999915e+01,4.627595980462024389e-02
5.107999999999999829e+01,4.475163134031281964e-02
5.111999999999999744e+01,7.305293329798172308e-02
5.115999999999999659e+01,5.012995589260707541e-02
5.120000000000000284e+01,2.753044280623764828e-02
5.124000000000000199e+01,4.707614846905909534e-02
5.128000000000000114e+01,3.906415055655865914e-02
5.132000000000000028e+01,3.461761532187226931e-02
5.135999999999999943e+01,4.767712800651104088e-02
5.139999999999999858e+01,4.420172687612727164e-02
5.143999999999999773e+01,3.942879573914716967e-02
5.147999999999999687e+01,2.849534061681277888e-02
5.152000000000000313e+01,3.571633528595578866e-02
5.156000000000000227e+01,3.321061120507536046e-02
5.160000000000000142e+01,4.237534537544443425e-02
5.164000000000000057e+01,3.403257068864685292e-02
5.167999999999999972e+01,3.833285447263232865e-02
5.171999999999999886e+01,3.582421887084828727e-02
5.175999999999999801e+01,2.618246488873941791e-02
5.179999999999999716e+01,2.626597454337585222e-02
5.184000000000000341e+01,2.051316567895012169e-02
5.188000000000000256e+01,1.962262711968534509e-02
5.192000000000000171e+01,1.873136488682372938e-02
5.196000000000000085e+01,3.696715848953664729e-02
5.200000000000000000e+01,5.747162720510153727e-02
5.203999999999999915e+01,1.572904297666591691e-02
5.207999999999999829e+01,3.720466780043928806e-02
5.211999999999999744e+01,3.209520156472484009e-02
5.215999999999999659e+01,2.374301912116794783e-02
5.220000000000000284e+01,1.733531538460273552e-02
5.224000000000000199e+01,3.102727093901435848e-02
5.228000000000000114e+01,2.721172799103858259e-02
5.232000000000000028e+01,3.052785995923592080e-02
5.235999999999999943e+01,3.416747501447593011e-02
5.239999999999999858e+01,3.683377523701724526e-02
5.243999999999999773e+01,3.107016951427161999e-02
5.247999999999999687e+01,2.498164953663211535e-02
5.252000000000000313e+01,1.078742454978207782e-02
5.256000000000000227e+01,3.030924898390683492e-02
5.260000000000000142e+01,4.107697041971074270e-02
5.264000000000000057e+01,2.688060741792886593e-02
5.267999999999999972e+01,3.116291261739057364e-02
5.271999999999999886e+01,7.239138256326012495e-03
5.275999999999999801e+01,2.773000472915444770e-02
5.279999999999999716e+01,4.043937036471702967e-02
5.284000000000000341e+01,2.364585981435927617e-02
5.288000000000000256e+01,3.343601174433300655e-02
5.292000000000000171e+01,3.285106764473171709e-02
5.296000000000000085e+01,3.712841132398141120e-02
5.300000000000000000e+01,2.714026456725806419e-02
5.303999999999999915e+01,3.822438897017192694e-02
5.307999999999999829e+01,3.601562315664649100e-02
5.311999999999999744e+01,1.824457028175404880e-02
5.315999999999999659e+01,2.251838943320621719e-02
5.320000000000000284e+01,1.349932030974022694e-02
5.324000000000000199e+01,4.046570910130347504e-02
5.328000000000000114e+01,3.565983133375587311e-02
5.332000000000000028e+01,2.177566257528529975e-02
5.335999999999999943e+01,2.831537087038391021e-02
5.339999999999999858e+01,2.772198731927952992e-02
5.343999999999999773e+01,2.388590826989133234e-02
5.347999999999999687e+01,2.069753007013819604e-02
5.352000000000000313e+01,3.112483903634469945e-02
5.356000000000000227e+01,3.020446340256915246e-02
5.360000000000000142e+01,3.090438948513602596e-02
5.364000000000000057e+01,3.484561613986292272e-02
5.367999999999999972e+01,3.975874652182220803e-02
5.371999999999999886e+01,1.841101137297060722e-02
5.375999999999999801e+01,2.202595473362800940e-02
5.379999999999999716e+01,3.698719229835956135e-02
5.384000000000000341e+01,2.666016519898765577e-02
5.388000000000000256e+01,1.373884900370006719e-02
5.392000000000000171e+01,2.188981820587102348e-02
5.396000000000000085e+01,3.230949423240540852e-02
5.400000000000000000e+01,3.721708632898618196e-02
5.403999999999999915e+01,4.406918690254899712e-02
5.407999999999999829e+01,2.628142597850803217e-02
5.411999999999999744e+01,4.318233864040267600e-02
5.415999999999999659e+01,2.733840005582152330e-02
5.420000000000000284e+01,3.191835211545730050e-02
5.424000000000000199e+01,1.510044168347195528e-02
5.428000000000000114e+01,2.551461566635515946e-02
5.432000000000000028e+01,2.263591949518381496e-02
5.435999999999999943e+01,3.337292408062003668e-02
5.439999999999999858e+01,4.054304905821232846e-02
5.443999999999999773e+01,2.274911872103543495e-02
5.447999999999999687e+01,3.769866994398474863e-02
5.452000000000000313e+01,2.476637037095337848e-02
5.456000000000000227e+01,3.193376762497334570e-02
5.460000000000000142e+01,2.224210319613832004e-02
5.464000000000000057e+01,2.649034369585553592e-02
5.467999999999999972e+01,3.333150231079138465e-02
5.471999999999999886e+01,3.530898792835798772e-02
5.475999999999999801e+01,3.339540012091535282e-02
5.479999999999999716e+01,4.963631517319365416e-02
5.484000000000000341e+01,2.502739893772979937e-02
5.488000000000000256e+01,3.640396715141705486e-02
5.492000000000000171e+01,3.935066954458691507e-02
5.496000000000000085e+01,4.618709315010655764e-02
5.500000000000000000e+01,3.292246512722039886e-02
5.503999999999999915e+01,4.008174133919902710e-02
5.507999999999999829e+01,2.422217044156018892e-02
5.511999999999999744e+01,2.651710758103201920e-02
5.515999999999999659e+01,1.551918815709715446e-02
5.520000000000000284e+01,4.342455513526196492e-02
5.524000000000000199e+01,2.788650016359136424e-02
5.528000000000000114e+01,4.152574363650460981e-02
5.532000000000000028e+01,3.798173743396062590e-02
5.535999999999999943e+01,2.211747682906468199e-02
5.539999999999999858e+01,4.677750407078077460e-02
5.543999999999999773e+01,3.188450829927538810e-02
5.547999999999999687e+01,3.579442567290150312e-02
5.552000000000000313e+01,2.803249051632804301e-02
5.556000000000000227e+01,3.064427911428549769e-02
5.560000000000000142e+01,2.709561038577986206e-02
5.564000000000000057e+01,4.040465954072798571e-02
5.567999999999999972e+01,3.588206556132475522e-02
5.571999999999999886e+01,3.687020329921539274e-02
5.575999999999999801e+01,3.818187913391341698e-02
5.579999999999999716e+01,4.824628439754051479e-02
5.584000000000000341e+01,4.210004732415496137e-02
5.588000000000000256e+01,4.600333954096096772e-02
5.592000000000000171e+01,3.596538820720305424e-02
5.596000000000000085e+01,6.061614022937111129e-02
5.600000000000000000e+01,3.858148618071637059e-02
5.603999999999999915e+01,5.771952961691036860e-02
5.607999999999999829e+01,6.550992922506555793e-02
5.611999999999999744e+01,6.130428636889784927e-02
5.615999999999999659e+01,5.418019166398682640e-02
5.620000000000000284e+01,4.186824826540471584e-02
5.624000000000000199e+01,6.554181131987946163e-02
5.628000000000000114e+01,6.716914560513420618e-02
5.632000000000000028e+01,6.652642991379791038e-02
5.635999999999999943e+01,9.149483408171893428e-02
5.639999999999999858e+01,8.469102217007780375e-02
5.643999999999999773e+01,8.793674860906018631e-02
5.647999999999999687e+01,1.047982101048562792e-01
5.652000000000000313e+01,9.312945387989901569e-02
5.656000000000000227e+01,9.475223436437414659e-02
5.660000000000000142e+01,1.216619389494201092e-01
5.664000000000000057e+01,1.151784331293021629e-01
5.667999999999999972e+01,1.268494605860693292e-01
5.671999999999999886e+01,1.018852825147322921e-01
5.675999999999999801e+01,1.119340203845241716e-01
5.679999999999999716e+01,1.307355038625876431e-01
5.684000000000000341e+01,1.164679798130845989e-01
5.688000000000000256e+01,8.890762702864410394e-02
5.692000000000000171e+01,1.132185741439233478e-01
5.696000000000000085e+01,1.089993106573600434e-01
5.700000000000000000e+01,1.161263931487672985e-01
5.703999999999999915e+01,1.086638509270166225e-01
5.707999999999999829e+01,1.050910642178218835e-01
5.711999999999999744e+01,1.011934383258828729e-01
5.715999999999999659e+01,9.567417533145818054e-02
5.720000000000000284e+01,8.723647731480628498e-02
5.724000000000000199e+01,7.296254814754195295e-02
5.728000000000000114e+01,6.063317987832953643e-02
5.732000000000000028e+01,7.132134986671298527e-02
5.735999999999999943e+01,7.876688777983535672e-02
5.739999999999999858e+01,6.286941647768634622e-02
5.743999999999999773e+01,4.924070830401272580e-02
5.747999999999999687e+01,6.965232879540816935e-02
5.752000000000000313e+01,6.477574416268074009e-02
5.756000000000000227e+01,4.984833821425633388e-02
5.760000000000000142e+01,4.723988687659424340e-02
5.764000000000000057e+01,5.662619115513940066e-02
5.767999999999999972e+01,5.693427498469517262e-02
5.771999999999999886e+01,3.843814976057182559e-02
5.775999999999999801e+01,4.036597277912498671e-02
5.779999999999999716e+01,5.266755579393639364e-02
5.784000000000000341e+01,5.037952703906389829e-02
5.788000000000000256e+01,3.771648250415533116e-02
5.792000000000000171e+01,5.455497876902391102e-02
5.796000000000000085e+01,4.805047487905273612e-02
5.800000000000000000e+01,3.992434747724354915e-02
5.803999999999999915e+01,4.087518538781965971e-02
5.807999999999999829e+01,5.414498567524256983e-02
5.811999999999999744e+01,4.861058338072343776e-02
5.815999999999999659e+01,3.529476697021437237e-02
5.820000000000000284e+01,4.532070269685156694e-02
5.824000000000000199e+01,3.135524351540742299e-02
5.828000000000000114e+01,5.629312056843804174e-02
5.832000000000000028e+01,4.005702299610981731e-02
5.835999999999999943e+01,4.748687979135127191e-02
5.839999999999999858e+01,4.324493065289974902e-02
5.843999999999999773e+01,5.229454864104456091e-02
5.847999999999999687e+01,4.351256879699716418e-02
5.852000000000000313e+01,4.056556561413158374e-02
5.856000000000000227e+01,4.085994260579150356e-02
5.860000000000000142e+01,3.304871295864351965e-02
5.864000000000000057e+01,3.982585224087542564e-02
5.867999999999999972e+01,3.298599226925764266e-02
5.871999999999999886e+01,3.425050968679177466e-02
5.875999999999999801e+01,5.237279546732832164e-02
5.879999999999999716e+01,3.937130328218240577e-02
5.884000000000000341e+01,4.095818326228501532e-02
5.888000000000000256e+01,2.633447009057625007e-02
5.892000000000000171e+01,3.278312321303873678e-02
5.896000000000000085e+01,4.701195796596661231e-02
5.900000000000000000e+01,3.984300724094386875e-02
5.903999999999999915e+01,3.332184732270070116e-02
5.907999999999999829e+01,3.166307420088498858e-02
5.911999999999999744e+01,5.042827132565171067e-02
5.915999999999999659e+01,3.093730419126617184e-02
5.920000000000000284e+01,4.256889677485992118e-02
5.924000000000000199e+01,5.095788770035668269e-02
5.928000000000000114e+01,5.124128298899827821e-02
5.932000000000000028e+01,3.920448794548447163e-02
5.935999999999999943e+01,4.402547097257876463e-02
5.939999999999999858e+01,5.176364812311751856e-02
5.943999999999999773e+01,4.750583652475067614e-02
5.947999999999999687e+01,3.254883539156709638e-02
5.952000000000000313e+01,3.444961491768652045e-02
5.956000000000000227e+01,4.283378721496154673e-02
5.960000000000000142e+01,3.079278266707784900e-02
5.964000000000000057e+01,4.565974961361005807e-02
5.967999999999999972e+01,4.301933778488974819e-02
5.971999999999999886e+01,3.778473134761429347e-02
5.975999999999999801e+01,5.167730694478536030e-02
5.979999999999999716e+01,3.347352183043021678e-02
5.984000000000000341e+01,2.661612864337839154e-02
5.988000000000000256e+01,2.948412982215969230e-02
5.992000000000000171e+01,3.462093425418599074e-02
5.996000000000000085e+01,4.429594007873232514e-02
