2.003999999999999915e+01,2.777470026614871357e-02
2.007999999999999829e+01,1.649449804524341298e-02
2.012000000000000099e+01,2.891258440925958614e-02
2.016000000000000014e+01,3.596882298015849355e-02
2.019999999999999929e+01,2.524917519199848873e-02
2.023999999999999844e+01,9.731955073582513813e-03
2.028000000000000114e+01,1.960584896792693169e-02
2.032000000000000028e+01,3.258201452224824407e-02
2.035999999999999943e+01,3.850351117902867798e-02
2.039999999999999858e+01,3.793461392075292427e-02
2.044000000000000128e+01,4.582859753359213445e-02
2.048000000000000043e+01,5.033569795371223288e-02
2.051999999999999957e+01,3.085989633464628068e-02
2.055999999999999872e+01,1.363995750467308053e-02
2.060000000000000142e+01,3.083952856417809113e-02
2.064000000000000057e+01,4.888427711827005029e-02
2.067999999999999972e+01,3.814979228679638706e-02
2.071999999999999886e+01,3.954597595277542510e-02
2.076000000000000156e+01,9.059417432366606224e-03
2.080000000000000071e+01,5.559509611228671822e-02
2.083999999999999986e+01,3.187736742341178847e-02
2.087999999999999901e+01,4.596479899929976909e-02
2.092000000000000171e+01,2.026964728084084538e-02
2.096000000000000085e+01,4.676865659159030325e-02
2.100000000000000000e+01,3.884569133875156316e-02
2.103999999999999915e+01,4.023202591587025923e-02
2.107999999999999829e+01,3.597438649753322004e-02
2.112000000000000099e+01,2.945842057675168366e-02
2.116000000000000014e+01,3.027679516969558615e-02
2.119999999999999929e+01,6.325758884938056936e-02
2.123999999999999844e+01,3.614192100195708079e-02
2.128000000000000114e+01,5.332057499729800365e-02
2.132000000000000028e+01,6.513739513050967322e-02
2.135999999999999943e+01,5.043208805301907516e-02
2.139999999999999858e+01,1.400098751310137855e-02
2.144000000000000128e+01,5.430999460852332233e-02
2.148000000000000043e+01,2.746911178279293902e-02
2.151999999999999957e+01,1.106608355577864793e-02
2.155999999999999872e+01,4.629294906155154155e-02
2.160000000000000142e+01,2.960533764415441277e-02
2.164000000000000057e+01,6.991621705554394370e-03
2.167999999999999972e+01,2.556872265192899549e-02
2.171999999999999886e+01,3.596262202943706354e-02
2.176000000000000156e+01,4.325179083740565006e-02
2.180000000000000071e+01,6.605728812569171271e-02
2.183999999999999986e+01,1.776297830149844298e-02
2.187999999999999901e+01,6.031564394944804314e-02
2.192000000000000171e+01,4.954315026199564848e-02
2.196000000000000085e+01,4.271935968321602384e-02
2.200000000000000000e+01,4.717984122085823462e-02
2.203999999999999915e+01,2.511820371424091855e-02
2.207999999999999829e+01,1.885503530164580124e-02
2.212000000000000099e+01,1.766912092345042373e-02
2.216000000000000014e+01,3.707800986793126363e-02
2.219999999999999929e+01,3.955744822545961131e-02
2.223999999999999844e+01,2.821094623799431933e-02
2.228000000000000114e+01,2.589162172118191982e-02
2.232000000000000028e+01,1.426055383697661348e-02
2.235999999999999943e+01,5.820931080787564160e-02
2.239999999999999858e+01,3.867597317002380991e-02
2.244000000000000128e+01,4.566232448960742818e-02
2.248000000000000043e+01,2.161236603225704517e-02
2.251999999999999957e+01,1.477156820836155252e-02
2.255999999999999872e+01,3.783610779567035676e-02
2.260000000000000142e+01,4.199624084244787253e-02
2.264000000000000057e+01,3.148402659486318478e-02
2.267999999999999972e+01,4.608081793172423557e-02
2.271999999999999886e+01,4.403030217761234877e-02
2.276000000000000156e+01,4.762132264606875470e-02
2.280000000000000071e+01,4.980044854115503461e-02
2.283999999999999986e+01,1.445411220850652094e-02
2.287999999999999901e+01,2.453066593799209730e-02
2.292000000000000171e+01,9.495797446818868628e-03
2.296000000000000085e+01,2.972687894064083083e-02
2.300000000000000000e+01,5.277812702877822393e-02
2.303999999999999915e+01,3.802177804002262324e-02
2.307999999999999829e+01,4.386024342265953946e-02
2.312000000000000099e+01,4.038697504548301176e-02
2.316000000000000014e+01,2.421632637623964343e-02
2.319999999999999929e+01,4.020812081268593935e-02
2.323999999999999844e+01,3.390986938203206097e-02
2.328000000000000114e+01,2.704614089571392641e-02
2.332000000000000028e+01,2.272044559568999617e-02
2.335999999999999943e+01,4.435017579971237828e-02
2.339999999999999858e+01,1.462972519972368171e-02
2.344000000000000128e+01,2.102164210243604239e-02
2.348000000000000043e+01,2.176961383243053438e-02
2.351999999999999957e+01,4.000889545640648470e-02
2.355999999999999872e+01,4.301156633263123613e-02
2.360000000000000142e+01,4.883441100885578534e-02
2.364000000000000057e+01,7.271284152230421405e-02
2.367999999999999972e+01,2.295225176123175462e-02
2.371999999999999886e+01,5.049607151920565418e-02
2.376000000000000156e+01,1.709704826078769363e-02
2.380000000000000071e+01,2.263176933900840765e-02
2.383999999999999986e+01,4.904345116687464784e-02
2.387999999999999901e+01,1.394801691738056272e-02
2.392000000000000171e+01,3.330387725355973827e-02
2.396000000000000085e+01,3.968022965419900489e-02
2.400000000000000000e+01,4.182332938231045349e-02
2.403999999999999915e+01,2.872982412721809126e-02
2.407999999999999829e+01,3.651328250404533432e-02
2.412000000000000099e+01,0.000000000000000000e+00
2.416000000000000014e+01,4.728028907338128334e-02
2.419999999999999929e+01,2.176797587032654191e-02
2.423999999999999844e+01,2.136468698649733600e-02
2.428000000000000114e+01,4.832752091069416472e-02
2.432000000000000028e+01,2.817224384538643753e-02
2.435999999999999943e+01,4.807926684623364810e-02
2.439999999999999858e+01,5.021045392781368910e-02
2.444000000000000128e+01,3.569435457471643869e-02
2.448000000000000043e+01,3.782316489153784989e-02
2.451999999999999957e+01,4.813276782707647666e-02
2.455999999999999872e+01,3.869157600749480175e-02
2.460000000000000142e+01,1.627088393843683853e-02
2.464000000000000057e+01,4.717294609766273239e-02
2.467999999999999972e+01,3.462468585447965597e-02
2.471999999999999886e+01,1.615035807927429901e-02
2.476000000000000156e+01,4.962180350587561215e-04
2.480000000000000071e+01,1.982591282221823556e-02
2.483999999999999986e+01,5.862189411323412425e-02
2.487999999999999901e+01,5.453182990584118373e-02
2.492000000000000171e+01,1.743052446726290131e-02
2.496000000000000085e+01,4.211609463158072497e-02
2.500000000000000000e+01,3.209760101915474367e-02
2.503999999999999915e+01,5.762721962248342628e-02
2.507999999999999829e+01,4.563140289929896315e-02
2.512000000000000099e+01,3.278799396683020756e-02
2.516000000000000014e+01,5.803193395072699795e-02
2.519999999999999929e+01,4.377547929187903392e-02
2.523999999999999844e+01,5.124241394909863356e-02
2.528000000000000114e+01,2.880162146012278657e-02
2.532000000000000028e+01,4.585886606429173673e-02
2.535999999999999943e+01,5.360440380986951359e-02
2.539999999999999858e+01,3.116007859933615787e-02
2.544000000000000128e+01,2.366785108150057382e-02
2.548000000000000043e+01,3.620619225569020327e-02
2.551999999999999957e+01,4.394702450964738799e-02
2.555999999999999872e+01,3.024425051164288114e-02
2.560000000000000142e+01,3.459708588943145868e-02
2.564000000000000057e+01,4.346294307286336506e-02
2.567999999999999972e+01,3.427084245810242680e-02
2.571999999999999886e+01,5.470197995343197006e-02
2.576000000000000156e+01,3.647914128448035559e-02
2.580000000000000071e+01,3.969756140584904808e-02
2.583999999999999986e+01,4.827541748791398107e-02
2.587999999999999901e+01,5.149149447105196009e-02
2.592000000000000171e+01,3.467465578090207778e-02
2.596000000000000085e+01,2.998854851784979805e-02
2.600000000000000000e+01,1.316936957174277487e-02
2.603999999999999915e+01,2.710198158296892035e-02
2.607999999999999829e+01,2.974793462505614938e-02
2.612000000000000099e+01,2.138936642943661467e-02
2.616000000000000014e+01,4.293617887912862946e-02
2.619999999999999929e+01,3.767878499292134226e-02
2.623999999999999844e+01,4.088434163277918781e-02
2.628000000000000114e+01,1.643928114433750032e-02
2.632000000000000028e+01,3.826356378377940987e-02
2.635999999999999943e+01,3.441219101304823086e-02
2.639999999999999858e+01,3.422743742200274469e-02
2.644000000000000128e+01,3.658075448681107067e-02
2.648000000000000043e+01,4.965412296838010026e-02
2.651999999999999957e+01,2.858772042971144747e-02
2.655999999999999872e+01,3.770884059119679332e-02
2.660000000000000142e+01,3.723613153478642912e-02
2.664000000000000057e+01,4.776561306770527038e-02
2.667999999999999972e+01,4.672630558611729629e-02
2.671999999999999886e+01,3.778599383408652590e-02
2.676000000000000156e+01,2.743383506620367465e-02
2.680000000000000071e+01,3.034096681758738021e-02
2.683999999999999986e+01,3.522189952650912198e-02
2.687999999999999901e+01,3.361251614176756497e-02
2.692000000000000171e+01,1.281664084637028876e-02
2.696000000000000085e+01,2.644035182070714543e-02
2.700000000000000000e+01,2.708459136830570699e-02
2.703999999999999915e+01,4.268094782376071622e-02
2.707999999999999829e+01,4.445142206007693386e-02
2.712000000000000099e+01,3.380670081289715440e-02
2.716000000000000014e+01,3.670341165944750877e-02
2.719999999999999929e+01,2.041363395799507610e-02
2.723999999999999844e+01,1.822956381313582674e-02
2.728000000000000114e+01,4.002600549209310576e-02
2.732000000000000028e+01,3.501825428576210708e-02
2.735999999999999943e+01,3.113789852873755787e-02
2.739999999999999858e+01,3.572050722876853046e-02
2.744000000000000128e+01,4.143051233886406448e-02
2.748000000000000043e+01,5.391065936045703888e-02
2.751999999999999957e+01,5.369347845129063962e-02
2.755999999999999872e+01,3.570049957279566866e-02
2.760000000000000142e+01,5.269138915220369923e-02
2.764000000000000057e+01,3.864603092356477809e-02
2.767999999999999972e+01,3.249936601252869511e-02
2.771999999999999886e+01,2.973719888263143610e-02
2.776000000000000156e+01,4.531280432004446829e-02
2.780000000000000071e+01,2.957002661987380432e-02
2.783999999999999986e+01,3.131861069461319702e-02
2.787999999999999901e+01,4.294085124621910970e-02
2.792000000000000171e+01,5.202270970875232103e-02
2.796000000000000085e+01,3.147901046153379900e-02
2.800000000000000000e+01,3.519796893600569271e-02
2.803999999999999915e+01,3.101593899254063633e-02
2.807999999999999829e+01,3.303978366415213919e-02
2.812000000000000099e+01,4.239805243542970475e-02
2.816000000000000014e+01,1.733443263095476791e-02
2.819999999999999929e+01,2.838323749427789852e-02
2.823999999999999844e+01,3.068464458840094652e-02
2.828000000000000114e+01,3.072781116791469674e-02
2.832000000000000028e+01,3.782326699793673447e-02
2.835999999999999943e+01,2.037164044094503038e-02
2.839999999999999858e+01,2.379702939680133564e-02
2.844000000000000128e+01,3.173547378482856340e-02
2.848000000000000043e+01,3.487644480066715708e-02
2.851999999999999957e+01,2.532009989522080243e-02
2.855999999999999872e+01,2.055894911413512494e-02
2.860000000000000142e+01,2.736428696305343716e-02
2.864000000000000057e+01,4.488970216919681983e-02
2.867999999999999972e+01,3.335384281451513749e-02
2.871999999999999886e+01,2.915241476518419528e-02
2.876000000000000156e+01,5.542067308790332714e-02
2.880000000000000071e+01,1.877118816461182532e-02
2.883999999999999986e+01,3.516237065834333653e-02
2.887999999999999901e+01,4.619181008157032670e-02
2.892000000000000171e+01,3.154562483887851654e-02
2.896000000000000085e+01,2.395173653275861278e-02
2.900000000000000000e+01,2.510296914990536171e-02
2.903999999999999915e+01,4.064206819175195107e-02
2.907999999999999829e+01,1.188448591971805884e-02
2.912000000000000099e+01,4.717092721841466274e-02
2.916000000000000014e+01,3.957137441925224347e-02
2.919999999999999929e+01,4.269190570262034606e-02
2.923999999999999844e+01,3.480795321784115048e-02
2.928000000000000114e+01,3.369416426161283423e-02
2.932000000000000028e+01,2.016520624273142673e-02
2.935999999999999943e+01,3.569525554632130282e-02
2.939999999999999858e+01,4.247792101170098228e-02
2.944000000000000128e+01,3.599900710240670071e-02
2.948000000000000043e+01,2.669759258776674415e-02
2.951999999999999957e+01,2.529489348816223518e-02
2.955999999999999872e+01,2.586602801186563272e-02
2.960000000000000142e+01,2.333252612030754444e-02
2.964000000000000057e+01,3.405834885492298181e-02
2.967999999999999972e+01,5.465784968345836770e-02
2.971999999999999886e+01,5.183883346207578818e-02
2.976000000000000156e+01,3.801533971747243779e-02
2.980000000000000071e+01,3.152629024845184785e-02
2.983999999999999986e+01,3.632160705013064844e-02
2.987999999999999901e+01,4.280862406709656787e-02
2.992000000000000171e+01,3.998398898867361329e-02
2.996000000000000085e+01,1.797289850839668343e-02
3.000000000000000000e+01,3.884554833823613412e-02
3.003999999999999915e+01,2.698915567645051444e-02
3.007999999999999829e+01,5.717009253238116567e-02
3.012000000000000099e+01,4.615787032586403382e-02
3.016000000000000014e+01,3.119460667623295477e-02
3.019999999999999929e+01,2.046228234439489979e-02
3.023999999999999844e+01,3.935325040547063558e-02
3.028000000000000114e+01,4.919159530349009705e-03
3.032000000000000028e+01,5.427871421101502364e-02
3.035999999999999943e+01,4.890252466097824713e-02
3.039999999999999858e+01,2.913621826115193880e-02
3.044000000000000128e+01,3.927534390718684376e-02
3.048000000000000043e+01,3.587076541734823126e-02
3.051999999999999957e+01,2.992583606306975161e-02
3.055999999999999872e+01,4.401153640894549246e-02
3.060000000000000142e+01,2.762529899692335242e-02
3.064000000000000057e+01,2.111275120791646434e-02
3.067999999999999972e+01,3.914503057704370875e-02
3.071999999999999886e+01,3.770872642046465412e-02
3.076000000000000156e+01,3.203925077540362154e-02
3.080000000000000071e+01,3.116499615592536673e-02
3.083999999999999986e+01,4.665359033556917140e-02
3.087999999999999901e+01,2.461681884365056125e-02
3.092000000000000171e+01,1.696793635424315161e-02
3.096000000000000085e+01,2.963182561983221386e-02
3.100000000000000000e+01,4.060178153868716083e-02
3.103999999999999915e+01,1.404637370749560119e-02
3.107999999999999829e+01,4.024952294349667947e-02
3.112000000000000099e+01,5.573034824021454170e-02
3.116000000000000014e+01,4.497130127013020118e-02
3.119999999999999929e+01,4.916442116731524481e-02
3.123999999999999844e+01,2.739980700950878784e-02
3.128000000000000114e+01,3.554063498552212375e-02
3.132000000000000028e+01,3.239486692204163881e-02
3.135999999999999943e+01,2.021960130786776277e-02
3.139999999999999858e+01,1.989299520127857726e-02
3.144000000000000128e+01,4.693259789055068132e-02
3.148000000000000043e+01,2.572562657394285995e-02
3.151999999999999957e+01,3.837402178816616549e-02
3.155999999999999872e+01,3.550376507937919035e-02
3.160000000000000142e+01,2.416828820427814953e-02
3.164000000000000057e+01,2.496361097008809038e-02
3.167999999999999972e+01,3.196485158508172164e-02
3.171999999999999886e+01,3.840071650437339168e-02
3.176000000000000156e+01,1.492893209886263922e-02
3.180000000000000071e+01,2.164473332315072426e-02
3.183999999999999986e+01,2.215241527182001263e-02
3.187999999999999901e+01,3.507303699472694852e-02
3.192000000000000171e+01,4.488905016435260770e-02
3.196000000000000085e+01,3.156871043633505125e-02
3.200000000000000000e+01,4.025397845948338466e-02
3.203999999999999915e+01,3.059922781364213945e-02
3.207999999999999829e+01,3.730734085867101063e-02
3.211999999999999744e+01,4.937496528389406780e-02
3.215999999999999659e+01,3.181708243915689488e-02
3.220000000000000284e+01,3.231488823274293598e-02
3.224000000000000199e+01,4.042930485608151742e-02
3.228000000000000114e+01,3.838568597323233078e-02
3.232000000000000028e+01,2.336265955404748934e-02
3.235999999999999943e+01,5.404477429786497950e-02
3.239999999999999858e+01,4.325162010978324256e-02
3.243999999999999773e+01,2.512180484755651561e-02
3.247999999999999687e+01,3.210111286262279373e-02
3.252000000000000313e+01,4.331138805746224257e-02
3.256000000000000227e+01,2.715325879455274954e-02
3.260000000000000142e+01,3.469356799480977083e-02
3.264000000000000057e+01,3.884714003755414258e-02
3.267999999999999972e+01,1.535017181263395591e-02
3.271999999999999886e+01,4.320109409518047006e-02
3.275999999999999801e+01,4.029796730924063014e-02
3.279999999999999716e+01,3.852230130414723702e-02
3.284000000000000341e+01,1.868876348869626114e-02
3.288000000000000256e+01,3.891762806012050852e-02
3.292000000000000171e+01,3.318877875246995651e-02
3.296000000000000085e+01,2.689456864086551061e-02
3.300000000000000000e+01,5.248078207674515550e-02
3.303999999999999915e+01,5.514922174379438546e-01
3.307999999999999829e+01,1.000000000000000000e+00
3.311999999999999744e+01,3.848492617130911952e-01
3.315999999999999659e+01,1.684967144838312933e-02
3.320000000000000284e+01,2.268085540891133858e-02
3.324000000000000199e+01,2.145752515392661264e-02
3.328000000000000114e+01,5.352530806434214333e-02
3.332000000000000028e+01,2.690746077736082612e-02
3.335999999999999943e+01,3.188790411022161819e-02
3.339999999999999858e+01,4.561352120803596061e-02
3.343999999999999773e+01,4.438478346275688546e-02
3.347999999999999687e+01,3.497298538002794471e-02
3.352000000000000313e+01,4.305261728602257504e-02
3.356000000000000227e+01,4.153850356006184852e-02
3.360000000000000142e+01,4.369109548200094534e-02
3.364000000000000057e+01,2.242521743116094105e-02
3.367999999999999972e+01,2.598633981793034911e-02
3.371999999999999886e+01,5.776011013532035554e-02
3.375999999999999801e+01,3.592672605843055117e-02
3.379999999999999716e+01,3.525255959660209687e-02
3.384000000000000341e+01,3.175594489073550047e-02
3.388000000000000256e+01,3.531168620805384684e-02
3.392000000000000171e+01,3.491643123788127495e-02
3.396000000000000085e+01,3.395582747322897776e-02
3.400000000000000000e+01,2.706926762447489296e-02
3.403999999999999915e+01,3.852055576252911423e-02
3.407999999999999829e+01,3.755673200302762221e-02
3.411999999999999744e+01,3.574542411950958065e-02
3.415999999999999659e+01,4.747563239604109253e-02
3.420000000000000284e+01,3.748020093141514464e-02
3.424000000000000199e+01,5.202963937865139749e-02
3.428000000000000114e+01,4.993190956443655654e-02
3.432000000000000028e+01,2.328716893967421736e-02
3.435999999999999943e+01,2.203371142106915620e-02
3.439999999999999858e+01,2.839689067268099526e-02
3.443999999999999773e+01,4.463380518331016428e-02
3.447999999999999687e+01,3.660584805596034386e-02
3.452000000000000313e+01,3.873376439943868738e-02
3.456000000000000227e+01,6.484227999570553458e-02
3.460000000000000142e+01,1.561908295459397619e-02
3.464000000000000057e+01,2.733646601493110173e-02
3.467999999999999972e+01,2.466378362602823782e-02
3.471999999999999886e+01,1.804011455721378845e-02
3.475999999999999801e+01,3.285781188360864524e-02
3.479999999999999716e+01,3.864605297190152472e-02
3.484000000000000341e+01,3.004423053247031947e-02
3.488000000000000256e+01,3.921599166570029910e-02
3.492000000000000171e+01,4.161539601038671127e-02
3.496000000000000085e+01,2.228916974111600641e-02
3.500000000000000000e+01,2.553286175353924881e-02
3.503999999999999915e+01,1.692572789960733459e-02
3.507999999999999829e+01,3.314561129654879090e-02
3.511999999999999744e+01,3.779680703894578581e-02
3.515999999999999659e+01,2.495443333507078865e-02
3.520000000000000284e+01,4.032472533583832119e-02
3.524000000000000199e+01,1.845184127740369384e-02
3.528000000000000114e+01,2.648444739068558929e-02
3.532000000000000028e+01,3.479813279553068545e-02
3.535999999999999943e+01,4.564999598073966880e-02
3.539999999999999858e+01,4.831882188668919914e-02
3.543999999999999773e+01,3.039057194743995105e-02
3.547999999999999687e+01,2.628599127179888362e-02
3.552000000000000313e+01,3.233729607646002036e-02
3.556000000000000227e+01,4.600525158232812717e-02
3.560000000000000142e+01,4.133323117293492832e-02
3.564000000000000057e+01,2.706749011129262750e-02
3.567999999999999972e+01,2.465045995778450058e-02
3.571999999999999886e+01,2.646443541436705946e-02
3.575999999999999801e+01,3.504865222089326854e-02
3.579999999999999716e+01,3.347487579458097162e-02
3.584000000000000341e+01,3.867134167897037095e-02
3.588000000000000256e+01,4.668812883970276106e-02
3.592000000000000171e+01,4.285410070241743585e-02
3.596000000000000085e+01,1.898727746696535212e-02
3.600000000000000000e+01,2.107603153531356979e-02
3.603999999999999915e+01,3.924555960099698065e-02
3.607999999999999829e+01,4.020366652017742098e-02
3.611999999999999744e+01,5.244621512955537079e-02
3.615999999999999659e+01,1.333873617581307972e-02
3.620000000000000284e+01,2.162926800777026370e-02
3.624000000000000199e+01,3.556149795000793090e-02
3.628000000000000114e+01,4.187497568342896798e-02
3.632000000000000028e+01,4.875168196894014844e-02
3.635999999999999943e+01,2.007804915217637973e-02
3.639999999999999858e+01,3.287754725090056424e-02
3.643999999999999773e+01,2.987631478179586172e-02
3.647999999999999687e+01,4.803433211314338952e-02
3.652000000000000313e+01,2.866705150636313787e-02
3.656000000000000227e+01,3.469108042658333030e-02
3.660000000000000142e+01,2.152873368785846592e-02
3.664000000000000057e+01,1.654732512267797703e-02
3.667999999999999972e+01,2.708242373879079720e-02
3.671999999999999886e+01,3.874503021288887294e-02
3.675999999999999801e+01,2.868202769008357592e-02
3.679999999999999716e+01,2.764637701549658988e-02
3.684000000000000341e+01,4.043441193740268669e-02
3.688000000000000256e+01,3.967881958407018517e-02
3.692000000000000171e+01,3.412585521851122655e-02
3.696000000000000085e+01,2.885398984005332207e-02
3.700000000000000000e+01,3.768794923065706126e-02
3.703999999999999915e+01,3.608179302911757036e-02
3.707999999999999829e+01,3.447460000476326031e-02
3.711999999999999744e+01,4.245903717376450781e-02
3.715999999999999659e+01,5.185312473597226274e-02
3.720000000000000284e+01,3.077535380281195068e-02
3.724000000000000199e+01,3.988523383099028263e-02
3.728000000000000114e+01,1.965180532876909664e-02
3.732000000000000028e+01,5.161273433075412587e-02
3.735999999999999943e+01,1.303831710940520430e-02
3.739999999999999858e+01,1.424421930670221464e-02
3.743999999999999773e+01,3.886648084196819841e-02
3.747999999999999687e+01,2.906696572978124254e-02
3.752000000000000313e+01,2.829481111263406831e-02
3.756000000000000227e+01,2.582880193090359919e-02
3.760000000000000142e+01,3.154374245181286451e-02
3.764000000000000057e+01,3.105063335205374489e-02
3.767999999999999972e+01,2.745298487358477368e-02
3.771999999999999886e+01,2.611140526678603496e-02
3.775999999999999801e+01,2.787230676519449404e-02
3.779999999999999716e+01,3.358210160234717523e-02
3.784000000000000341e+01,1.192355539177481286e-02
3.788000000000000256e+01,2.073480507965724806e-02
3.792000000000000171e+01,2.982716528373590553e-02
3.796000000000000085e+01,2.340095042543919798e-02
3.800000000000000000e+01,4.575170940041819317e-02
3.803999999999999915e+01,2.380589466640565394e-02
3.807999999999999829e+01,3.176560373063736648e-02
3.811999999999999744e+01,2.505315140716771194e-02
3.815999999999999659e+01,2.257173399690567614e-02
3.820000000000000284e+01,8.239528670227131910e-03
3.824000000000000199e+01,4.328031938594417011e-02
3.828000000000000114e+01,2.471400999020477093e-02
3.832000000000000028e+01,3.718177627919432016e-02
3.835999999999999943e+01,4.513432510065296804e-02
3.839999999999999858e+01,4.151822565864260461e-02
3.843999999999999773e+01,9.405243370380943560e-03
3.847999999999999687e+01,3.117945602363169852e-02
3.852000000000000313e+01,3.828151209297069035e-02
3.856000000000000227e+01,3.071141205877703922e-02
3.860000000000000142e+01,2.962945023038116021e-02
3.864000000000000057e+01,2.572509780342338223e-02
3.867999999999999972e+01,3.508017856828581083e-02
3.871999999999999886e+01,2.045257586639276717e-02
3.875999999999999801e+01,9.491740781286400405e-03
3.879999999999999716e+01,1.969018335861259447e-02
3.884000000000000341e+01,1.408792419084795890e-02
3.888000000000000256e+01,3.133776715258993623e-02
3.892000000000000171e+01,2.686202705789258668e-02
3.896000000000000085e+01,3.790282152608982075e-02
3.900000000000000000e+01,3.737497493650254743e-02
3.903999999999999915e+01,3.571756605845909788e-02
3.907999999999999829e+01,3.885547764444508001e-02
3.911999999999999744e+01,4.453161216641765563e-02
3.915999999999999659e+01,4.033193105843787402e-02
3.920000000000000284e+01,2.851353280930597756e-02
3.924000000000000199e+01,1.782267268203437463e-02
3.928000000000000114e+01,2.575186072226857276e-02
3.932000000000000028e+01,2.295882330090803433e-02
3.935999999999999943e+01,3.935010950991672113e-02
3.939999999999999858e+01,3.316940667387570374e-02
3.943999999999999773e+01,2.868051886369518341e-02
3.947999999999999687e+01,2.475489755554328292e-02
3.952000000000000313e+01,1.067132768979698124e-02
3.956000000000000227e+01,2.056841712421027257e-02
3.960000000000000142e+01,1.692191194915476302e-02
3.964000000000000057e+01,3.189545926501591994e-02
3.967999999999999972e+01,3.445396193637689092e-02
3.971999999999999886e+01,3.475436148151348631e-02
3.975999999999999801e+01,4.238932491659595791e-02
3.979999999999999716e+01,2.237383359147020190e-02
3.984000000000000341e+01,3.311029895442135773e-02
3.988000000000000256e+01,3.199599657687260401e-02
3.992000000000000171e+01,2.495580921130933355e-02
3.996000000000000085e+01,3.173934491179875028e-02
4.000000000000000000e+01,1.990082028766059288e-02
4.003999999999999915e+01,2.357884319664923026e-02
4.007999999999999829e+01,2.838441431545630014e-02
4.011999999999999744e+01,2.867478910340728535e-02
4.015999999999999659e+01,2.106432102824867120e-02
4.020000000000000284e+01,3.630597093510257861e-02
4.024000000000000199e+01,1.769015184275766345e-02
4.028000000000000114e+01,4.026537301160773574e-02
4.032000000000000028e+01,4.280785144359863792e-02
4.035999999999999943e+01,4.027086192490177824e-02
4.039999999999999858e+01,1.064769935378650015e-02
4.043999999999999773e+01,2.983328474380472078e-02
4.047999999999999687e+01,1.798277652742481802e-02
4.052000000000000313e+01,2.108454710661379974e-02
4.056000000000000227e+01,2.587814616227436179e-02
4.060000000000000142e+01,2.446373114531023504e-02
4.064000000000000057e+01,3.123030233978733514e-02
4.067999999999999972e+01,3.037817416713432458e-02
4.071999999999999886e+01,3.403924890299561690e-02
4.075999999999999801e+01,3.572437025353834839e-02
4.079999999999999716e+01,1.765889188282227310e-02
4.084000000000000341e+01,4.783789177492392408e-02
4.088000000000000256e+01,3.738813632862574010e-02
4.092000000000000171e+01,3.850501746905397177e-02
4.096000000000000085e+01,2.664259483500374531e-02
4.100000000000000000e+01,3.311810377370224406e-02
4.103999999999999915e+01,3.423201567710268400e-02
4.107999999999999829e+01,3.083074277874222127e-02
4.111999999999999744e+01,3.645687360952878930e-02
4.115999999999999659e+01,4.095346761194455093e-02
4.120000000000000284e+01,1.300329039952014161e-02
4.124000000000000199e+01,2.991194924107105219e-02
4.128000000000000114e+01,2.283795536012027741e-02
4.132000000000000028e+01,2.507350486126414674e-02
4.135999999999999943e+01,3.774714722909215669e-02
4.139999999999999858e+01,4.308423612766418970e-02
4.143999999999999773e+01,2.697790948472466102e-02
4.147999999999999687e+01,3.626295145539872727e-02
4.152000000000000313e+01,4.865051968690302375e-02
4.156000000000000227e+01,3.508047780118972447e-02
4.160000000000000142e+01,3.392349242180336261e-02
4.164000000000000057e+01,3.840827000385829693e-02
4.167999999999999972e+01,3.866000724088947821e-02
4.171999999999999886e+01,3.693580262169739864e-02
4.175999999999999801e+01,4.903534268561144521e-02
4.179999999999999716e+01,3.066307949773877661e-02
4.184000000000000341e+01,3.034662071952044099e-02
4.188000000000000256e+01,3.454337878080659952e-02
4.192000000000000171e+01,1.870741332039231597e-02
4.196000000000000085e+01,1.838801845129505244e-02
4.200000000000000000e+01,3.556015541126289481e-02
4.203999999999999915e+01,3.721376630751015158e-02
4.207999999999999829e+01,3.576289066673401379e-02
4.211999999999999744e+01,1.992203892720607536e-02
4.215999999999999659e+01,2.439409344878578148e-02
4.220000000000000284e+01,3.591860391237589045e-02
4.224000000000000199e+01,2.938535545466601506e-02
4.228000000000000114e+01,3.216166190814603171e-02
4.232000000000000028e+01,2.619073968582271567e-02
4.235999999999999943e+01,2.529731456965679526e-02
4.239999999999999858e+01,2.101726950844669609e-02
4.243999999999999773e+01,2.548250677783681778e-02
4.247999999999999687e+01,3.135745833083621731e-02
4.252000000000000313e+01,3.102441886940152799e-02
4.256000000000000227e+01,5.072215322181142932e-02
4.260000000000000142e+01,3.599817241527632217e-02
4.264000000000000057e+01,3.566222136229003220e-02
4.267999999999999972e+01,2.911828121638542974e-02
4.271999999999999886e+01,4.316939130794675977e-02
4.275999999999999801e+01,4.311267023787238722e-02
4.279999999999999716e+01,3.741223601812192906e-02
4.284000000000000341e+01,3.537861841381304689e-02
4.288000000000000256e+01,3.165121013532369576e-02
4.292000000000000171e+01,3.074420767987574854e-02
4.296000000000000085e+01,4.225027806363964439e-02
4.300000000000000000e+01,4.980546120593841442e-02
4.303999999999999915e+01,4.889556157030804789e-02
4.307999999999999829e+01,3.810989338186407394e-02
4.311999999999999744e+01,6.371896629362620856e-02
4.315999999999999659e+01,7.014174232859385349e-02
4.320000000000000284e+01,7.599928053662373395e-02
4.324000000000000199e+01,8.749860092125349986e-02
4.328000000000000114e+01,9.561131192917633748e-02
4.332000000000000028e+01,1.198048843634065969e-01
4.335999999999999943e+01,1.121159860253665430e-01
4.339999999999999858e+01,1.092224600322842659e-01
4.343999999999999773e+01,1.114064441155915297e-01
4.347999999999999687e+01,8.594001763355560430e-02
4.352000000000000313e+01,7.062957270761546780e-02
4.356000000000000227e+01,6.773220782657167482e-02
4.360000000000000142e+01,6.963021769238067482e-02
4.364000000000000057e+01,5.826681871804925694e-02
4.367999999999999972e+01,5.621299146817161640e-02
4.371999999999999886e+01,2.340524677364492698e-02
4.375999999999999801e+01,3.178858413328353866e-02
4.379999999999999716e+01,4.440302413956430383e-02
4.384000000000000341e+01,4.939880272865339317e-02
4.388000000000000256e+01,4.056890085777063726e-02
4.392000000000000171e+01,3.625224032571963684e-02
4.396000000000000085e+01,3.785950786814285679e-02
4.400000000000000000e+01,3.974795894436550237e-02
4.403999999999999915e+01,3.373561375423855119e-02
4.407999999999999829e+01,2.349025704182594598e-02
4.411999999999999744e+01,3.750775164382807308e-02
4.415999999999999659e+01,2.867117711482519357e-02
4.420000000000000284e+01,3.365837657204555355e-02
4.424000000000000199e+01,3.554111543270681989e-02
4.428000000000000114e+01,2.105894337771177169e-02
4.432000000000000028e+01,3.140389954113167320e-02
4.435999999999999943e+01,2.453753399649506034e-02
4.439999999999999858e+01,2.613433706997548775e-02
4.443999999999999773e+01,2.773019171037130470e-02
4.447999999999999687e+01,3.919990218490555095e-02
4.452000000000000313e+01,3.966531239605825682e-02
4.456000000000000227e+01,3.110138358157726532e-02
4.460000000000000142e+01,4.595390009290053340e-02
4.464000000000000057e+01,3.259174546776533871e-02
4.467999999999999972e+01,3.756756661024403948e-02
4.471999999999999886e+01,4.310671718439620936e-02
4.475999999999999801e+01,3.905225663270412567e-02
4.479999999999999716e+01,3.020051870344242495e-02
4.484000000000000341e+01,4.420095448015355644e-02
4.488000000000000256e+01,3.478305527057559687e-02
4.492000000000000171e+01,2.762131140088220846e-02
4.496000000000000085e+01,2.835846837250596136e-02
4.500000000000000000e+01,3.304460515108824381e-02
4.503999999999999915e+01,3.772980070227045790e-02
4.507999999999999829e+01,3.846413399169395370e-02
4.511999999999999744e+01,4.342958578026558797e-02
4.515999999999999659e+01,2.695166670256978619e-02
4.520000000000000284e+01,2.994027864162514610e-02
4.524000000000000199e+01,1.571757944096140516e-02
4.528000000000000114e+01,2.998980425149272433e-02
4.532000000000000028e+01,3.382201290832727303e-02
4.535999999999999943e+01,4.809236246974300799e-02
4.539999999999999858e+01,2.596606974137261742e-02
4.543999999999999773e+01,1.935638939728958480e-02
4.547999999999999687e+01,3.390606693892675438e-02
4.552000000000000313e+01,1.967680941033724679e-02
4.556000000000000227e+01,1.898920494980325946e-02
4.560000000000000142e+01,3.099684228454568924e-02
4.564000000000000057e+01,2.015042826230483558e-02
4.567999999999999972e+01,3.723466855294345346e-02
4.571999999999999886e+01,4.557172099999109993e-02
4.575999999999999801e+01,4.036525281593104225e-02
4.579999999999999716e+01,2.076885272798429868e-02
4.584000000000000341e+01,2.825669712127477570e-02
4.588000000000000256e+01,2.304743407775261890e-02
4.592000000000000171e+01,2.122288738779989567e-02
4.596000000000000085e+01,3.209358681653422946e-02
4.600000000000000000e+01,1.672459219906379316e-02
4.603999999999999915e+01,3.662182474525342568e-02
4.607999999999999829e+01,2.181524667441557541e-02
4.611999999999999744e+01,2.760375967325597729e-02
4.615999999999999659e+01,2.069516859793640168e-02
4.620000000000000284e+01,3.776731656568528550e-02
4.624000000000000199e+01,3.480679289266228743e-02
4.628000000000000114e+01,2.987038212661843189e-02
4.632000000000000028e+01,4.101486881530465312e-02
4.635999999999999943e+01,3.974439108277841998e-02
4.639999999999999858e+01,3.085528267731451127e-02
4.643999999999999773e+01,3.550783790824336983e-02
4.647999999999999687e+01,3.169535167383438073e-02
4.652000000000000313e+01,1.857141270130844082e-02
4.656000000000000227e+01,2.745325633789278200e-02
4.660000000000000142e+01,4.056623624764719993e-02
4.664000000000000057e+01,2.941449055462902820e-02
4.667999999999999972e+01,3.603647014606783244e-02
4.671999999999999886e+01,4.293966593707590484e-02
4.675999999999999801e+01,2.388531406013219907e-02
4.679999999999999716e+01,3.219735544457374282e-02
4.684000000000000341e+01,2.527306566182362796e-02
4.688000000000000256e+01,4.317593484174248736e-02
4.692000000000000171e+01,2.468217998627603507e-02
4.696000000000000085e+01,2.593711453528809580e-02
4.700000000000000000e+01,3.283387641652330685e-02
4.703999999999999915e+01,2.787995654509391880e-02
4.707999999999999829e+01,2.546435520506603462e-02
4.711999999999999744e+01,3.574401391471537098e-02
4.715999999999999659e+01,3.417299231283696392e-02
4.720000000000000284e+01,1.962274187559917560e-02
4.724000000000000199e+01,3.159247823075719136e-02
4.728000000000000114e+01,3.679000623447281626e-02
4.732000000000000028e+01,2.759762058870250320e-02
4.735999999999999943e+01,1.389012556066919132e-02
4.739999999999999858e+01,2.642048199549490092e-02
4.743999999999999773e+01,3.105008299618340281e-02
4.747999999999999687e+01,2.298259577521787403e-02
4.752000000000000313e+01,3.946013795193212270e-02
4.756000000000000227e+01,3.787998509774927886e-02
4.760000000000000142e+01,2.811694147989238571e-02
4.764000000000000057e+01,3.358839941611345414e-02
4.767999999999999972e+01,3.877681057889365013e-02
4.771999999999999886e+01,3.916797943176895253e-02
4.775999999999999801e+01,3.532618095722364626e-02
4.779999999999999716e+01,3.712621942248087864e-02
4.784000000000000341e+01,2.989695825317976313e-02
4.788000000000000256e+01,2.915594673759711042e-02
4.792000000000000171e+01,3.857096961979685629e-02
4.796000000000000085e+01,3.980310606173318583e-02
4.800000000000000000e+01,2.495251351431000339e-02
4.803999999999999915e+01,1.348666278054156016e-02
4.807999999999999829e+01,2.713012267186374477e-02
4.811999999999999744e+01,3.287283529549121092e-02
4.815999999999999659e+01,2.732915411917056017e-02
4.820000000000000284e+01,1.444900113801845035e-02
4.824000000000000199e+01,2.696029795452562633e-02
4.828000000000000114e+01,3.918855520327639563e-02
4.832000000000000028e+01,2.743424427622413730e-02
4.835999999999999943e+01,3.317154155849262598e-02
4.839999999999999858e+01,3.241878119098264704e-02
4.843999999999999773e+01,5.085045349986765800e-02
4.847999999999999687e+01,3.711757927393739831e-02
4.852000000000000313e+01,3.043723688989457415e-02
4.856000000000000227e+01,4.011995611285664592e-02
4.860000000000000142e+01,3.428422805424900799e-02
4.864000000000000057e+01,3.211538626603339247e-02
4.867999999999999972e+01,3.079205871806185019e-02
4.871999999999999886e+01,2.777501063123918520e-02
4.875999999999999801e+01,3.632469328542065057e-02
4.879999999999999716e+01,3.274157807255949348e-02
4.884000000000000341e+01,3.282535153198519462e-02
4.888000000000000256e+01,3.431891613565511701e-02
4.892000000000000171e+01,2.226899805815595740e-02
4.896000000000000085e+01,3.504626392303205468e-02
4.900000000000000000e+01,3.033012655275932681e-02
4.903999999999999915e+01,2.645950774614137802e-02
4.907999999999999829e+01,2.738432949829480365e-02
4.911999999999999744e+01,2.943680802591371048e-02
4.915999999999999659e+01,2.951343404779743079e-02
4.920000000000000284e+01,3.494977657169477669e-02
4.924000000000000199e+01,3.587103229114079611e-02
4.928000000000000114e+01,3.538071144809385588e-02
4.932000000000000028e+01,3.122171651451150637e-02
4.935999999999999943e+01,3.919373402972319703e-02
4.939999999999999858e+01,2.854380410936500911e-02
4.943999999999999773e+01,4.469602465329851337e-02
4.947999999999999687e+01,2.783729891873295073e-02
4.952000000000000313e+01,3.411294034553218751e-02
4.956000000000000227e+01,4.461975359354507231e-02
4.960000000000000142e+01,3.622248455683012291e-02
4.964000000000000057e+01,4.700966260787922679e-02
4.967999999999999972e+01,3.578924957337895757e-02
4.971999999999999886e+01,4.008550032371568234e-02
4.975999999999999801e+01,4.325231752715982120e-02
4.979999999999999716e+01,3.033642735829786968e-02
4.984000000000000341e+01,3.716926118120020966e-02
4.988000000000000256e+01,4.428334915361024915e-02
4.992000000000000171e+01,2.995412342485014728e-02
4.996000000000000085e+01,4.214491715425568857e-02
5.000000000000000000e+01,4.079224117272414046e-02
5.003999999999999915e+01,4.169578201958509811e-02
5.007999999999999829e+01,3.244150112889917364e-02
5.011999999999999744e+01,4.857869261368401997e-02
5.015999999999999659e+01,3.988692626694022997e-02
5.020000000000000284e+01,4.389045695905420541e-02
5.024000000000000199e+01,4.055754034566411148e-02
5.028000000000000114e+01,4.399503945978323893e-02
5.032000000000000028e+01,4.940662151389490359e-02
5.035999999999999943e+01,5.171381646942972699e-02
5.039999999999999858e+01,6.417707560624297258e-02
5.043999999999999773e+01,5.152924302312760635e-02
5.047999999999999687e+01,3.041641701257127503e-02
5.052000000000000313e+01,5.529108750812155443e-02
5.056000000000000227e+01,6.577588326488234549e-02
5.060000000000000142e+01,4.691753045744003620e-02
5.064000000000000057e+01,3.200822519039091957e-02
5.067999999999999972e+01,3.882261476043314535e-02
5.071999999999999886e+01,4.055766079794044521e-02
5.075999999999999801e+01,5.414159884645295545e-02
5.079999999999999716e+01,5.531062579581855904e-02
5.084000000000000341e+01,4.745038913904852523e-02
5.088000000000000256e+01,2.520028158652062519e-02
5.092000000000000171e+01,3.821645980388699293e-02
5.096000000000000085e+01,4.051055234993844456e-02
5.100000000000000000e+01,4.054667723663457624e-02
5.103999999999999915e+01,2.450010964277265016e-02
5.107999999999999829e+01,2.199526140926390608e-02
5.111999999999999744e+01,4.064983879490977753e-02
5.115999999999999659e+01,2.770417633323673731e-02
5.120000000000000284e+01,2.660741116673756568e-02
5.124000000000000199e+01,2.240626946999881020e-02
5.128000000000000114e+01,4.246806507551026399e-02
5.132000000000000028e+01,3.403313251679811885e-02
5.135999999999999943e+01,2.362237387319408161e-02
5.139999999999999858e+01,2.731761293508028210e-02
5.143999999999999773e+01,2.677992886441100603e-02
5.147999999999999687e+01,3.047343967314591548e-02
5.152000000000000313e+01,3.360181257376818054e-02
5.156000000000000227e+01,3.080444027665572154e-02
5.160000000000000142e+01,3.280253880218973045e-02
5.164000000000000057e+01,4.269961839232864348e-02
5.167999999999999972e+01,2.889630740955038968e-02
5.171999999999999886e+01,4.302372327687594561e-02
5.175999999999999801e+01,3.824708279993794396e-02
5.179999999999999716e+01,2.669828825438101336e-02
5.184000000000000341e+01,3.123045745585182817e-02
5.188000000000000256e+01,3.209398331104117152e-02
5.192000000000000171e+01,3.041741530453875159e-02
5.196000000000000085e+01,4.058975372041067481e-02
5.200000000000000000e+01,3.298658767850370932e-02
5.203999999999999915e+01,3.977156427920312820e-02
5.207999999999999829e+01,2.765248837867077120e-02
5.211999999999999744e+01,3.641071285571472610e-02
5.215999999999999659e+01,4.150029734912993179e-02
5.220000000000000284e+01,2.147881125929117230e-02
5.224000000000000199e+01,2.797737200921930276e-02
5.228000000000000114e+01,2.657523545086537195e-02
5.232000000000000028e+01,2.319728433671468942e-02
5.235999999999999943e+01,4.069663648241401976e-02
5.239999999999999858e+01,3.872766546780804370e-02
5.243999999999999773e+01,2.575448930485627411e-02
5.247999999999999687e+01,2.716946106867955402e-02
5.252000000000000313e+01,2.914785593807523237e-02
5.256000000000000227e+01,2.266128235973626295e-02
5.260000000000000142e+01,3.507705416615219257e-02
5.264000000000000057e+01,3.705289772822267097e-02
5.267999999999999972e+01,3.648865655580176004e-02
5.271999999999999886e+01,3.338433112926848106e-02
5.275999999999999801e+01,3.930754922216203595e-02
5.279999999999999716e+01,3.761221350275288644e-02
5.284000000000000341e+01,3.506961847668428611e-02
5.288000000000000256e+01,2.970480386696653513e-02
5.292000000000000171e+01,4.296020123398287122e-02
5.296000000000000085e+01,3.166881164705095258e-02
5.300000000000000000e+01,2.094085093023905636e-02
5.303999999999999915e+01,3.532226040550997398e-02
5.307999999999999829e+01,1.528208058112547930e-02
5.311999999999999744e+01,2.740470318589888557e-02
5.315999999999999659e+01,3.021595279546417101e-02
5.320000000000000284e+01,2.681933965177967644e-02
5.324000000000000199e+01,3.583592280470184605e-02
5.328000000000000114e+01,3.751609516092156010e-02
5.332000000000000028e+01,2.790993568608021377e-02
5.335999999999999943e+01,3.974536598266829868e-02
5.339999999999999858e+01,1.574852456736940826e-02
5.343999999999999773e+01,2.532517567952366142e-02
5.347999999999999687e+01,2.812969289897557582e-02
5.352000000000000313e+01,2.500848845926220351e-02
5.356000000000000227e+01,3.627544491655618208e-02
5.360000000000000142e+01,2.750981812280837990e-02
5.364000000000000057e+01,3.087525517840425046e-02
5.367999999999999972e+01,3.254703126214105596e-02
5.371999999999999886e+01,3.647506836913548545e-02
5.375999999999999801e+01,3.560593570344923464e-02
5.379999999999999716e+01,3.247886900493533041e-02
5.384000000000000341e+01,3.019737851555254551e-02
5.388000000000000256e+01,2.819719021357431840e-02
5.392000000000000171e+01,3.945661812780321132e-02
5.396000000000000085e+01,3.181201611861205619e-02
5.400000000000000000e+01,2.473085498901495677e-02
5.403999999999999915e+01,3.006289976360392024e-02
5.407999999999999829e+01,3.285487661696542827e-02
5.411999999999999744e+01,3.000327626789895535e-02
5.415999999999999659e+01,3.364000099204898786e-02
5.420000000000000284e+01,2.655467895558049490e-02
5.424000000000000199e+01,3.216470247624567819e-02
5.428000000000000114e+01,2.846336645231366258e-02
5.432000000000000028e+01,2.476120064890223460e-02
5.435999999999999943e+01,3.742216610744623917e-02
5.439999999999999858e+01,2.694704816094832533e-02
5.443999999999999773e+01,4.383841522821856074e-02
5.447999999999999687e+01,2.122973929014899258e-02
5.452000000000000313e+01,1.949839255239377289e-02
5.456000000000000227e+01,3.836223824427907603e-02
5.460000000000000142e+01,2.336878739301515365e-02
5.464000000000000057e+01,3.715251021267781256e-02
5.467999999999999972e+01,4.106060378942756606e-02
5.471999999999999886e+01,3.452879410153818218e-02
5.475999999999999801e+01,2.404623840360041107e-02
5.479999999999999716e+01,3.782666228126187191e-02
5.484000000000000341e+01,3.213879230173503909e-02
5.488000000000000256e+01,3.350353054435161598e-02
5.492000000000000171e+01,3.909950497896350768e-02
5.496000000000000085e+01,3.058779476752507970e-02
5.500000000000000000e+01,2.376808644936578840e-02
5.503999999999999915e+01,3.302938030855179230e-02
5.507999999999999829e+01,3.185077522650921200e-02
5.511999999999999744e+01,2.333578144519672659e-02
5.515999999999999659e+01,1.876988948710078473e-02
5.520000000000000284e+01,2.746362911733900639e-02
5.524000000000000199e+01,2.853884423839148782e-02
5.528000000000000114e+01,3.638453513432433201e-02
5.532000000000000028e+01,3.548315347761854532e-02
5.535999999999999943e+01,2.273118998707360922e-02
5.539999999999999858e+01,2.775305650360077384e-02
5.543999999999999773e+01,2.910632242757469137e-02
5.547999999999999687e+01,4.315494880043012349e-02
5.552000000000000313e+01,2.927117195095907745e-02
5.556000000000000227e+01,2.723634475796962370e-02
5.560000000000000142e+01,2.463642865552223560e-02
5.564000000000000057e+01,3.444973767241963497e-02
5.567999999999999972e+01,2.676972367745598241e-02
5.571999999999999886e+01,2.698873974575194054e-02
5.575999999999999801e+01,4.131380588084572481e-02
5.579999999999999716e+01,4.012051120258408599e-02
5.584000000000000341e+01,2.256244443818795214e-02
5.588000000000000256e+01,1.487837041593614851e-02
5.592000000000000171e+01,2.863591690936792902e-02
5.596000000000000085e+01,3.082502602569784853e-02
5.600000000000000000e+01,3.132050203214881146e-02
5.603999999999999915e+01,2.899379640488909671e-02
5.607999999999999829e+01,2.158781161587624772e-02
5.611999999999999744e+01,3.590558699549438459e-02
5.615999999999999659e+01,3.780851564674742038e-02
5.620000000000000284e+01,3.547857833054231247e-02
5.624000000000000199e+01,3.314783429304810070e-02
5.628000000000000114e+01,3.222697026990734709e-02
5.632000000000000028e+01,4.484788853676462128e-02
5.635999999999999943e+01,4.731106048557317395e-02
5.639999999999999858e+01,2.917740830776235569e-02
5.643999999999999773e+01,3.728171615845736475e-02
5.647999999999999687e+01,3.720323988960937134e-02
5.652000000000000313e+01,3.007052898580790321e-02
5.656000000000000227e+01,3.845456401164706883e-02
5.660000000000000142e+01,1.410987551749634701e-02
5.664000000000000057e+01,3.942054129111924321e-02
5.667999999999999972e+01,2.579546498235097546e-02
5.671999999999999886e+01,3.079064628631874787e-02
5.675999999999999801e+01,2.957800759076508954e-02
5.679999999999999716e+01,3.965005894133547676e-02
5.684000000000000341e+01,3.984650698945736008e-02
5.688000000000000256e+01,3.157803847077321480e-02
5.692000000000000171e+01,2.782296741408549906e-02
5.696000000000000085e+01,2.632419629135178407e-02
5.700000000000000000e+01,3.893149012716395907e-02
5.703999999999999915e+01,3.235265377768375278e-02
5.707999999999999829e+01,2.436233453960943290e-02
5.711999999999999744e+01,1.806404265489961261e-02
5.715999999999999659e+01,2.502540589709352156e-02
5.720000000000000284e+01,3.593589546183122846e-02
5.724000000000000199e+01,3.471368851948865297e-02
5.728000000000000114e+01,3.123358933728888343e-02
5.732000000000000028e+01,2.408491214034723035e-02
5.735999999999999943e+01,2.878520621694066056e-02
5.739999999999999858e+01,3.743462901797291881e-02
5.743999999999999773e+01,1.702312265065838992e-02
5.747999999999999687e+01,2.510668681012431791e-02
5.752000000000000313e+01,2.275038133147893465e-02
5.756000000000000227e+01,3.450014753668488587e-02
5.760000000000000142e+01,2.791020203506205596e-02
5.764000000000000057e+01,2.385870188488843982e-02
5.767999999999999972e+01,3.250258860443971942e-02
5.771999999999999886e+01,2.873164733040548674e-02
5.775999999999999801e+01,3.906678014211751454e-02
5.779999999999999716e+01,3.698708592100216630e-02
5.784000000000000341e+01,4.224217272112639615e-02
5.788000000000000256e+01,2.915755117707467120e-02
5.792000000000000171e+01,2.538267237238944762e-02
5.796000000000000085e+01,2.640334077060652387e-02
5.800000000000000000e+01,2.770536083526194820e-02
5.803999999999999915e+01,2.195316451936479840e-02
5.807999999999999829e+01,2.127865409855967532e-02
5.811999999999999744e+01,2.906747706585769905e-02
5.815999999999999659e+01,3.121277134900346875e-02
5.820000000000000284e+01,3.730720396416743051e-02
5.824000000000000199e+01,3.550101084751552255e-02
5.828000000000000114e+01,2.579419247942676963e-02
5.832000000000000028e+01,3.019345492238994025e-02
5.835999999999999943e+01,2.443499506625262593e-02
5.839999999999999858e+01,2.149712693981751729e-02
5.843999999999999773e+01,4.225800760136243922e-02
5.847999999999999687e+01,3.593293234178271400e-02
5.852000000000000313e+01,3.581409726567429119e-02
5.856000000000000227e+01,3.118028731341410120e-02
5.860000000000000142e+01,2.823852248854029010e-02
5.864000000000000057e+01,4.476345008775096945e-02
5.867999999999999972e+01,1.981342436404471413e-02
5.871999999999999886e+01,3.774748386255408206e-02
5.875999999999999801e+01,4.270245335522584312e-02
5.879999999999999716e+01,2.508566678664760422e-02
5.884000000000000341e+01,2.552488878878534512e-02
5.888000000000000256e+01,3.217035529780522263e-02
5.892000000000000171e+01,3.909718452197966793e-02
5.896000000000000085e+01,3.981622016747590753e-02
5.900000000000000000e+01,2.727403143835574820e-02
5.903999999999999915e+01,3.814846145184740134e-02
5.907999999999999829e+01,2.560472701358380843e-02
5.911999999999999744e+01,3.111700450868903553e-02
5.915999999999999659e+01,3.352500058859037013e-02
5.920000000000000284e+01,3.762504900156255633e-02
5.924000000000000199e+01,2.789960142008678437e-02
5.928000000000000114e+01,4.243718721665468152e-02
5.932000000000000028e+01,3.609584670321529243e-02
5.935999999999999943e+01,3.116442319330996885e-02
5.939999999999999858e+01,3.046428967784458111e-02
5.943999999999999773e+01,3.850964265404090842e-02
5.947999999999999687e+01,4.288644355595980229e-02
5.952000000000000313e+01,3.654126158766309723e-02
5.956000000000000227e+01,4.007011655637579550e-02
5.960000000000000142e+01,3.908400913878988525e-02
5.964000000000000057e+01,3.189011630896831928e-02
5.967999999999999972e+01,2.497759532150162221e-02
5.971999999999999886e+01,2.060354466519039029e-02
5.975999999999999801e+01,2.638567059883624444e-02
5.979999999999999716e+01,3.611695407965898053e-02
5.984000000000000341e+01,3.653694478856114869e-02
5.988000000000000256e+01,3.526334898434448778e-02
5.992000000000000171e+01,3.286044164949317864e-02
5.996000000000000085e+01,2.566043900070118233e-02
