2.003999999999999915e+01,1.806634548558426132e-02
2.007999999999999829e+01,2.403095513169678857e-02
2.012000000000000099e+01,1.564101031575813872e-02
2.016000000000000014e+01,1.214029161873390189e-02
2.019999999999999929e+01,2.141559445688204569e-02
2.023999999999999844e+01,3.069031068290735756e-02
2.028000000000000114e+01,3.333953244706176766e-02
2.032000000000000028e+01,2.005684151348661667e-02
2.035999999999999943e+01,2.333583448862778381e-02
2.039999999999999858e+01,2.724518512388441130e-02
2.044000000000000128e+01,1.806186984156952363e-02
2.048000000000000043e+01,1.991948227966818669e-02
2.051999999999999957e+01,1.436292170853460497e-02
2.055999999999999872e+01,3.404352063968007353e-02
2.060000000000000142e+01,7.349178336452543391e-03
2.064000000000000057e+01,2.655539942504669959e-02
2.067999999999999972e+01,6.958003048390865898e-03
2.071999999999999886e+01,1.212455911079497566e-02
2.076000000000000156e+01,2.044524878130709461e-02
2.080000000000000071e+01,3.223554403305226718e-02
2.083999999999999986e+01,1.610599992102972403e-02
2.087999999999999901e+01,2.552908842537062600e-02
2.092000000000000171e+01,2.107083344274402609e-02
2.096000000000000085e+01,2.260595917437216440e-02
2.100000000000000000e+01,2.587559634648584073e-02
2.103999999999999915e+01,1.005860565345988514e-02
2.107999999999999829e+01,2.421085373359671208e-02
2.112000000000000099e+01,3.173761077474095138e-02
2.116000000000000014e+01,1.465698376244272717e-02
2.119999999999999929e+01,2.644144467683284469e-02
2.123999999999999844e+01,8.255501091548666376e-03
2.128000000000000114e+01,1.688407899309228577e-02
2.132000000000000028e+01,2.093773343646341753e-02
2.135999999999999943e+01,1.868136962893788416e-02
2.139999999999999858e+01,1.532027260066469096e-02
2.144000000000000128e+01,2.441973035025400696e-02
2.148000000000000043e+01,1.900690327453373810e-02
2.151999999999999957e+01,3.709614465723526378e-02
2.155999999999999872e+01,4.934857631920712417e-02
2.160000000000000142e+01,2.043135568881641884e-02
2.164000000000000057e+01,3.047432270222953654e-02
2.167999999999999972e+01,2.852878018634895027e-02
2.171999999999999886e+01,1.806491821560542513e-02
2.176000000000000156e+01,1.438311974432716044e-02
2.180000000000000071e+01,3.136414458125495741e-02
2.183999999999999986e+01,3.730307597125776670e-02
2.187999999999999901e+01,6.015753836489830947e-03
2.192000000000000171e+01,2.283730298027263766e-02
2.196000000000000085e+01,2.041449210271746931e-02
2.200000000000000000e+01,8.842419290997712705e-03
2.203999999999999915e+01,1.840637848064508378e-02
2.207999999999999829e+01,1.929428377731219266e-02
2.212000000000000099e+01,2.948802852143746211e-02
2.216000000000000014e+01,1.507439328697546266e-02
2.219999999999999929e+01,1.706471355389850564e-02
2.223999999999999844e+01,2.078955031412792545e-02
2.228000000000000114e+01,3.523985031938006718e-02
2.232000000000000028e+01,2.997258405504606496e-02
2.235999999999999943e+01,2.675530658313174728e-02
2.239999999999999858e+01,2.543028216156596397e-02
2.244000000000000128e+01,2.300052875710227596e-02
2.248000000000000043e+01,2.514453911508546941e-02
2.251999999999999957e+01,1.987438461354730512e-02
2.255999999999999872e+01,2.580290221318705737e-02
2.260000000000000142e+01,1.926970631720412164e-02
2.264000000000000057e+01,1.320914130394746332e-02
2.267999999999999972e+01,2.418347736826747391e-02
2.271999999999999886e+01,1.007722802072348600e-02
2.276000000000000156e+01,2.515154476677285492e-02
2.280000000000000071e+01,2.476716663592990267e-02
2.283999999999999986e+01,2.312032524706571571e-02
2.287999999999999901e+01,1.547894361121567378e-02
2.292000000000000171e+01,2.045585868907939808e-02
2.296000000000000085e+01,1.817634660542327696e-02
2.300000000000000000e+01,1.747361820689822751e-02
2.303999999999999915e+01,2.607673300469820835e-02
2.307999999999999829e+01,2.537285436411206366e-02
2.312000000000000099e+01,2.356424951152980354e-02
2.316000000000000014e+01,8.505253919917136335e-03
2.319999999999999929e+01,1.032342561974083743e-02
2.323999999999999844e+01,2.728366981827672413e-02
2.328000000000000114e+01,2.436861575402252816e-02
2.332000000000000028e+01,2.713148021055100320e-02
2.335999999999999943e+01,2.342659866082827044e-02
2.339999999999999858e+01,3.028944901490085786e-02
2.344000000000000128e+01,1.806568128348672378e-02
2.348000000000000043e+01,2.035304340848885854e-02
2.351999999999999957e+01,1.806549104000020056e-02
2.355999999999999872e+01,3.770265639198546598e-02
2.360000000000000142e+01,2.673848324069388188e-02
2.364000000000000057e+01,2.113675810400808888e-02
2.367999999999999972e+01,2.531408648675068443e-02
2.371999999999999886e+01,2.491650119097363336e-02
2.376000000000000156e+01,2.814626944306659884e-02
2.380000000000000071e+01,1.575961098805743824e-02
2.383999999999999986e+01,1.047049631834332667e-02
2.387999999999999901e+01,9.439679305743313778e-03
2.392000000000000171e+01,2.765207109445482619e-02
2.396000000000000085e+01,2.851294187232270710e-02
2.400000000000000000e+01,2.558757963795698503e-02
2.403999999999999915e+01,2.613183618735547692e-02
2.407999999999999829e+01,1.295249803139492985e-02
2.412000000000000099e+01,1.286466919417034865e-02
2.416000000000000014e+01,1.514230829423575397e-02
2.419999999999999929e+01,2.088956683004218606e-02
2.423999999999999844e+01,7.707946445311576918e-03
2.428000000000000114e+01,2.023670843651780363e-02
2.432000000000000028e+01,2.203885889657091965e-02
2.435999999999999943e+01,3.204270659630104046e-02
2.439999999999999858e+01,2.169805288188318693e-02
2.444000000000000128e+01,3.138528961302824299e-02
2.448000000000000043e+01,1.583421219898948837e-02
2.451999999999999957e+01,2.662446175911411736e-02
2.455999999999999872e+01,1.785489008239412798e-02
2.460000000000000142e+01,2.123041424994883547e-02
2.464000000000000057e+01,2.460536973474458655e-02
2.467999999999999972e+01,3.507787242771398528e-02
2.471999999999999886e+01,1.794602337748526025e-02
2.476000000000000156e+01,4.150946964032758285e-02
2.480000000000000071e+01,2.153723807436492416e-02
2.483999999999999986e+01,2.601350392573581471e-02
2.487999999999999901e+01,1.723938604682769687e-02
2.492000000000000171e+01,1.256583415781786436e-02
2.496000000000000085e+01,2.508492854212043127e-02
2.500000000000000000e+01,2.135665748888595367e-02
2.503999999999999915e+01,1.541951671192044737e-02
2.507999999999999829e+01,1.547577343761356687e-02
2.512000000000000099e+01,1.963259696817612476e-02
2.516000000000000014e+01,2.126507945385955334e-02
2.519999999999999929e+01,5.230574171389339340e-03
2.523999999999999844e+01,1.743022965776210714e-02
2.528000000000000114e+01,2.063837248056107215e-02
2.532000000000000028e+01,2.337274167630681507e-02
2.535999999999999943e+01,2.279409111681802644e-02
2.539999999999999858e+01,1.543223105365241869e-02
2.544000000000000128e+01,2.068867797283609894e-02
2.548000000000000043e+01,2.215889791057201047e-02
2.551999999999999957e+01,1.495307797283011546e-02
2.555999999999999872e+01,9.954995772110354288e-03
2.560000000000000142e+01,1.126578500310476509e-02
2.564000000000000057e+01,3.528997995559859935e-02
2.567999999999999972e+01,3.849247099456335613e-02
2.571999999999999886e+01,3.254571525782561092e-02
2.576000000000000156e+01,2.202405415527302832e-02
2.580000000000000071e+01,1.087088547653243531e-02
2.583999999999999986e+01,6.815268732797850372e-03
2.587999999999999901e+01,2.925872041009516811e-02
2.592000000000000171e+01,3.009178962650228134e-02
2.596000000000000085e+01,1.325787417164587915e-02
2.600000000000000000e+01,2.087246086095524353e-02
2.603999999999999915e+01,2.091516112916868772e-02
2.607999999999999829e+01,2.600484754450439751e-02
2.612000000000000099e+01,1.405849356081460139e-02
2.616000000000000014e+01,1.835837530987185703e-02
2.619999999999999929e+01,1.145844547330822707e-02
2.623999999999999844e+01,1.197154101182319047e-02
2.628000000000000114e+01,1.705841579723559043e-02
2.632000000000000028e+01,3.192435485969457448e-02
2.635999999999999943e+01,2.029010019717540983e-02
2.639999999999999858e+01,2.616396948589098242e-02
2.644000000000000128e+01,2.146897178721208013e-02
2.648000000000000043e+01,2.245190548585881268e-02
2.651999999999999957e+01,1.002672623192411329e-02
2.655999999999999872e+01,1.873759739770287577e-02
2.660000000000000142e+01,2.981394644341866726e-02
2.664000000000000057e+01,2.763991893060084581e-02
2.667999999999999972e+01,2.136419751603132328e-02
2.671999999999999886e+01,2.265923933753624664e-02
2.676000000000000156e+01,1.827522853262469882e-02
2.680000000000000071e+01,1.846499909353549462e-02
2.683999999999999986e+01,2.827610014535222524e-02
2.687999999999999901e+01,2.625644876218859169e-02
2.692000000000000171e+01,1.461434777795288416e-02
2.696000000000000085e+01,2.048037302687088709e-02
2.700000000000000000e+01,2.634583920968849857e-02
2.703999999999999915e+01,1.485979693221696658e-02
2.707999999999999829e+01,2.766452529468973673e-02
2.712000000000000099e+01,1.239170397842137908e-02
2.716000000000000014e+01,2.898097707122011812e-02
2.719999999999999929e+01,2.743006283038004409e-02
2.723999999999999844e+01,1.941141839372765437e-02
2.728000000000000114e+01,1.328504689271803145e-02
2.732000000000000028e+01,2.876793662350776715e-02
2.735999999999999943e+01,2.453328062198267823e-02
2.739999999999999858e+01,2.771165472236854221e-02
2.744000000000000128e+01,1.448493742279905426e-02
2.748000000000000043e+01,1.892408438037346610e-02
2.751999999999999957e+01,1.768418180842146539e-02
2.755999999999999872e+01,2.795844352205512778e-02
2.760000000000000142e+01,2.040799134212270202e-02
2.764000000000000057e+01,1.948189071673996769e-02
2.767999999999999972e+01,2.218315961266033309e-02
2.771999999999999886e+01,1.747028483830725953e-02
2.776000000000000156e+01,1.244138228461331638e-02
2.780000000000000071e+01,2.255457081097202859e-02
2.783999999999999986e+01,1.373889508627292901e-02
2.787999999999999901e+01,2.921399326140238298e-02
2.792000000000000171e+01,3.648626905590279107e-02
2.796000000000000085e+01,2.088628346169561431e-02
2.800000000000000000e+01,2.468725919927529031e-02
2.803999999999999915e+01,2.407107476677571717e-02
2.807999999999999829e+01,1.225508640938346820e-02
2.812000000000000099e+01,1.400383138534459782e-02
2.816000000000000014e+01,9.600321724490946604e-03
2.819999999999999929e+01,1.529135581154248205e-02
2.823999999999999844e+01,1.183315339152703032e-02
2.828000000000000114e+01,2.146647724164595442e-02
2.832000000000000028e+01,2.337018805627387452e-02
2.835999999999999943e+01,1.344315246670733238e-02
2.839999999999999858e+01,1.708085135145369360e-02
2.844000000000000128e+01,2.292629970880566762e-02
2.848000000000000043e+01,1.820288939146815638e-02
2.851999999999999957e+01,1.616043658792054583e-02
2.855999999999999872e+01,2.279290585363847113e-02
2.860000000000000142e+01,1.854104512351891637e-02
2.864000000000000057e+01,7.663723997319231429e-03
2.867999999999999972e+01,2.565152127772610952e-02
2.871999999999999886e+01,2.076706026631539026e-02
2.876000000000000156e+01,2.439978623407597358e-02
2.880000000000000071e+01,1.746365483110075625e-02
2.883999999999999986e+01,2.582735465109319353e-02
2.887999999999999901e+01,1.699728941359570852e-02
2.892000000000000171e+01,1.857724266802993074e-02
2.896000000000000085e+01,1.763287036203554578e-02
2.900000000000000000e+01,1.936945752576166649e-02
2.903999999999999915e+01,2.378700432220249433e-02
2.907999999999999829e+01,1.132625868625504982e-02
2.912000000000000099e+01,2.473365105360982030e-02
2.916000000000000014e+01,1.353369196636507871e-02
2.919999999999999929e+01,2.031507595514596073e-02
2.923999999999999844e+01,1.384609398001736442e-02
2.928000000000000114e+01,2.456977588157638337e-02
2.932000000000000028e+01,1.557592003753694755e-02
2.935999999999999943e+01,1.667661266823512387e-02
2.939999999999999858e+01,5.631091322457748398e-03
2.944000000000000128e+01,1.998050156874028871e-02
2.948000000000000043e+01,2.313011359492765304e-02
2.951999999999999957e+01,1.918106109571163231e-02
2.955999999999999872e+01,2.848127598751026834e-02
2.960000000000000142e+01,2.248055961649833220e-02
2.964000000000000057e+01,1.222042550024122522e-02
2.967999999999999972e+01,1.426314383358955051e-02
2.971999999999999886e+01,1.362380379833396868e-02
2.976000000000000156e+01,3.992969354856862503e-03
2.980000000000000071e+01,1.534046262855934088e-02
2.983999999999999986e+01,1.406853600352664380e-02
2.987999999999999901e+01,2.289115997215629764e-02
2.992000000000000171e+01,1.199624864010084314e-02
2.996000000000000085e+01,2.586532739876898010e-02
3.000000000000000000e+01,1.244554773960602351e-02
3.003999999999999915e+01,2.347428668702453147e-02
3.007999999999999829e+01,2.014851175795497051e-02
3.012000000000000099e+01,1.130143379904830457e-02
3.016000000000000014e+01,1.223343576463287521e-02
3.019999999999999929e+01,1.127206084287066083e-02
3.023999999999999844e+01,1.488448130443320756e-02
3.028000000000000114e+01,1.644578929957216107e-02
3.032000000000000028e+01,2.478919567493844539e-02
3.035999999999999943e+01,2.082865608062513599e-02
3.039999999999999858e+01,1.891813804056856341e-02
3.044000000000000128e+01,1.669160314178355989e-02
3.048000000000000043e+01,3.118452929431664300e-02
3.051999999999999957e+01,1.996595819859642990e-02
3.055999999999999872e+01,1.616043008133014047e-02
3.060000000000000142e+01,7.464544510418509582e-03
3.064000000000000057e+01,1.422623340227948188e-02
3.067999999999999972e+01,8.683977628414477415e-03
3.071999999999999886e+01,1.702193759265751422e-02
3.076000000000000156e+01,1.447557636275069795e-02
3.080000000000000071e+01,1.524112555756528681e-02
3.083999999999999986e+01,1.726801857424650061e-02
3.087999999999999901e+01,1.140757308200125199e-02
3.092000000000000171e+01,1.532621061113733155e-02
3.096000000000000085e+01,9.780150906682317374e-03
3.100000000000000000e+01,3.057544458145354180e-02
3.103999999999999915e+01,1.698376834830469737e-02
3.107999999999999829e+01,2.989118172543588081e-02
3.112000000000000099e+01,2.702446231834082502e-02
3.116000000000000014e+01,3.251720376500465831e-02
3.119999999999999929e+01,2.097392551290836599e-02
3.123999999999999844e+01,2.394180873810604696e-02
3.128000000000000114e+01,2.454311176160494518e-02
3.132000000000000028e+01,2.230462703120323839e-02
3.135999999999999943e+01,1.943465738080946484e-02
3.139999999999999858e+01,2.539735727733571924e-02
3.144000000000000128e+01,3.199045982038074831e-02
3.148000000000000043e+01,2.485999781199637465e-02
3.151999999999999957e+01,1.268144619376834932e-02
3.155999999999999872e+01,2.148122946446533871e-02
3.160000000000000142e+01,2.665254659689483135e-02
3.164000000000000057e+01,1.794256392480652468e-02
3.167999999999999972e+01,2.942223710529938766e-02
3.171999999999999886e+01,3.916627549729096575e-02
3.176000000000000156e+01,3.692184543453097545e-02
3.180000000000000071e+01,3.751612215615185431e-02
3.183999999999999986e+01,2.959212066044613482e-02
3.187999999999999901e+01,3.633701915500722746e-02
3.192000000000000171e+01,3.756062195447094909e-02
3.196000000000000085e+01,2.490292625337049010e-02
3.200000000000000000e+01,2.628318741125831859e-02
3.203999999999999915e+01,2.592781508459858150e-02
3.207999999999999829e+01,2.020888361988359971e-02
3.211999999999999744e+01,3.452187389562077352e-02
3.215999999999999659e+01,2.832865847302241946e-02
3.220000000000000284e+01,2.655151051540005983e-02
3.224000000000000199e+01,2.587797617937658001e-02
3.228000000000000114e+01,2.741220696340333079e-02
3.232000000000000028e+01,2.736854130890735426e-02
3.235999999999999943e+01,1.454773011924651027e-02
3.239999999999999858e+01,1.749997237423433008e-02
3.243999999999999773e+01,1.966299820500854584e-02
3.247999999999999687e+01,2.024812824923684709e-02
3.252000000000000313e+01,3.297838641059453596e-02
3.256000000000000227e+01,2.236319421238340197e-02
3.260000000000000142e+01,2.767879217885729423e-02
3.264000000000000057e+01,1.911309441566872228e-02
3.267999999999999972e+01,2.632045123808837012e-02
3.271999999999999886e+01,1.175971740356896757e-02
3.275999999999999801e+01,1.612675658195218686e-02
3.279999999999999716e+01,1.970458080306972809e-02
3.284000000000000341e+01,1.854979260328331811e-02
3.288000000000000256e+01,2.212654644950511063e-02
3.292000000000000171e+01,2.396767039705210642e-02
3.296000000000000085e+01,3.826939606479542316e-02
3.300000000000000000e+01,7.765059602095332469e-02
3.303999999999999915e+01,9.147804490255877219e-02
3.307999999999999829e+01,4.441890013797882703e-02
3.311999999999999744e+01,1.092450908102923259e-02
3.315999999999999659e+01,2.396167605335174783e-02
3.320000000000000284e+01,1.270697984362115403e-02
3.324000000000000199e+01,3.047515652690287527e-02
3.328000000000000114e+01,2.237411130346678850e-02
3.332000000000000028e+01,2.231706392534669320e-02
3.335999999999999943e+01,8.851931466655835884e-03
3.339999999999999858e+01,1.873117997060348011e-02
3.343999999999999773e+01,1.299404104905466963e-02
3.347999999999999687e+01,1.419674928934154534e-02
3.352000000000000313e+01,2.644043838615603437e-02
3.356000000000000227e+01,1.896660701475905500e-02
3.360000000000000142e+01,3.089375979433896940e-02
3.364000000000000057e+01,1.616301260882259394e-02
3.367999999999999972e+01,2.619627067249181637e-02
3.371999999999999886e+01,1.493464986927338367e-02
3.375999999999999801e+01,9.035518318197087798e-03
3.379999999999999716e+01,1.938265363176283965e-02
3.384000000000000341e+01,3.130661680189200657e-02
3.388000000000000256e+01,2.572136347867755995e-02
3.392000000000000171e+01,2.297482557853736465e-02
3.396000000000000085e+01,2.559077774551035342e-02
3.400000000000000000e+01,2.631336850958703941e-02
3.403999999999999915e+01,1.457429239438651561e-02
3.407999999999999829e+01,2.050110743037531283e-02
3.411999999999999744e+01,2.248399478660149942e-02
3.415999999999999659e+01,3.030258074010786992e-02
3.420000000000000284e+01,2.928742628281582466e-02
3.424000000000000199e+01,2.606343959046215908e-02
3.428000000000000114e+01,2.315439530708591001e-02
3.432000000000000028e+01,3.160180695025213010e-02
3.435999999999999943e+01,3.926000999292712790e-02
3.439999999999999858e+01,2.467692150922425054e-02
3.443999999999999773e+01,2.271217668156898586e-02
3.447999999999999687e+01,3.431219110334734340e-02
3.452000000000000313e+01,2.887619935488541442e-02
3.456000000000000227e+01,2.580571792220926614e-02
3.460000000000000142e+01,3.740414756340646601e-02
3.464000000000000057e+01,1.887449140292614402e-02
3.467999999999999972e+01,2.337374961076851831e-02
3.471999999999999886e+01,1.793511819128009582e-02
3.475999999999999801e+01,2.669219078244608120e-02
3.479999999999999716e+01,2.535363816720439048e-02
3.484000000000000341e+01,2.638059700870797400e-02
3.488000000000000256e+01,2.582966984331858465e-02
3.492000000000000171e+01,2.606689541000994231e-02
3.496000000000000085e+01,1.841679909318466590e-02
3.500000000000000000e+01,2.291184099913017025e-02
3.503999999999999915e+01,2.220107173365766517e-02
3.507999999999999829e+01,2.464449442822216202e-02
3.511999999999999744e+01,1.762323684059401499e-02
3.515999999999999659e+01,2.101202317199510339e-02
3.520000000000000284e+01,1.887952717382446188e-02
3.524000000000000199e+01,2.242499826871253640e-02
3.528000000000000114e+01,9.407674005446297477e-03
3.532000000000000028e+01,1.563360499684300284e-02
3.535999999999999943e+01,2.532920089936686533e-02
3.539999999999999858e+01,2.445596632520041433e-02
3.543999999999999773e+01,1.695729906397040743e-02
3.547999999999999687e+01,3.359170076640446284e-02
3.552000000000000313e+01,3.303236446838832968e-02
3.556000000000000227e+01,1.401740309239376571e-02
3.560000000000000142e+01,3.080796814387810195e-02
3.564000000000000057e+01,3.087800339909077194e-02
3.567999999999999972e+01,2.763506095157637274e-02
3.571999999999999886e+01,2.849272850239836438e-02
3.575999999999999801e+01,1.089477179021297593e-02
3.579999999999999716e+01,2.421252926345329043e-02
3.584000000000000341e+01,2.443768357189489426e-02
3.588000000000000256e+01,3.144495891675974653e-02
3.592000000000000171e+01,3.829397563816891448e-02
3.596000000000000085e+01,4.056812855728821055e-02
3.600000000000000000e+01,1.791948608368810342e-02
3.603999999999999915e+01,3.391561812167868950e-02
3.607999999999999829e+01,4.107801740959896725e-02
3.611999999999999744e+01,3.798706096485542083e-02
3.615999999999999659e+01,4.577936022919240622e-02
3.620000000000000284e+01,4.032132189061335414e-02
3.624000000000000199e+01,4.716616273269091941e-02
3.628000000000000114e+01,5.290633098786896860e-02
3.632000000000000028e+01,4.602710574937479010e-02
3.635999999999999943e+01,3.662358510438171871e-02
3.639999999999999858e+01,3.132067722862661580e-02
3.643999999999999773e+01,5.141272946891917855e-02
3.647999999999999687e+01,4.642425236735772676e-02
3.652000000000000313e+01,2.771223125163795042e-02
3.656000000000000227e+01,4.023139922836456439e-02
3.660000000000000142e+01,2.341116891545669265e-02
3.664000000000000057e+01,2.835797371706558559e-02
3.667999999999999972e+01,3.472388204276192353e-02
3.671999999999999886e+01,2.515794449835685384e-02
3.675999999999999801e+01,2.978771911431683794e-02
3.679999999999999716e+01,2.274451762292700047e-02
3.684000000000000341e+01,3.084344404828241737e-02
3.688000000000000256e+01,2.064448667953389452e-02
3.692000000000000171e+01,2.306388307247423525e-02
3.696000000000000085e+01,2.422087374435142465e-02
3.700000000000000000e+01,2.537734609868196045e-02
3.703999999999999915e+01,2.069707181104400717e-02
3.707999999999999829e+01,1.601627953184790731e-02
3.711999999999999744e+01,1.275459256967554841e-02
3.715999999999999659e+01,1.406672918882713105e-02
3.720000000000000284e+01,2.610438984984356919e-02
3.724000000000000199e+01,1.258831655070012830e-02
3.728000000000000114e+01,2.194343230943805734e-02
3.732000000000000028e+01,2.782784114314652835e-02
3.735999999999999943e+01,2.203927615142408161e-02
3.739999999999999858e+01,2.303283838990512894e-02
3.743999999999999773e+01,1.266889893907433354e-02
3.747999999999999687e+01,2.344105440537767177e-02
3.752000000000000313e+01,1.323381829937433050e-02
3.756000000000000227e+01,2.226984657570996520e-02
3.760000000000000142e+01,1.884422247925358895e-02
3.764000000000000057e+01,1.888827258459460645e-02
3.767999999999999972e+01,2.224426114966193344e-02
3.771999999999999886e+01,1.518916459676877655e-02
3.775999999999999801e+01,1.743997122207180048e-02
3.779999999999999716e+01,1.054158029592510565e-02
3.784000000000000341e+01,1.326456468409359726e-02
3.788000000000000256e+01,1.093948537849864268e-02
3.792000000000000171e+01,1.192634551059531742e-02
3.796000000000000085e+01,1.243948352181063061e-02
3.800000000000000000e+01,1.310984319540005154e-02
3.803999999999999915e+01,1.772308641592494627e-02
3.807999999999999829e+01,1.634185132726560449e-02
3.811999999999999744e+01,2.726350307999108810e-02
3.815999999999999659e+01,1.988727625442742244e-02
3.820000000000000284e+01,1.440336686192722482e-02
3.824000000000000199e+01,2.563895014162285643e-02
3.828000000000000114e+01,2.393967610423217499e-02
3.832000000000000028e+01,2.034705826732034067e-02
3.835999999999999943e+01,1.375694545842457914e-02
3.839999999999999858e+01,2.010066425213428987e-02
3.843999999999999773e+01,1.398273409593048765e-02
3.847999999999999687e+01,1.748618186194928273e-02
3.852000000000000313e+01,1.389100177626312847e-02
3.856000000000000227e+01,5.720968482911128507e-03
3.860000000000000142e+01,1.332401389831104795e-02
3.864000000000000057e+01,2.534315302075560231e-02
3.867999999999999972e+01,1.496328215213798239e-02
3.871999999999999886e+01,1.988328276605914532e-02
3.875999999999999801e+01,2.480277223417908308e-02
3.879999999999999716e+01,1.189759344711327146e-02
3.884000000000000341e+01,1.933983559365841029e-02
3.888000000000000256e+01,1.353175105789981500e-02
3.892000000000000171e+01,1.419032813599425610e-02
3.896000000000000085e+01,8.381222775581382775e-03
3.900000000000000000e+01,1.408632831709951197e-02
3.903999999999999915e+01,1.868677251831885738e-02
3.907999999999999829e+01,1.382255257377285051e-02
3.911999999999999744e+01,2.378499802651177011e-02
3.915999999999999659e+01,2.286315651388602307e-02
3.920000000000000284e+01,1.011061276849804964e-02
3.924000000000000199e+01,1.155379128911647804e-02
3.928000000000000114e+01,1.220778125753200875e-02
3.932000000000000028e+01,1.759333951402442323e-02
3.935999999999999943e+01,1.745763239234345010e-02
3.939999999999999858e+01,1.432443453652805683e-02
3.943999999999999773e+01,1.939299536920875353e-02
3.947999999999999687e+01,1.515462959113150591e-02
3.952000000000000313e+01,2.526972312508543247e-02
3.956000000000000227e+01,1.424769749437241641e-02
3.960000000000000142e+01,1.805233921687489362e-02
3.964000000000000057e+01,1.491609355657579072e-02
3.967999999999999972e+01,1.714236127156269773e-02
3.971999999999999886e+01,1.668661136649947363e-02
3.975999999999999801e+01,1.070959771320502407e-02
3.979999999999999716e+01,0.000000000000000000e+00
3.984000000000000341e+01,1.563179168774273334e-02
3.988000000000000256e+01,9.495521894510944305e-03
3.992000000000000171e+01,1.140327684064053153e-02
3.996000000000000085e+01,1.638068555963264911e-03
4.000000000000000000e+01,7.330472874704889452e-03
4.003999999999999915e+01,2.059369470659465004e-02
4.007999999999999829e+01,1.003828910663208916e-02
4.011999999999999744e+01,1.714879926998525914e-02
4.015999999999999659e+01,1.384823425802502415e-02
4.020000000000000284e+01,1.417508978455728728e-02
4.024000000000000199e+01,8.822947613723543595e-03
4.028000000000000114e+01,1.482728565557044943e-02
4.032000000000000028e+01,1.357526727538679000e-02
4.035999999999999943e+01,7.590667117211564834e-03
4.039999999999999858e+01,1.769462481265863044e-02
4.043999999999999773e+01,2.290826515103724925e-02
4.047999999999999687e+01,1.061271589011770870e-02
4.052000000000000313e+01,1.976874574402322574e-02
4.056000000000000227e+01,1.867143795762284814e-02
4.060000000000000142e+01,7.951736314171911624e-03
4.064000000000000057e+01,1.615983979348387459e-02
4.067999999999999972e+01,2.436743995071703056e-02
4.071999999999999886e+01,1.680094644233562015e-02
4.075999999999999801e+01,1.049583717838617133e-02
4.079999999999999716e+01,1.128834080927906304e-02
4.084000000000000341e+01,1.555053168150658666e-02
4.088000000000000256e+01,2.990731797080553589e-02
4.092000000000000171e+01,9.403966896559671704e-03
4.096000000000000085e+01,1.823899198334029068e-02
4.100000000000000000e+01,1.540105807716360062e-02
4.103999999999999915e+01,1.555960451209673946e-02
4.107999999999999829e+01,9.565948957346481069e-03
4.111999999999999744e+01,1.619066427867776881e-02
4.115999999999999659e+01,9.722798113440941914e-03
4.120000000000000284e+01,1.350726457429451445e-02
4.124000000000000199e+01,1.744896590005363610e-02
4.128000000000000114e+01,2.612224350060611891e-02
4.132000000000000028e+01,1.633991949434713403e-02
4.135999999999999943e+01,2.753597031059588918e-02
4.139999999999999858e+01,2.027641984602157957e-02
4.143999999999999773e+01,2.926316737798442466e-02
4.147999999999999687e+01,2.452639110707163783e-02
4.152000000000000313e+01,2.578307932943996877e-02
4.156000000000000227e+01,2.057209570792490824e-02
4.160000000000000142e+01,2.813722082348724118e-02
4.164000000000000057e+01,2.371391774386914439e-02
4.167999999999999972e+01,2.796559019561901602e-02
4.171999999999999886e+01,3.016619679729084375e-02
4.175999999999999801e+01,2.179799883835252527e-02
4.179999999999999716e+01,2.557496681120148899e-02
4.184000000000000341e+01,1.562841244812275196e-02
4.188000000000000256e+01,1.609192938710148416e-02
4.192000000000000171e+01,1.860551482267094880e-02
4.196000000000000085e+01,2.884766150017609859e-02
4.200000000000000000e+01,2.363119153801218619e-02
4.203999999999999915e+01,1.589044931452799833e-02
4.207999999999999829e+01,2.092581778405170484e-02
4.211999999999999744e+01,1.996672440680697866e-02
4.215999999999999659e+01,1.916486964333470253e-02
4.220000000000000284e+01,1.899346137182492122e-02
4.224000000000000199e+01,2.292268966670854557e-02
4.228000000000000114e+01,1.959556952627814971e-02
4.232000000000000028e+01,3.235701506319231535e-02
4.235999999999999943e+01,2.445456056023042474e-02
4.239999999999999858e+01,3.390255930112390237e-02
4.243999999999999773e+01,3.230854853711304098e-02
4.247999999999999687e+01,2.866347501991411972e-02
4.252000000000000313e+01,3.621715493800656271e-02
4.256000000000000227e+01,4.030014928331170782e-02
4.260000000000000142e+01,3.207924753516695759e-02
4.264000000000000057e+01,3.742313828727569097e-02
4.267999999999999972e+01,5.712050122795863522e-02
4.271999999999999886e+01,5.489207835519101936e-02
4.275999999999999801e+01,5.140127339552137686e-02
4.279999999999999716e+01,5.942469482223322608e-02
4.284000000000000341e+01,7.407252974129645284e-02
4.288000000000000256e+01,7.373495932175914980e-02
4.292000000000000171e+01,9.122105198019794803e-02
4.296000000000000085e+01,9.750740134759192101e-02
4.300000000000000000e+01,1.242989245050604985e-01
4.303999999999999915e+01,1.450959895646275200e-01
4.307999999999999829e+01,1.797733207275150069e-01
4.311999999999999744e+01,2.401611110366146662e-01
4.315999999999999659e+01,3.357235149588387313e-01
4.320000000000000284e+01,5.043171498728531432e-01
4.324000000000000199e+01,7.224393660869227185e-01
4.328000000000000114e+01,9.547573210294144630e-01
4.332000000000000028e+01,1.000000000000000000e+00
4.335999999999999943e+01,9.326187503524950850e-01
4.339999999999999858e+01,8.152347265608179683e-01
4.343999999999999773e+01,6.615709525286438408e-01
4.347999999999999687e+01,4.799874313874279430e-01
4.352000000000000313e+01,3.469860772568348906e-01
4.356000000000000227e+01,2.368559377742149030e-01
4.360000000000000142e+01,1.819328736409487057e-01
4.364000000000000057e+01,1.471995140955338899e-01
4.367999999999999972e+01,1.156203815539124241e-01
4.371999999999999886e+01,9.981434858430249246e-02
4.375999999999999801e+01,9.426065867241271989e-02
4.379999999999999716e+01,6.914722592389571654e-02
4.384000000000000341e+01,6.706274486937667534e-02
4.388000000000000256e+01,6.261173495633648445e-02
4.392000000000000171e+01,5.121985510087569138e-02
4.396000000000000085e+01,5.260409359915103888e-02
4.400000000000000000e+01,4.736293429112478637e-02
4.403999999999999915e+01,4.085939811201134281e-02
4.407999999999999829e+01,3.088518255389080536e-02
4.411999999999999744e+01,3.873463496357278102e-02
4.415999999999999659e+01,3.396472582644864679e-02
4.420000000000000284e+01,2.809017637527954497e-02
4.424000000000000199e+01,3.041740517191228454e-02
4.428000000000000114e+01,2.864301178424778424e-02
4.432000000000000028e+01,2.371341180567200849e-02
4.435999999999999943e+01,2.950936504492562146e-02
4.439999999999999858e+01,3.625124555095415868e-02
4.443999999999999773e+01,2.027866772695695319e-02
4.447999999999999687e+01,2.733504420486509642e-02
4.452000000000000313e+01,2.398036327382924854e-02
4.456000000000000227e+01,2.393764883752476369e-02
4.460000000000000142e+01,2.752237286907640093e-02
4.464000000000000057e+01,2.479717351236452455e-02
4.467999999999999972e+01,2.869639514573789352e-02
4.471999999999999886e+01,2.502380647631378963e-02
4.475999999999999801e+01,2.482092102165733491e-02
4.479999999999999716e+01,1.909679235604072947e-02
4.484000000000000341e+01,1.021745921843767585e-02
4.488000000000000256e+01,2.231651524683328849e-02
4.492000000000000171e+01,1.580224843283144567e-02
4.496000000000000085e+01,2.379919900313936729e-02
4.500000000000000000e+01,1.397150658236480901e-02
4.503999999999999915e+01,2.307163721371681062e-02
4.507999999999999829e+01,2.633505396493758186e-02
4.511999999999999744e+01,2.234213385343357741e-02
4.515999999999999659e+01,2.434269306768425262e-02
4.520000000000000284e+01,1.482804630843549340e-02
4.524000000000000199e+01,1.887820264406423268e-02
4.528000000000000114e+01,2.529391297792833032e-02
4.532000000000000028e+01,1.577781248544727483e-02
4.535999999999999943e+01,2.392764910852413635e-02
4.539999999999999858e+01,2.450567819970516162e-02
4.543999999999999773e+01,1.530359725107033157e-02
4.547999999999999687e+01,1.035990197642560826e-02
4.552000000000000313e+01,1.172515930461402560e-02
4.556000000000000227e+01,1.971484120876047103e-02
4.560000000000000142e+01,1.335007247817426509e-02
4.564000000000000057e+01,1.550255951031805600e-02
4.567999999999999972e+01,1.071418377178672693e-02
4.571999999999999886e+01,1.949061308406343021e-02
4.575999999999999801e+01,1.359712060345372696e-02
4.579999999999999716e+01,1.685182815781213414e-02
4.584000000000000341e+01,2.089473294167192366e-02
4.588000000000000256e+01,1.925866301035007722e-02
4.592000000000000171e+01,2.219645235608526737e-02
4.596000000000000085e+01,1.677375692651707564e-02
4.600000000000000000e+01,1.829095967597389738e-02
4.603999999999999915e+01,1.255182931157288947e-02
4.607999999999999829e+01,1.170203068633640132e-02
4.611999999999999744e+01,9.589863665711901089e-03
4.615999999999999659e+01,1.567948271661163961e-02
4.620000000000000284e+01,1.498597702082633126e-02
4.624000000000000199e+01,1.492293427941926952e-02
4.628000000000000114e+01,1.769865732629887639e-02
4.632000000000000028e+01,2.094710774847990259e-02
4.635999999999999943e+01,2.214451122791170554e-02
4.639999999999999858e+01,2.255275516811095643e-02
4.643999999999999773e+01,2.327599106752891930e-02
4.647999999999999687e+01,1.279949801939297450e-02
4.652000000000000313e+01,2.125083405416956783e-02
4.656000000000000227e+01,1.944885689777240897e-02
4.660000000000000142e+01,2.237847769439930967e-02
4.664000000000000057e+01,1.505478562584089235e-02
4.667999999999999972e+01,1.672156127305802001e-02
4.671999999999999886e+01,1.870333002045337922e-02
4.675999999999999801e+01,1.737216621451926485e-02
4.679999999999999716e+01,2.787071690451873099e-02
4.684000000000000341e+01,2.306840658221438398e-02
4.688000000000000256e+01,2.252448763869764961e-02
4.692000000000000171e+01,2.261103442046084877e-02
4.696000000000000085e+01,1.749181860308208700e-02
4.700000000000000000e+01,1.489589969775524311e-02
4.703999999999999915e+01,7.251954424340163394e-03
4.707999999999999829e+01,1.916678413601786285e-02
4.711999999999999744e+01,1.798905664726547365e-02
4.715999999999999659e+01,2.327802434917432620e-02
4.720000000000000284e+01,2.430764586029833529e-02
4.724000000000000199e+01,2.344395991961120349e-02
4.728000000000000114e+01,2.021375897491120219e-02
4.732000000000000028e+01,9.884966037233617470e-03
4.735999999999999943e+01,2.432023409276310930e-02
4.739999999999999858e+01,2.235049208245078536e-02
4.743999999999999773e+01,1.943385886569015328e-02
4.747999999999999687e+01,2.692731977017699674e-02
4.752000000000000313e+01,1.517652480662927232e-02
4.756000000000000227e+01,1.699054239162344979e-02
4.760000000000000142e+01,1.628031037149319307e-02
4.764000000000000057e+01,1.525413158014694154e-02
4.767999999999999972e+01,2.306068867436627048e-02
4.771999999999999886e+01,2.282223997515833366e-02
4.775999999999999801e+01,1.343463431006023182e-02
4.779999999999999716e+01,2.628731695006084404e-02
4.784000000000000341e+01,1.894932959558877361e-02
4.788000000000000256e+01,1.728936084034733353e-02
4.792000000000000171e+01,1.783722093589419980e-02
4.796000000000000085e+01,1.980423051989705849e-02
4.800000000000000000e+01,9.309630109603755921e-03
4.803999999999999915e+01,1.742739316587260667e-02
4.807999999999999829e+01,1.907751094631505995e-02
4.811999999999999744e+01,1.299809637340302963e-02
4.815999999999999659e+01,1.117707839509345102e-02
4.820000000000000284e+01,2.402502690869035701e-02
4.824000000000000199e+01,1.352758895645071041e-02
4.828000000000000114e+01,2.211572316393436641e-02
4.832000000000000028e+01,2.108149497225098382e-02
4.835999999999999943e+01,2.667170276612063420e-02
4.839999999999999858e+01,1.254445056263247399e-02
4.843999999999999773e+01,1.655635574045269745e-02
4.847999999999999687e+01,1.788627899395590568e-02
4.852000000000000313e+01,2.552516707485844027e-02
4.856000000000000227e+01,2.054471153831852540e-02
4.860000000000000142e+01,2.124227753490512752e-02
4.864000000000000057e+01,2.588277027189420793e-02
4.867999999999999972e+01,2.200505341212125390e-02
4.871999999999999886e+01,1.244837340975592233e-02
4.875999999999999801e+01,1.756066218121608152e-02
4.879999999999999716e+01,1.636304451581103298e-02
4.884000000000000341e+01,1.579590039940824073e-02
4.888000000000000256e+01,1.790979676085079422e-02
4.892000000000000171e+01,1.497567441493323145e-02
4.896000000000000085e+01,1.740410325895954888e-02
4.900000000000000000e+01,3.150451965853592884e-02
4.903999999999999915e+01,2.383691190281304537e-02
4.907999999999999829e+01,2.105864811082078236e-02
4.911999999999999744e+01,2.727086197725117969e-02
4.915999999999999659e+01,1.802448837997693704e-02
4.920000000000000284e+01,2.675953935583582841e-02
4.924000000000000199e+01,3.028883702322303362e-02
4.928000000000000114e+01,2.056785038680243594e-02
4.932000000000000028e+01,1.841771907818786150e-02
4.935999999999999943e+01,2.478485869076530942e-02
4.939999999999999858e+01,2.468435840632549408e-02
4.943999999999999773e+01,2.963093945762954734e-02
4.947999999999999687e+01,3.394610942532087089e-02
4.952000000000000313e+01,2.579967559249621289e-02
4.956000000000000227e+01,2.443541854011636524e-02
4.960000000000000142e+01,2.748729985519599017e-02
4.964000000000000057e+01,2.911909121331331812e-02
4.967999999999999972e+01,2.869984915720123417e-02
4.971999999999999886e+01,2.622957384985407855e-02
4.975999999999999801e+01,3.921695091651425380e-02
4.979999999999999716e+01,3.485291226659363584e-02
4.984000000000000341e+01,4.216086459510162004e-02
4.988000000000000256e+01,4.063514040654343795e-02
4.992000000000000171e+01,4.384102769952910594e-02
4.996000000000000085e+01,4.957022396613862403e-02
5.000000000000000000e+01,4.788536735025231139e-02
5.003999999999999915e+01,4.777740460358651658e-02
5.007999999999999829e+01,6.849011630710194476e-02
5.011999999999999744e+01,6.964311092707614614e-02
5.015999999999999659e+01,7.600092572175537464e-02
5.020000000000000284e+01,9.403073296181110874e-02
5.024000000000000199e+01,1.166344170822991577e-01
5.028000000000000114e+01,1.526451889298703624e-01
5.032000000000000028e+01,1.711468112747203951e-01
5.035999999999999943e+01,2.140970350272130562e-01
5.039999999999999858e+01,2.401690532232340081e-01
5.043999999999999773e+01,2.697107977792011502e-01
5.047999999999999687e+01,2.727524468957019388e-01
5.052000000000000313e+01,2.467702262546856429e-01
5.056000000000000227e+01,2.381384921083445350e-01
5.060000000000000142e+01,2.014293039608664737e-01
5.064000000000000057e+01,1.651928607920651604e-01
5.067999999999999972e+01,1.415748274549626928e-01
5.071999999999999886e+01,1.184295394225253067e-01
5.075999999999999801e+01,9.244454285137583549e-02
5.079999999999999716e+01,6.866738686659817903e-02
5.084000000000000341e+01,6.681505976434896910e-02
5.088000000000000256e+01,5.944151422626022668e-02
5.092000000000000171e+01,4.907052489637102333e-02
5.096000000000000085e+01,3.759492279845917662e-02
5.100000000000000000e+01,4.804415023505260313e-02
5.103999999999999915e+01,4.098423110282066462e-02
5.107999999999999829e+01,3.313517150167927944e-02
5.111999999999999744e+01,3.112187960736527079e-02
5.115999999999999659e+01,3.005454252584857308e-02
5.120000000000000284e+01,2.819806546440509210e-02
5.124000000000000199e+01,3.422792336462054247e-02
5.128000000000000114e+01,2.022486119293111229e-02
5.132000000000000028e+01,2.672700671411295387e-02
5.135999999999999943e+01,2.281812269836165641e-02
5.139999999999999858e+01,2.868840515702967414e-02
5.143999999999999773e+01,2.635596107566711907e-02
5.147999999999999687e+01,1.929098052870489161e-02
5.152000000000000313e+01,2.421346961605880602e-02
5.156000000000000227e+01,2.487663027899730123e-02
5.160000000000000142e+01,2.112272677544927910e-02
5.164000000000000057e+01,2.872534977493889502e-02
5.167999999999999972e+01,2.134260329455537480e-02
5.171999999999999886e+01,2.642053497865506917e-02
5.175999999999999801e+01,1.840592836965356319e-02
5.179999999999999716e+01,2.679539787775622045e-02
5.184000000000000341e+01,1.704478045665657610e-02
5.188000000000000256e+01,2.322503176345352971e-02
5.192000000000000171e+01,1.631274542912621375e-02
5.196000000000000085e+01,1.712906108528839885e-02
5.200000000000000000e+01,2.456982755947722391e-02
5.203999999999999915e+01,2.301919041322218057e-02
5.207999999999999829e+01,1.925979372732535347e-02
5.211999999999999744e+01,1.076786318373626657e-02
5.215999999999999659e+01,2.104604880017869883e-02
5.220000000000000284e+01,1.334188485943203772e-02
5.224000000000000199e+01,1.872934482235462730e-02
5.228000000000000114e+01,2.001521519982291455e-02
5.232000000000000028e+01,1.656855253456993721e-02
5.235999999999999943e+01,1.580294452765900609e-02
5.239999999999999858e+01,1.756065543701908552e-02
5.243999999999999773e+01,1.931791094459953465e-02
5.247999999999999687e+01,1.224150052973775084e-02
5.252000000000000313e+01,1.320916619741514288e-02
5.256000000000000227e+01,2.379826716127882852e-02
5.260000000000000142e+01,5.994450463585787071e-03
5.264000000000000057e+01,2.573132458462559086e-02
5.267999999999999972e+01,1.486697869918287597e-02
5.271999999999999886e+01,1.930256134425412801e-02
5.275999999999999801e+01,2.326448217630359278e-02
5.279999999999999716e+01,1.839273838986463933e-02
5.284000000000000341e+01,1.588657940756768236e-02
5.288000000000000256e+01,1.716562853799466493e-02
5.292000000000000171e+01,1.907516784283385530e-02
5.296000000000000085e+01,1.593670490272857884e-02
5.300000000000000000e+01,2.872911525435798905e-02
5.303999999999999915e+01,2.243502813621977079e-02
5.307999999999999829e+01,1.235482650264217545e-02
5.311999999999999744e+01,1.189606244716987817e-02
5.315999999999999659e+01,1.443382812005455755e-02
5.320000000000000284e+01,1.681340558298440035e-02
5.324000000000000199e+01,1.398724603686401363e-02
5.328000000000000114e+01,1.336893718275678107e-02
5.332000000000000028e+01,2.473810529770544692e-02
5.335999999999999943e+01,1.528568229112185067e-02
5.339999999999999858e+01,1.308865942762356058e-02
5.343999999999999773e+01,8.840618471352208740e-03
5.347999999999999687e+01,2.162760409820315560e-02
5.352000000000000313e+01,1.359299925549871044e-02
5.356000000000000227e+01,2.212021360670919298e-02
5.360000000000000142e+01,2.039414345372777410e-02
5.364000000000000057e+01,1.772120735840140501e-02
5.367999999999999972e+01,1.567876453437728329e-02
5.371999999999999886e+01,8.903794372429487888e-03
5.375999999999999801e+01,9.384225820514922878e-03
5.379999999999999716e+01,1.759326675682372498e-02
5.384000000000000341e+01,1.617996778716721679e-02
5.388000000000000256e+01,1.902508872028586817e-02
5.392000000000000171e+01,1.839957037097427264e-02
5.396000000000000085e+01,1.824681052885916352e-02
5.400000000000000000e+01,1.635850668602052693e-02
5.403999999999999915e+01,2.014824654352161473e-02
5.407999999999999829e+01,2.346432996681003039e-02
5.411999999999999744e+01,1.479203604911313863e-02
5.415999999999999659e+01,1.432156080178342492e-02
5.420000000000000284e+01,1.053818331804823490e-02
5.424000000000000199e+01,2.016190969782365866e-02
5.428000000000000114e+01,1.432706947715394093e-02
5.432000000000000028e+01,1.685178448389359346e-02
5.435999999999999943e+01,9.438689893462089142e-03
5.439999999999999858e+01,1.748326658436685777e-02
5.443999999999999773e+01,1.448588266863178910e-02
5.447999999999999687e+01,2.615749083489493643e-02
5.452000000000000313e+01,2.394789242933130502e-02
5.456000000000000227e+01,1.874086506444073985e-02
5.460000000000000142e+01,1.148282433360927994e-02
5.464000000000000057e+01,1.337301965946744928e-02
5.467999999999999972e+01,1.810201500239740774e-02
5.471999999999999886e+01,1.888716660758552740e-02
5.475999999999999801e+01,1.367790787217711308e-02
5.479999999999999716e+01,1.603952679478214127e-02
5.484000000000000341e+01,9.725225316668981504e-03
5.488000000000000256e+01,2.281199470245519334e-02
5.492000000000000171e+01,1.838963332985486115e-02
5.496000000000000085e+01,1.712154492541643341e-02
5.500000000000000000e+01,2.011188098759123660e-02
5.503999999999999915e+01,1.915837461597795846e-02
5.507999999999999829e+01,7.005174340566925652e-03
5.511999999999999744e+01,1.125606371077986743e-02
5.515999999999999659e+01,1.803028324386466916e-02
5.520000000000000284e+01,1.502443250772207521e-02
5.524000000000000199e+01,2.148229208331288442e-02
5.528000000000000114e+01,1.311253275357519323e-02
5.532000000000000028e+01,1.720346625780002844e-02
5.535999999999999943e+01,2.224037168921473226e-02
5.539999999999999858e+01,1.560437680558957735e-02
5.543999999999999773e+01,1.685473399801592706e-02
5.547999999999999687e+01,1.573860960024349789e-02
5.552000000000000313e+01,2.298204531970685777e-02
5.556000000000000227e+01,1.744843004065018896e-02
5.560000000000000142e+01,1.002154137557321155e-02
5.564000000000000057e+01,2.767421925363650753e-02
5.567999999999999972e+01,2.340116412837498633e-02
5.571999999999999886e+01,1.565747705542285331e-02
5.575999999999999801e+01,2.037448460936962594e-02
5.579999999999999716e+01,2.446010683278960693e-02
5.584000000000000341e+01,1.986981273034685649e-02
5.588000000000000256e+01,2.553191107287139036e-02
5.592000000000000171e+01,1.904790350408494884e-02
5.596000000000000085e+01,1.666458840870765901e-02
5.600000000000000000e+01,1.680460689908063604e-02
5.603999999999999915e+01,2.025663866352464884e-02
5.607999999999999829e+01,2.055351175735666003e-02
5.611999999999999744e+01,1.375182871693830799e-02
5.615999999999999659e+01,2.572027813597300636e-02
5.620000000000000284e+01,2.223016877828498661e-02
5.624000000000000199e+01,2.252528122483491921e-02
5.628000000000000114e+01,1.603730999924198042e-02
5.632000000000000028e+01,2.500701787870767551e-02
5.635999999999999943e+01,1.772948810810099848e-02
5.639999999999999858e+01,2.449001462295362710e-02
5.643999999999999773e+01,2.620255307335851019e-02
5.647999999999999687e+01,2.507540629322421027e-02
5.652000000000000313e+01,2.189725397087124645e-02
5.656000000000000227e+01,2.408168380736299199e-02
5.660000000000000142e+01,1.885208765540446335e-02
5.664000000000000057e+01,2.387488704530335917e-02
5.667999999999999972e+01,2.306101982339333126e-02
5.671999999999999886e+01,2.760973541230485329e-02
5.675999999999999801e+01,1.890819717732688740e-02
5.679999999999999716e+01,1.825075246526897468e-02
5.684000000000000341e+01,2.153626790742758923e-02
5.688000000000000256e+01,2.166662793885851257e-02
5.692000000000000171e+01,2.069239948840475782e-02
5.696000000000000085e+01,2.918188835843563492e-02
5.700000000000000000e+01,2.221282171162812513e-02
5.703999999999999915e+01,1.634746974283276047e-02
5.707999999999999829e+01,1.994583558350473615e-02
5.711999999999999744e+01,1.802300841543473878e-02
5.715999999999999659e+01,2.477521985749404215e-02
5.720000000000000284e+01,2.269378461042848016e-02
5.724000000000000199e+01,1.382926960308121511e-02
5.728000000000000114e+01,2.515451476461277175e-02
5.732000000000000028e+01,2.149441342845542086e-02
5.735999999999999943e+01,2.335463341609238935e-02
5.739999999999999858e+01,2.269064373218765418e-02
5.743999999999999773e+01,2.313037035623725923e-02
5.747999999999999687e+01,1.836437724862343204e-02
5.752000000000000313e+01,2.211568831302151289e-02
5.756000000000000227e+01,2.003033635148336947e-02
5.760000000000000142e+01,1.826002182454996778e-02
5.764000000000000057e+01,2.626889919913351704e-02
5.767999999999999972e+01,2.181620602402093573e-02
5.771999999999999886e+01,2.256836382951998149e-02
5.775999999999999801e+01,2.032310571522930043e-02
5.779999999999999716e+01,2.312496300247348507e-02
5.784000000000000341e+01,1.945921478447973016e-02
5.788000000000000256e+01,1.721265647750728350e-02
5.792000000000000171e+01,2.095962949144413237e-02
5.796000000000000085e+01,1.823899748912571894e-02
5.800000000000000000e+01,1.977680217798665277e-02
5.803999999999999915e+01,2.162964609438869021e-02
5.807999999999999829e+01,1.733035729364875918e-02
5.811999999999999744e+01,2.107516739463803288e-02
5.815999999999999659e+01,2.056067596525730512e-02
5.820000000000000284e+01,1.783744993434978332e-02
5.824000000000000199e+01,1.984586928778277540e-02
5.828000000000000114e+01,1.980329027074264128e-02
5.832000000000000028e+01,1.770971304622365530e-02
5.835999999999999943e+01,1.813947902411364166e-02
5.839999999999999858e+01,2.408957056364752561e-02
5.843999999999999773e+01,2.483394628337916299e-02
5.847999999999999687e+01,2.557789121345769093e-02
5.852000000000000313e+01,2.064291293452642437e-02
5.856000000000000227e+01,2.170146858441188500e-02
5.860000000000000142e+01,2.386374526908397603e-02
5.864000000000000057e+01,1.892747608814123947e-02
5.867999999999999972e+01,9.258699780557438572e-03
5.871999999999999886e+01,2.135704856029716284e-02
5.875999999999999801e+01,1.231835641259305773e-02
5.879999999999999716e+01,2.331169472248258503e-02
5.884000000000000341e+01,1.458761557650443963e-02
5.888000000000000256e+01,1.627367700512512283e-02
5.892000000000000171e+01,1.906346077248605858e-02
5.896000000000000085e+01,1.712073855416547039e-02
5.900000000000000000e+01,2.606136511462223485e-02
5.903999999999999915e+01,1.765061361016185409e-02
5.907999999999999829e+01,1.602207767876943911e-02
5.911999999999999744e+01,2.180670110370046960e-02
5.915999999999999659e+01,2.380523478831275339e-02
5.920000000000000284e+01,2.359503794625356782e-02
5.924000000000000199e+01,2.480403655701904006e-02
5.928000000000000114e+01,2.033411505566484409e-02
5.932000000000000028e+01,2.406603325093159551e-02
5.935999999999999943e+01,1.975299308408767079e-02
5.939999999999999858e+01,1.733235673724115369e-02
5.943999999999999773e+01,2.753016591782659825e-02
5.947999999999999687e+01,1.722188072512530546e-02
5.952000000000000313e+01,1.795468233519148527e-02
5.956000000000000227e+01,2.263045518308076307e-02
5.960000000000000142e+01,2.099636560254294904e-02
5.964000000000000057e+01,2.078147310477194282e-02
5.967999999999999972e+01,2.088162651730479311e-02
5.971999999999999886e+01,2.098135419300514032e-02
5.975999999999999801e+01,2.533952573163036903e-02
5.979999999999999716e+01,2.181047660614655534e-02
5.984000000000000341e+01,1.749232270748635881e-02
5.988000000000000256e+01,1.979865173671322212e-02
5.992000000000000171e+01,1.563738373640135085e-02
5.996000000000000085e+01,1.683871174944243446e-02
