2.003999999999999915e+01,5.851289372984499332e-02
2.007999999999999829e+01,5.905280763529619642e-02
2.012000000000000099e+01,2.582458058204633450e-02
2.016000000000000014e+01,4.780394757508767828e-02
2.019999999999999929e+01,3.279918126934390499e-02
2.023999999999999844e+01,2.905013756150629303e-02
2.028000000000000114e+01,5.076077335646325683e-02
2.032000000000000028e+01,5.290722132927484084e-02
2.035999999999999943e+01,5.022943679414877682e-02
2.039999999999999858e+01,4.058342517172319752e-02
2.044000000000000128e+01,4.031713700416506702e-02
2.048000000000000043e+01,4.005059918629587379e-02
2.051999999999999957e+01,4.782378691582746949e-02
2.055999999999999872e+01,5.988471038543791841e-02
2.060000000000000142e+01,7.596536944838358507e-02
2.064000000000000057e+01,6.926584269659456783e-02
2.067999999999999972e+01,3.978612918798693499e-02
2.071999999999999886e+01,4.702205141496604984e-02
2.076000000000000156e+01,3.201378341027858593e-02
2.080000000000000071e+01,5.961713175952724347e-02
2.083999999999999986e+01,6.202829674168320456e-02
2.087999999999999901e+01,2.852730922826821405e-02
2.092000000000000171e+01,3.763793524253766787e-02
2.096000000000000085e+01,4.299631143625209928e-02
2.100000000000000000e+01,3.468646629491227429e-02
2.103999999999999915e+01,4.701229707289691917e-02
2.107999999999999829e+01,4.540190542700021925e-02
2.112000000000000099e+01,5.424321803918535218e-02
2.116000000000000014e+01,1.350441212356004277e-02
2.119999999999999929e+01,3.172516462528362363e-02
2.123999999999999844e+01,4.458566548390602985e-02
2.128000000000000114e+01,4.699392886880582321e-02
2.132000000000000028e+01,5.824589657340953353e-02
2.135999999999999943e+01,6.038562094342228570e-02
2.139999999999999858e+01,6.654506206509341881e-02
2.144000000000000128e+01,3.706033670667993607e-02
2.148000000000000043e+01,5.018721168677742206e-02
2.151999999999999957e+01,1.480595647894899711e-02
2.155999999999999872e+01,4.696022575883070788e-02
2.160000000000000142e+01,3.328635501321779155e-02
2.164000000000000057e+01,3.220816991587580752e-02
2.167999999999999972e+01,3.782968702220407264e-02
2.171999999999999886e+01,3.943093720372446015e-02
2.176000000000000156e+01,5.121587736532550589e-02
2.180000000000000071e+01,4.156060041505999642e-02
2.183999999999999986e+01,5.012898770050341207e-02
2.187999999999999901e+01,4.878112179028658291e-02
2.192000000000000171e+01,3.430101128640724445e-02
2.196000000000000085e+01,6.564848027195109570e-02
2.200000000000000000e+01,3.910783560146812582e-02
2.203999999999999915e+01,3.239884568423389427e-02
2.207999999999999829e+01,4.203751991758654383e-02
2.212000000000000099e+01,5.408789871712973291e-02
2.216000000000000014e+01,3.907006862819465548e-02
2.219999999999999929e+01,6.880781555754021672e-02
2.223999999999999844e+01,4.440943204359383556e-02
2.228000000000000114e+01,6.985860855229786281e-02
2.232000000000000028e+01,3.688366545898467963e-02
2.235999999999999943e+01,5.965226300667115372e-02
2.239999999999999858e+01,4.409667941766202970e-02
2.244000000000000128e+01,4.354875547718620177e-02
2.248000000000000043e+01,3.898054671230946622e-02
2.251999999999999957e+01,4.459601002792061564e-02
2.255999999999999872e+01,6.361113493785428008e-02
2.260000000000000142e+01,4.725006525193166385e-02
2.264000000000000057e+01,3.651667834102824417e-02
2.267999999999999972e+01,5.151091361254885037e-02
2.271999999999999886e+01,3.863292919243833251e-02
2.276000000000000156e+01,3.701060801895190294e-02
2.280000000000000071e+01,2.493601357255752562e-02
2.283999999999999986e+01,2.920906537715700982e-02
2.287999999999999901e+01,5.438574896988449675e-02
2.292000000000000171e+01,3.373426144835049018e-02
2.296000000000000085e+01,3.157441098883802949e-02
2.300000000000000000e+01,2.271427141123619903e-02
2.303999999999999915e+01,4.011774394662410287e-02
2.307999999999999829e+01,5.832490321023112156e-02
2.312000000000000099e+01,2.614790016993998392e-02
2.316000000000000014e+01,6.525837279924377732e-02
2.319999999999999929e+01,6.926063590609382592e-02
2.323999999999999844e+01,3.869068695772585192e-02
2.328000000000000114e+01,5.394828641001456898e-02
2.332000000000000028e+01,4.213764965339375501e-02
2.335999999999999943e+01,4.426265405873851949e-02
2.339999999999999858e+01,3.352337821797873180e-02
2.344000000000000128e+01,4.556371540879215754e-02
2.348000000000000043e+01,4.259577683205451742e-02
2.351999999999999957e+01,3.185554007149826727e-02
2.355999999999999872e+01,2.299097555279458818e-02
2.360000000000000142e+01,2.886604415753311545e-02
2.364000000000000057e+01,3.876077675723523658e-02
2.367999999999999972e+01,4.115120660944310282e-02
2.371999999999999886e+01,4.086131845595068063e-02
2.376000000000000156e+01,4.539508908515015734e-02
2.380000000000000071e+01,5.555651516893708730e-02
2.383999999999999986e+01,4.642166973186086926e-02
2.387999999999999901e+01,3.219450967880992803e-02
2.392000000000000171e+01,3.592296566844878358e-02
2.396000000000000085e+01,4.501107413968001569e-02
2.400000000000000000e+01,4.981086278266470130e-02
2.403999999999999915e+01,2.995439110116971879e-02
2.407999999999999829e+01,2.644553646606994518e-02
2.412000000000000099e+01,3.419231304674429789e-02
2.416000000000000014e+01,3.577477159821756264e-02
2.419999999999999929e+01,3.923288731820229192e-02
2.423999999999999844e+01,5.421463063236918456e-02
2.428000000000000114e+01,4.400410956023375481e-02
2.432000000000000028e+01,5.094519749596991554e-02
2.435999999999999943e+01,5.493795314800450219e-02
2.439999999999999858e+01,4.713840182047819571e-02
2.444000000000000128e+01,4.014250519032043496e-02
2.448000000000000043e+01,2.296229492439350733e-02
2.451999999999999957e+01,5.294959987782364708e-02
2.455999999999999872e+01,4.970465771056842286e-02
2.460000000000000142e+01,2.501943248557837382e-02
2.464000000000000057e+01,3.329776180672100461e-02
2.467999999999999972e+01,1.531182050208350874e-02
2.471999999999999886e+01,3.323742311066956584e-02
2.476000000000000156e+01,8.818800929716229253e-03
2.480000000000000071e+01,2.138371759645826473e-02
2.483999999999999986e+01,5.565621750319969807e-02
2.487999999999999901e+01,2.212456535146348560e-02
2.492000000000000171e+01,2.959643729106903667e-02
2.496000000000000085e+01,2.607998667591945874e-02
2.500000000000000000e+01,1.398720540586990795e-02
2.503999999999999915e+01,2.708599232597909759e-02
2.507999999999999829e+01,2.678446102314276794e-02
2.512000000000000099e+01,3.961453181660361256e-02
2.516000000000000014e+01,2.752031670257762408e-02
2.519999999999999929e+01,3.820567316843593436e-02
2.523999999999999844e+01,3.388271241505461800e-02
2.528000000000000114e+01,1.830342236558772998e-02
2.532000000000000028e+01,2.845169232101232501e-02
2.535999999999999943e+01,3.591960564529915467e-02
2.539999999999999858e+01,5.142712958275896806e-02
2.544000000000000128e+01,2.485841191991380525e-02
2.548000000000000043e+01,3.205722663342065043e-02
2.551999999999999957e+01,2.156772548650226842e-02
2.555999999999999872e+01,3.385778744071388235e-02
2.560000000000000142e+01,3.837550222274735412e-02
2.564000000000000057e+01,1.796891979228789141e-02
2.567999999999999972e+01,4.928581173997208242e-02
2.571999999999999886e+01,1.923051275725427833e-02
2.576000000000000156e+01,1.945874989572351013e-02
2.580000000000000071e+01,1.915061367741169654e-02
2.583999999999999986e+01,2.179009282081318527e-02
2.587999999999999901e+01,1.987320865336829681e-02
2.592000000000000171e+01,0.000000000000000000e+00
2.596000000000000085e+01,2.032629332981426493e-02
2.600000000000000000e+01,1.760427540099998578e-02
2.603999999999999915e+01,2.560184505861588800e-02
2.607999999999999829e+01,2.261106578312957471e-02
2.612000000000000099e+01,4.481182926153801094e-02
2.616000000000000014e+01,2.627633020543201220e-02
2.619999999999999929e+01,2.703638951653637365e-02
2.623999999999999844e+01,4.521601182014823445e-02
2.628000000000000114e+01,2.694735603755188044e-02
2.632000000000000028e+01,4.926324195166236625e-03
2.635999999999999943e+01,3.087676185026097184e-02
2.639999999999999858e+01,1.903892256959630741e-02
2.644000000000000128e+01,3.614460737139412599e-02
2.648000000000000043e+01,2.484198551636032301e-02
2.651999999999999957e+01,1.943495425887315983e-02
2.655999999999999872e+01,4.833142835079413946e-02
2.660000000000000142e+01,3.568763193129867450e-02
2.664000000000000057e+01,2.652743044115969326e-02
2.667999999999999972e+01,4.523875056234052255e-02
2.671999999999999886e+01,1.410182200139798239e-02
2.676000000000000156e+01,1.673239567012450857e-02
2.680000000000000071e+01,1.695057799735527615e-02
2.683999999999999986e+01,4.155628850699220195e-02
2.687999999999999901e+01,3.078570361780306325e-02
2.692000000000000171e+01,1.733472535620642421e-02
2.696000000000000085e+01,4.542322154899595954e-02
2.700000000000000000e+01,2.232346644177581399e-02
2.703999999999999915e+01,2.227123878324337516e-02
2.707999999999999829e+01,5.545050740838972786e-02
2.712000000000000099e+01,1.841357837642492237e-02
2.716000000000000014e+01,4.033606739131792573e-02
2.719999999999999929e+01,5.046618348078130145e-02
2.723999999999999844e+01,3.915595433497682382e-02
2.728000000000000114e+01,6.673378216480105318e-03
2.732000000000000028e+01,1.412227284565561493e-02
2.735999999999999943e+01,2.880673431191669437e-02
2.739999999999999858e+01,2.955482450505036648e-02
2.744000000000000128e+01,3.325049237654402468e-02
2.748000000000000043e+01,2.836977118393981673e-02
2.751999999999999957e+01,1.786065123641236707e-02
2.755999999999999872e+01,2.369906637398657215e-02
2.760000000000000142e+01,1.828109757461268345e-02
2.764000000000000057e+01,3.001465959015232193e-02
2.767999999999999972e+01,1.333988668634526580e-02
2.771999999999999886e+01,3.793657113267141084e-02
2.776000000000000156e+01,2.260095297510925083e-02
2.780000000000000071e+01,4.505280062293438859e-02
2.783999999999999986e+01,4.256412977295549391e-03
2.787999999999999901e+01,1.893543676042732174e-02
2.792000000000000171e+01,4.058201498681098668e-02
2.796000000000000085e+01,3.837623817847869712e-02
2.800000000000000000e+01,1.097810937004730682e-02
2.803999999999999915e+01,2.109944150984045461e-02
2.807999999999999829e+01,2.666435852417613564e-02
2.812000000000000099e+01,4.991679345773908372e-02
2.816000000000000014e+01,1.126098158446659815e-02
2.819999999999999929e+01,1.521661177962066458e-02
2.823999999999999844e+01,1.113183342040379754e-02
2.828000000000000114e+01,1.642659386762299403e-02
2.832000000000000028e+01,2.306091603939867604e-02
2.835999999999999943e+01,2.138682762589215469e-02
2.839999999999999858e+01,2.989627280654969313e-02
2.844000000000000128e+01,1.803734130806345856e-02
2.848000000000000043e+01,2.868990493392738206e-02
2.851999999999999957e+01,2.969405818287433954e-02
2.855999999999999872e+01,2.989377386659590810e-02
2.860000000000000142e+01,1.749708603797426806e-02
2.864000000000000057e+01,3.618786411448302737e-02
2.867999999999999972e+01,3.933424554322245692e-02
2.871999999999999886e+01,3.202821427064619225e-02
2.876000000000000156e+01,1.212577571739147618e-02
2.880000000000000071e+01,2.625879055219023164e-02
2.883999999999999986e+01,1.841542405904774554e-02
2.887999999999999901e+01,4.943149475366837020e-02
2.892000000000000171e+01,3.595924904475199246e-02
2.896000000000000085e+01,2.891853487558795552e-02
2.900000000000000000e+01,2.321736641555524269e-02
2.903999999999999915e+01,1.831974431325026145e-02
2.907999999999999829e+01,2.655363104094279544e-02
2.912000000000000099e+01,2.192310280454244295e-02
2.916000000000000014e+01,2.184810696485631198e-02
2.919999999999999929e+01,3.517261633357603862e-02
2.923999999999999844e+01,1.124478028790418596e-02
2.928000000000000114e+01,1.947639189266070839e-02
2.932000000000000028e+01,2.663554882793903872e-02
2.935999999999999943e+01,9.674318550907451061e-03
2.939999999999999858e+01,1.683255695825697229e-02
2.944000000000000128e+01,7.374383999604818170e-03
2.948000000000000043e+01,2.391167227378514573e-02
2.951999999999999957e+01,4.259249162398649757e-02
2.955999999999999872e+01,2.670095006972414420e-02
2.960000000000000142e+01,3.037288601020605647e-02
2.964000000000000057e+01,9.656428939131298655e-03
2.967999999999999972e+01,4.923932658693197517e-02
2.971999999999999886e+01,3.682991125904248181e-02
2.976000000000000156e+01,3.112000783388873745e-02
2.980000000000000071e+01,2.112164797833267216e-02
2.983999999999999986e+01,2.773876871375926048e-02
2.987999999999999901e+01,2.470744704141844550e-02
2.992000000000000171e+01,1.765566531708346459e-02
2.996000000000000085e+01,1.757138998972489208e-02
3.000000000000000000e+01,2.552661693589823588e-02
3.003999999999999915e+01,2.812138498052664526e-02
3.007999999999999829e+01,3.821965500519956815e-02
3.012000000000000099e+01,2.902150560184716191e-02
3.016000000000000014e+01,2.062687617787503647e-02
3.019999999999999929e+01,8.747778516641718446e-03
3.023999999999999844e+01,1.938013452806976178e-02
3.028000000000000114e+01,1.982804030157237635e-02
3.032000000000000028e+01,4.600338831948706103e-02
3.035999999999999943e+01,3.814235500058103800e-02
3.039999999999999858e+01,3.832081453436858576e-02
3.044000000000000128e+01,2.938681688053484259e-02
3.048000000000000043e+01,2.340032530668952754e-02
3.051999999999999957e+01,4.206927444819771877e-02
3.055999999999999872e+01,3.179382243100341288e-02
3.060000000000000142e+01,2.794986332812438717e-02
3.064000000000000057e+01,2.705340653689848607e-02
3.067999999999999972e+01,5.054438748803088965e-02
3.071999999999999886e+01,3.463899453039076537e-02
3.076000000000000156e+01,3.856505095172365477e-02
3.080000000000000071e+01,3.498663693463988089e-02
3.083999999999999986e+01,4.453969029586482553e-02
3.087999999999999901e+01,3.720829917141030979e-02
3.092000000000000171e+01,4.032838149449822357e-02
3.096000000000000085e+01,3.728398563413337641e-02
3.100000000000000000e+01,3.021910428551095873e-02
3.103999999999999915e+01,4.352166413059429390e-02
3.107999999999999829e+01,4.985574535199387841e-02
3.112000000000000099e+01,4.841734939364623208e-02
3.116000000000000014e+01,6.011041327693657232e-02
3.119999999999999929e+01,5.652702036583594214e-02
3.123999999999999844e+01,6.071510131900851454e-02
3.128000000000000114e+01,6.115068939399648934e-02
3.132000000000000028e+01,8.141771365878364142e-02
3.135999999999999943e+01,6.845233064863386063e-02
3.139999999999999858e+01,9.836631354486366496e-02
3.144000000000000128e+01,1.154158268361381162e-01
3.148000000000000043e+01,1.324648314040468289e-01
3.151999999999999957e+01,1.580893008556215618e-01
3.155999999999999872e+01,1.898772414068396197e-01
3.160000000000000142e+01,2.034407244915698298e-01
3.164000000000000057e+01,2.446076131645644747e-01
3.167999999999999972e+01,2.948859613622095699e-01
3.171999999999999886e+01,2.950479439125919257e-01
3.176000000000000156e+01,3.686411932218233711e-01
3.180000000000000071e+01,4.052500360279576719e-01
3.183999999999999986e+01,4.442703544739104449e-01
3.187999999999999901e+01,4.666742040867477015e-01
3.192000000000000171e+01,4.719255855150659151e-01
3.196000000000000085e+01,4.332245773507951703e-01
3.200000000000000000e+01,4.055110156071230487e-01
3.203999999999999915e+01,3.992368683237003668e-01
3.207999999999999829e+01,3.669662753336480066e-01
3.211999999999999744e+01,3.164712126300178174e-01
3.215999999999999659e+01,2.986715281560997082e-01
3.220000000000000284e+01,2.688113537916130835e-01
3.224000000000000199e+01,2.148307243847802361e-01
3.228000000000000114e+01,2.096254226609997329e-01
3.232000000000000028e+01,1.551077387726784995e-01
3.235999999999999943e+01,1.520453727298402558e-01
3.239999999999999858e+01,1.272745407182594990e-01
3.243999999999999773e+01,1.057191678292191545e-01
3.247999999999999687e+01,1.160551680192405954e-01
3.252000000000000313e+01,9.315873361389379048e-02
3.256000000000000227e+01,9.223769983102626802e-02
3.260000000000000142e+01,8.702814367188786704e-02
3.264000000000000057e+01,6.654209680334036148e-02
3.267999999999999972e+01,7.044344057295938433e-02
3.271999999999999886e+01,7.809623527985178060e-02
3.275999999999999801e+01,7.636851895360065312e-02
3.279999999999999716e+01,5.078833360048945478e-02
3.284000000000000341e+01,5.575951682438629042e-02
3.288000000000000256e+01,5.242218300752737870e-02
3.292000000000000171e+01,5.658828428276077571e-02
3.296000000000000085e+01,4.574588651657435917e-02
3.300000000000000000e+01,5.848687423790416978e-02
3.303999999999999915e+01,6.425933717344219087e-02
3.307999999999999829e+01,3.216825068778702557e-01
3.311999999999999744e+01,8.535363148051925419e-01
3.315999999999999659e+01,5.044761887246661525e-01
3.320000000000000284e+01,6.697577587341495275e-02
3.324000000000000199e+01,5.371755382366878717e-02
3.328000000000000114e+01,4.394277031736226746e-02
3.332000000000000028e+01,3.925941964037104465e-02
3.335999999999999943e+01,3.752350721333230082e-02
3.339999999999999858e+01,3.846703288950221317e-02
3.343999999999999773e+01,3.539001561030059861e-02
3.347999999999999687e+01,4.437240671323523789e-02
3.352000000000000313e+01,3.941828240421571539e-02
3.356000000000000227e+01,3.928758606734855663e-02
3.360000000000000142e+01,5.362828812830468944e-02
3.364000000000000057e+01,6.341244411415052074e-02
3.367999999999999972e+01,3.460415409099961564e-02
3.371999999999999886e+01,4.867517533336589153e-02
3.375999999999999801e+01,7.078561029338367727e-02
3.379999999999999716e+01,7.038354869774489375e-02
3.384000000000000341e+01,6.703293154453561498e-02
3.388000000000000256e+01,8.485368631105955073e-02
3.392000000000000171e+01,8.444992897023320677e-02
3.396000000000000085e+01,1.097735281441899469e-01
3.400000000000000000e+01,9.704067218179912580e-02
3.403999999999999915e+01,1.368350913160097937e-01
3.407999999999999829e+01,1.420570430902833303e-01
3.411999999999999744e+01,1.609463834013109551e-01
3.415999999999999659e+01,1.535712298126893915e-01
3.420000000000000284e+01,2.003313427802932978e-01
3.424000000000000199e+01,2.093029941637064295e-01
3.428000000000000114e+01,2.351580207714564774e-01
3.432000000000000028e+01,2.714644407496231704e-01
3.435999999999999943e+01,2.756103796152045704e-01
3.439999999999999858e+01,3.070916598606061587e-01
3.443999999999999773e+01,3.077524531325541157e-01
3.447999999999999687e+01,3.097526630481480803e-01
3.452000000000000313e+01,3.136282870746237572e-01
3.456000000000000227e+01,2.848074268687754707e-01
3.460000000000000142e+01,2.876098906068857985e-01
3.464000000000000057e+01,2.614678570937424285e-01
3.467999999999999972e+01,2.741851241662062733e-01
3.471999999999999886e+01,2.552779000566501866e-01
3.475999999999999801e+01,2.084981726882283171e-01
3.479999999999999716e+01,1.965577550092642845e-01
3.484000000000000341e+01,1.618368170758043012e-01
3.488000000000000256e+01,1.624911853569541154e-01
3.492000000000000171e+01,1.518889972998141158e-01
3.496000000000000085e+01,1.270822607110421720e-01
3.500000000000000000e+01,1.336308394407307032e-01
3.503999999999999915e+01,1.088229186563884204e-01
3.507999999999999829e+01,8.213840992851625944e-02
3.511999999999999744e+01,8.948920573945159940e-02
3.515999999999999659e+01,9.791140297394779202e-02
3.520000000000000284e+01,9.052105079634983897e-02
3.524000000000000199e+01,9.385006952590006779e-02
3.528000000000000114e+01,8.913851389432433936e-02
3.532000000000000028e+01,9.166233762515101080e-02
3.535999999999999943e+01,9.900954693435728982e-02
3.539999999999999858e+01,1.036761631493834657e-01
3.543999999999999773e+01,1.045901885095061601e-01
3.547999999999999687e+01,1.245315544687296966e-01
3.552000000000000313e+01,1.281243650698686287e-01
3.556000000000000227e+01,1.314485716504307233e-01
3.560000000000000142e+01,1.430801478174478503e-01
3.564000000000000057e+01,1.455991443259450069e-01
3.567999999999999972e+01,1.339135753453011557e-01
3.571999999999999886e+01,1.460793269951326800e-01
3.575999999999999801e+01,1.772724126494781283e-01
3.579999999999999716e+01,1.771089808901999685e-01
3.584000000000000341e+01,2.171448184193971731e-01
3.588000000000000256e+01,2.263601350601227580e-01
3.592000000000000171e+01,2.379868312481156489e-01
3.596000000000000085e+01,2.836488121911556193e-01
3.600000000000000000e+01,3.582540920586212985e-01
3.603999999999999915e+01,3.449550166767297865e-01
3.607999999999999829e+01,3.882031564150622005e-01
3.611999999999999744e+01,4.427066447440179409e-01
3.615999999999999659e+01,4.730895857064119636e-01
3.620000000000000284e+01,5.182118630358399924e-01
3.624000000000000199e+01,5.485935632776335336e-01
3.628000000000000114e+01,6.022905725514089426e-01
3.632000000000000028e+01,6.053351094289609602e-01
3.635999999999999943e+01,6.357149415242252521e-01
3.639999999999999858e+01,6.154422993390982199e-01
3.643999999999999773e+01,5.965090276355092813e-01
3.647999999999999687e+01,5.566711914846060871e-01
3.652000000000000313e+01,5.404166579178416585e-01
3.656000000000000227e+01,4.839616152840852670e-01
3.660000000000000142e+01,4.470698852804021461e-01
3.664000000000000057e+01,4.139295138897765569e-01
3.667999999999999972e+01,3.692645455045127090e-01
3.671999999999999886e+01,3.398748996485128626e-01
3.675999999999999801e+01,2.952086660484688485e-01
3.679999999999999716e+01,2.709097379820585294e-01
3.684000000000000341e+01,2.243662409662799673e-01
3.688000000000000256e+01,2.054260261257837283e-01
3.692000000000000171e+01,1.923811569410370237e-01
3.696000000000000085e+01,1.964875990656702320e-01
3.700000000000000000e+01,1.609295201697092392e-01
3.703999999999999915e+01,1.733426592348443485e-01
3.707999999999999829e+01,1.420712873253195951e-01
3.711999999999999744e+01,1.038312945374519208e-01
3.715999999999999659e+01,1.087385312005515609e-01
3.720000000000000284e+01,1.157891180595758546e-01
3.724000000000000199e+01,1.102430979161487246e-01
3.728000000000000114e+01,1.036244356285603574e-01
3.732000000000000028e+01,9.780912468734587195e-02
3.735999999999999943e+01,1.064651235880743757e-01
3.739999999999999858e+01,1.057405021739343809e-01
3.743999999999999773e+01,1.143952038290324269e-01
3.747999999999999687e+01,1.115252896478154537e-01
3.752000000000000313e+01,1.121387141491518441e-01
3.756000000000000227e+01,1.510753729967395931e-01
3.760000000000000142e+01,1.873313869355362482e-01
3.764000000000000057e+01,2.235867470700565740e-01
3.767999999999999972e+01,2.451014962019243404e-01
3.771999999999999886e+01,2.757275626037834493e-01
3.775999999999999801e+01,2.827690423650469076e-01
3.779999999999999716e+01,2.954378478515556905e-01
3.784000000000000341e+01,2.740700958315668290e-01
3.788000000000000256e+01,2.821815968673831998e-01
3.792000000000000171e+01,2.613485234010714531e-01
3.796000000000000085e+01,2.054068927833708758e-01
3.800000000000000000e+01,2.073524280891694549e-01
3.803999999999999915e+01,1.975053351648194400e-01
3.807999999999999829e+01,1.554976735140876087e-01
3.811999999999999744e+01,1.169733364146515880e-01
3.815999999999999659e+01,9.720827759003965174e-02
3.820000000000000284e+01,1.125504475824194300e-01
3.824000000000000199e+01,7.161211666069461357e-02
3.828000000000000114e+01,7.114099676499105462e-02
3.832000000000000028e+01,5.458925476999434284e-02
3.835999999999999943e+01,6.001277679532084075e-02
3.839999999999999858e+01,3.166772732963567261e-02
3.843999999999999773e+01,3.199792011660259478e-02
3.847999999999999687e+01,6.153935262345738150e-02
3.852000000000000313e+01,3.908826489617853173e-02
3.856000000000000227e+01,5.013640227917776082e-02
3.860000000000000142e+01,3.947592767043985734e-02
3.864000000000000057e+01,2.774277888669032799e-02
3.867999999999999972e+01,2.110093669302213343e-02
3.871999999999999886e+01,1.901440173803161521e-02
3.875999999999999801e+01,7.547214437322320724e-03
3.879999999999999716e+01,2.502326011517039261e-02
3.884000000000000341e+01,4.303462213554682531e-02
3.888000000000000256e+01,4.416135125347681045e-02
3.892000000000000171e+01,2.304346243367933270e-02
3.896000000000000085e+01,3.649678612196096544e-02
3.900000000000000000e+01,1.966551384855161344e-02
3.903999999999999915e+01,3.231346731051641663e-02
3.907999999999999829e+01,2.030480622447961361e-02
3.911999999999999744e+01,1.258344375162235435e-02
3.915999999999999659e+01,1.102537338247983056e-02
3.920000000000000284e+01,3.385454009183871266e-02
3.924000000000000199e+01,4.837503996911220877e-02
3.928000000000000114e+01,2.323096512701276761e-02
3.932000000000000028e+01,3.694608158879571919e-02
3.935999999999999943e+01,1.474861031227609962e-02
3.939999999999999858e+01,2.149435788305636627e-02
3.943999999999999773e+01,4.119480836400255495e-03
3.947999999999999687e+01,1.407982552491718331e-02
3.952000000000000313e+01,3.020345383839435904e-02
3.956000000000000227e+01,2.515444595944209966e-02
3.960000000000000142e+01,2.305272936536407330e-02
3.964000000000000057e+01,2.363030390941657857e-02
3.967999999999999972e+01,1.857919330506014460e-02
3.971999999999999886e+01,1.459937672670733391e-02
3.975999999999999801e+01,2.616281028390687879e-02
3.979999999999999716e+01,3.156155745712620891e-02
3.984000000000000341e+01,1.444766582002996597e-02
3.988000000000000256e+01,1.153702546893531009e-02
3.992000000000000171e+01,1.720165216390120294e-02
3.996000000000000085e+01,1.026960779471497096e-02
4.000000000000000000e+01,3.254876734623086271e-02
4.003999999999999915e+01,2.588330246517545757e-02
4.007999999999999829e+01,1.466113983351214310e-02
4.011999999999999744e+01,3.452617272891857214e-02
4.015999999999999659e+01,1.928259665832531694e-02
4.020000000000000284e+01,3.539421343529389891e-02
4.024000000000000199e+01,2.684918834382983913e-02
4.028000000000000114e+01,1.026347113076046466e-02
4.032000000000000028e+01,2.932093121355926202e-02
4.035999999999999943e+01,3.202972194612946355e-02
4.039999999999999858e+01,2.160583284230558482e-02
4.043999999999999773e+01,2.163319297007145967e-02
4.047999999999999687e+01,1.790784354037067150e-02
4.052000000000000313e+01,1.391377327169757844e-02
4.056000000000000227e+01,3.323491123203611841e-02
4.060000000000000142e+01,2.923939486848669070e-02
4.064000000000000057e+01,2.631515086301267417e-02
4.067999999999999972e+01,2.339018145489092995e-02
4.071999999999999886e+01,1.778449365543886135e-02
4.075999999999999801e+01,3.361801494196030998e-02
4.079999999999999716e+01,2.667087560349427552e-02
4.084000000000000341e+01,3.151497209907902497e-02
4.088000000000000256e+01,1.116641324356982927e-02
4.092000000000000171e+01,2.512102152937204652e-02
4.096000000000000085e+01,1.790296064981063834e-02
4.100000000000000000e+01,3.400009763633863452e-02
4.103999999999999915e+01,3.080055800595437460e-02
4.107999999999999829e+01,2.867228037072347760e-02
4.111999999999999744e+01,8.855319462371741973e-03
4.115999999999999659e+01,2.334152004282837381e-02
4.120000000000000284e+01,4.238296945276508881e-02
4.124000000000000199e+01,3.596375582819347910e-02
4.128000000000000114e+01,1.265985277614534339e-02
4.132000000000000028e+01,4.027505813348163793e-02
4.135999999999999943e+01,3.706961353686095278e-02
4.139999999999999858e+01,4.672738840375671721e-02
4.143999999999999773e+01,3.842847325620125931e-02
4.147999999999999687e+01,5.719673353496721596e-02
4.152000000000000313e+01,4.219634884018238358e-02
4.156000000000000227e+01,3.684318938466042692e-02
4.160000000000000142e+01,5.480521366397032856e-02
4.164000000000000057e+01,4.114258378075690004e-02
4.167999999999999972e+01,5.106313495286748938e-02
4.171999999999999886e+01,7.786688612172185109e-02
4.175999999999999801e+01,8.403394769285564558e-02
4.179999999999999716e+01,1.239681572701366308e-01
4.184000000000000341e+01,1.247737302439990426e-01
4.188000000000000256e+01,1.574704549072220017e-01
4.192000000000000171e+01,1.866824353026202143e-01
4.196000000000000085e+01,2.196456490139259143e-01
4.200000000000000000e+01,2.571640927130348642e-01
4.203999999999999915e+01,2.906617909087477192e-01
4.207999999999999829e+01,2.992348046955116136e-01
4.211999999999999744e+01,3.003030814341334787e-01
4.215999999999999659e+01,2.753746750609993299e-01
4.220000000000000284e+01,2.330255591831405793e-01
4.224000000000000199e+01,2.281955698137450861e-01
4.228000000000000114e+01,1.708369732450156497e-01
4.232000000000000028e+01,1.560894861891191365e-01
4.235999999999999943e+01,1.260652794974416180e-01
4.239999999999999858e+01,1.089042687171848517e-01
4.243999999999999773e+01,1.048744521109246375e-01
4.247999999999999687e+01,8.288792099603349561e-02
4.252000000000000313e+01,8.823654001794388468e-02
4.256000000000000227e+01,8.554441321947044152e-02
4.260000000000000142e+01,6.998755397465183936e-02
4.264000000000000057e+01,9.328980784075732724e-02
4.267999999999999972e+01,7.773140452434348924e-02
4.271999999999999886e+01,9.567212834148891565e-02
4.275999999999999801e+01,7.287619865932828955e-02
4.279999999999999716e+01,9.644335605023260372e-02
4.284000000000000341e+01,1.119697610261661536e-01
4.288000000000000256e+01,9.533548422565775449e-02
4.292000000000000171e+01,1.371242558816564150e-01
4.296000000000000085e+01,1.354963772813312650e-01
4.300000000000000000e+01,1.571836494429039166e-01
4.303999999999999915e+01,1.920021016472155673e-01
4.307999999999999829e+01,2.442397202267403700e-01
4.311999999999999744e+01,3.259564684490880437e-01
4.315999999999999659e+01,3.607725720441146700e-01
4.320000000000000284e+01,4.438277477239868096e-01
4.324000000000000199e+01,5.705660080674029855e-01
4.328000000000000114e+01,6.490636249339470920e-01
4.332000000000000028e+01,7.763363094684051502e-01
4.335999999999999943e+01,8.540283526185240559e-01
4.339999999999999858e+01,9.504795506304849484e-01
4.343999999999999773e+01,9.973501053739391997e-01
4.347999999999999687e+01,1.000000000000000000e+00
4.352000000000000313e+01,9.849611548279101347e-01
4.356000000000000227e+01,9.200736643564021433e-01
4.360000000000000142e+01,8.332094449280179616e-01
4.364000000000000057e+01,7.404484478802652037e-01
4.367999999999999972e+01,6.308027048800058934e-01
4.371999999999999886e+01,5.249081537439653777e-01
4.375999999999999801e+01,4.436687314935290338e-01
4.379999999999999716e+01,3.278566129567836440e-01
4.384000000000000341e+01,2.712715188225967577e-01
4.388000000000000256e+01,2.363935594965040354e-01
4.392000000000000171e+01,1.830228533374425592e-01
4.396000000000000085e+01,1.602032538560829722e-01
4.400000000000000000e+01,1.330948635045595130e-01
4.403999999999999915e+01,1.059856686153461403e-01
4.407999999999999829e+01,1.043355926890457697e-01
4.411999999999999744e+01,9.089274533585398053e-02
4.415999999999999659e+01,6.833711766028548185e-02
4.420000000000000284e+01,7.552859339593628873e-02
4.424000000000000199e+01,6.315531794330815629e-02
4.428000000000000114e+01,5.238922752844635267e-02
4.432000000000000028e+01,7.137023769855224686e-02
4.435999999999999943e+01,6.167452089569249590e-02
4.439999999999999858e+01,4.795800300649041142e-02
4.443999999999999773e+01,4.817662980107289411e-02
4.447999999999999687e+01,6.179440192803623000e-02
4.452000000000000313e+01,5.048743217893659346e-02
4.456000000000000227e+01,3.891164644039737247e-02
4.460000000000000142e+01,2.733504297499452992e-02
4.464000000000000057e+01,1.924161050122250027e-02
4.467999999999999972e+01,3.339129240318758352e-02
4.471999999999999886e+01,4.754015375203757970e-02
4.475999999999999801e+01,3.006428745582511580e-02
4.479999999999999716e+01,3.241953986715949421e-02
4.484000000000000341e+01,4.227794662960347727e-02
4.488000000000000256e+01,3.659157520032504940e-02
4.492000000000000171e+01,3.036838009819259332e-02
4.496000000000000085e+01,5.148027766574783670e-02
4.500000000000000000e+01,2.327949442818681713e-02
4.503999999999999915e+01,3.768975664175785306e-02
4.507999999999999829e+01,3.896722879512600629e-02
4.511999999999999744e+01,3.327589165338441790e-02
4.515999999999999659e+01,4.741566474043524410e-02
4.520000000000000284e+01,2.135472527038583673e-02
4.524000000000000199e+01,2.316487028475701371e-02
4.528000000000000114e+01,2.685017598945837330e-02
4.532000000000000028e+01,4.045061758220198922e-02
4.535999999999999943e+01,1.063435239359175784e-02
4.539999999999999858e+01,2.825310986123650420e-02
4.543999999999999773e+01,2.496709185478798027e-02
4.547999999999999687e+01,2.060823857699210435e-02
4.552000000000000313e+01,4.331646557505033912e-02
4.556000000000000227e+01,2.582397153725385364e-02
4.560000000000000142e+01,2.601858372804872685e-02
4.564000000000000057e+01,2.835634733507915589e-02
4.567999999999999972e+01,1.622131072734995030e-02
4.571999999999999886e+01,3.490533855029379073e-02
4.575999999999999801e+01,3.616857302305181293e-02
4.579999999999999716e+01,3.662696389245170825e-02
4.584000000000000341e+01,4.164049430960675008e-02
4.588000000000000256e+01,4.638517764855558390e-02
4.592000000000000171e+01,4.014104478082001354e-02
4.596000000000000085e+01,3.362806295071057300e-02
4.600000000000000000e+01,1.505426621110963516e-02
4.603999999999999915e+01,3.292750966336802781e-02
4.607999999999999829e+01,3.471994825206935198e-02
4.611999999999999744e+01,2.900755558424526065e-02
4.615999999999999659e+01,3.642626947662116338e-02
4.620000000000000284e+01,6.860237715719356109e-03
4.624000000000000199e+01,2.499720803197182789e-02
4.628000000000000114e+01,4.340132025849959690e-02
4.632000000000000028e+01,2.830467366607626253e-02
4.635999999999999943e+01,3.893509154244721021e-02
4.639999999999999858e+01,2.866071133471285656e-02
4.643999999999999773e+01,3.902140882306777414e-02
4.647999999999999687e+01,4.080526975750337071e-02
4.652000000000000313e+01,3.588828762855477555e-02
4.656000000000000227e+01,2.909444717801557695e-02
4.660000000000000142e+01,3.998768940397195992e-02
4.664000000000000057e+01,4.203609210301367805e-02
4.667999999999999972e+01,5.346360024992754395e-02
4.671999999999999886e+01,4.613029641334435299e-02
4.675999999999999801e+01,5.434007784764234572e-02
4.679999999999999716e+01,4.164505177699674016e-02
4.684000000000000341e+01,4.583310511636399381e-02
4.688000000000000256e+01,3.742432441107562680e-02
4.692000000000000171e+01,4.429062600367333208e-02
4.696000000000000085e+01,6.911200099867181867e-02
4.700000000000000000e+01,5.560861547541656041e-02
4.703999999999999915e+01,5.175232612593877457e-02
4.707999999999999829e+01,5.003915427767847285e-02
4.711999999999999744e+01,6.654905126814358862e-02
4.715999999999999659e+01,7.153410443800559126e-02
4.720000000000000284e+01,7.839427307817380119e-02
4.724000000000000199e+01,4.666167634292536781e-02
4.728000000000000114e+01,7.040403412578756515e-02
4.732000000000000028e+01,6.680959124477965638e-02
4.735999999999999943e+01,7.420223302417774947e-02
4.739999999999999858e+01,8.507798079142210590e-02
4.743999999999999773e+01,8.362488052949691719e-02
4.747999999999999687e+01,8.324289152931153846e-02
4.752000000000000313e+01,7.240804704840801687e-02
4.756000000000000227e+01,8.328025070388581086e-02
4.760000000000000142e+01,8.986357870165465056e-02
4.764000000000000057e+01,1.018060014673857205e-01
4.767999999999999972e+01,7.435165088079831452e-02
4.771999999999999886e+01,8.334430091854928835e-02
4.775999999999999801e+01,7.920409777648056149e-02
4.779999999999999716e+01,1.007909251881880797e-01
4.784000000000000341e+01,6.931301604158894569e-02
4.788000000000000256e+01,7.749809420691108897e-02
4.792000000000000171e+01,8.166228838251354816e-02
4.796000000000000085e+01,7.858960717039395472e-02
4.800000000000000000e+01,7.873201861020319436e-02
4.803999999999999915e+01,5.528960129387132383e-02
4.807999999999999829e+01,7.097416816972178244e-02
4.811999999999999744e+01,6.655789406584172729e-02
4.815999999999999659e+01,6.937669691545299278e-02
4.820000000000000284e+01,7.139059963667597486e-02
4.824000000000000199e+01,5.866364264511401277e-02
4.828000000000000114e+01,5.531575341807079549e-02
4.832000000000000028e+01,4.339098430125180178e-02
4.835999999999999943e+01,3.307330412964790828e-02
4.839999999999999858e+01,6.509859106947406271e-02
4.843999999999999773e+01,4.941911141293332116e-02
4.847999999999999687e+01,6.429063197862110168e-02
4.852000000000000313e+01,4.887733236666528397e-02
4.856000000000000227e+01,5.597505495297450812e-02
4.860000000000000142e+01,4.538391809648579384e-02
4.864000000000000057e+01,5.006782302827824521e-02
4.867999999999999972e+01,4.188685231698263678e-02
4.871999999999999886e+01,3.531296207214763838e-02
4.875999999999999801e+01,4.079812033342396227e-02
4.879999999999999716e+01,5.539433490746922123e-02
4.884000000000000341e+01,4.854969552097562063e-02
4.888000000000000256e+01,4.411613044658681954e-02
4.892000000000000171e+01,3.405366260242317922e-02
4.896000000000000085e+01,3.122625287007420314e-02
4.900000000000000000e+01,3.054191541891867340e-02
4.903999999999999915e+01,4.834860079112431042e-02
4.907999999999999829e+01,2.943847188467588194e-02
4.911999999999999744e+01,3.866733528517596330e-02
4.915999999999999659e+01,2.940332843972482887e-02
4.920000000000000284e+01,2.228238916504801659e-02
4.924000000000000199e+01,2.882848231943567138e-02
4.928000000000000114e+01,2.760167058801508283e-02
4.932000000000000028e+01,2.771392598713770528e-02
4.935999999999999943e+01,2.755725234676053778e-02
4.939999999999999858e+01,2.632765111082011750e-02
4.943999999999999773e+01,2.375712213257284017e-02
4.947999999999999687e+01,3.833760959146514241e-02
4.952000000000000313e+01,3.013723105109405651e-02
4.956000000000000227e+01,2.354391319342302377e-02
4.960000000000000142e+01,3.490560656061968831e-02
4.964000000000000057e+01,2.911441440015851909e-02
4.967999999999999972e+01,3.055826339400292968e-02
4.971999999999999886e+01,1.860121384125993163e-02
4.975999999999999801e+01,2.620716697300840003e-02
4.979999999999999716e+01,3.354418070233490534e-02
4.984000000000000341e+01,2.801629146814217305e-02
4.988000000000000256e+01,2.409545537997878975e-02
4.992000000000000171e+01,2.687365638429830075e-02
4.996000000000000085e+01,2.965091342252037035e-02
5.000000000000000000e+01,2.679924225470405041e-02
5.003999999999999915e+01,2.314262762264302289e-02
5.007999999999999829e+01,2.430905188211052517e-02
5.011999999999999744e+01,1.100257135551273302e-02
5.015999999999999659e+01,2.369106500440482793e-02
5.020000000000000284e+01,3.986259869527459393e-02
5.024000000000000199e+01,3.325324942937193939e-02
5.028000000000000114e+01,2.557095184206172739e-02
5.032000000000000028e+01,2.351568510775657941e-02
5.035999999999999943e+01,2.092346657719590733e-02
5.039999999999999858e+01,3.467824520186708198e-02
5.043999999999999773e+01,2.886812661526498916e-02
5.047999999999999687e+01,3.404501920652983765e-02
5.052000000000000313e+01,2.608899361419040122e-02
5.056000000000000227e+01,2.617198606429177801e-02
5.060000000000000142e+01,2.384202663301559014e-02
5.064000000000000057e+01,2.981908256467243057e-02
5.067999999999999972e+01,3.204318870748470993e-02
5.071999999999999886e+01,1.845437990967494640e-02
5.075999999999999801e+01,2.523254785824042418e-02
5.079999999999999716e+01,1.994978784725416274e-02
5.084000000000000341e+01,2.485003292140080047e-02
5.088000000000000256e+01,3.939728372927675526e-02
5.092000000000000171e+01,3.652361965815225514e-02
5.096000000000000085e+01,4.276096102726971437e-02
5.100000000000000000e+01,2.702139915400140688e-02
5.103999999999999915e+01,2.387683049738554414e-02
5.107999999999999829e+01,2.153528911030449036e-02
5.111999999999999744e+01,4.358070406074201347e-02
5.115999999999999659e+01,2.703326131154717288e-02
5.120000000000000284e+01,3.031678653648562510e-02
5.124000000000000199e+01,2.287936946224946796e-02
5.128000000000000114e+01,2.214095744964588580e-02
5.132000000000000028e+01,1.523758773291762104e-02
5.135999999999999943e+01,2.468119256140920495e-02
5.139999999999999858e+01,2.929983382490772628e-02
5.143999999999999773e+01,2.694951694405058051e-02
5.147999999999999687e+01,2.057823222801232615e-02
5.152000000000000313e+01,3.055391828885853020e-02
5.156000000000000227e+01,1.828468871348546201e-02
5.160000000000000142e+01,3.013440496596522106e-02
5.164000000000000057e+01,3.313916393105098557e-02
5.167999999999999972e+01,2.515497102938014234e-02
5.171999999999999886e+01,2.735376248699780341e-02
5.175999999999999801e+01,2.311958667290877831e-02
5.179999999999999716e+01,3.684037026907657081e-02
5.184000000000000341e+01,2.831623163443829430e-02
5.188000000000000256e+01,3.104707040939250554e-02
5.192000000000000171e+01,2.895293337226392122e-02
5.196000000000000085e+01,1.988982594368975121e-02
5.200000000000000000e+01,3.467765571747016135e-02
5.203999999999999915e+01,1.757258718227026548e-02
5.207999999999999829e+01,2.137046271399879391e-02
5.211999999999999744e+01,2.945533068166061516e-02
5.215999999999999659e+01,2.494324024960053662e-02
5.220000000000000284e+01,3.302611571376169730e-02
5.224000000000000199e+01,2.797603248471372886e-02
5.228000000000000114e+01,2.855293394656290354e-02
5.232000000000000028e+01,3.154082870130707483e-02
5.235999999999999943e+01,3.961970785346111135e-02
5.239999999999999858e+01,2.732964601825434159e-02
5.243999999999999773e+01,1.932656908231007373e-02
5.247999999999999687e+01,1.721847133150371939e-02
5.252000000000000313e+01,3.145732080548604287e-02
5.256000000000000227e+01,3.765518893812574291e-02
5.260000000000000142e+01,3.259608433142072853e-02
5.264000000000000057e+01,2.458798138774291944e-02
5.267999999999999972e+01,3.373081951449793947e-02
5.271999999999999886e+01,3.161668207565672406e-02
5.275999999999999801e+01,3.700551245532576056e-02
5.279999999999999716e+01,3.060136697591121085e-02
5.284000000000000341e+01,2.285621367706372822e-02
5.288000000000000256e+01,2.529401741707357557e-02
5.292000000000000171e+01,1.969083133698639951e-02
5.296000000000000085e+01,2.025061234169089897e-02
5.300000000000000000e+01,2.750935789842301124e-02
5.303999999999999915e+01,2.779910762744604996e-02
5.307999999999999829e+01,2.594384627055360687e-02
5.311999999999999744e+01,3.293154027671613832e-02
5.315999999999999659e+01,1.365429289340814624e-02
5.320000000000000284e+01,1.769195604061987379e-02
5.324000000000000199e+01,2.762458047337663924e-02
5.328000000000000114e+01,2.469222092340437116e-02
5.332000000000000028e+01,3.649879452858487139e-02
5.335999999999999943e+01,2.766840533173265185e-02
5.339999999999999858e+01,2.553697126606966142e-02
5.343999999999999773e+01,3.117648820815161620e-02
5.347999999999999687e+01,1.537504190796977824e-02
5.352000000000000313e+01,2.476449303425601323e-02
5.356000000000000227e+01,1.941295915060744018e-02
5.360000000000000142e+01,2.102837489238874522e-02
5.364000000000000057e+01,3.416672579673378507e-02
5.367999999999999972e+01,3.417208409285153736e-02
5.371999999999999886e+01,2.935242418311393917e-02
5.375999999999999801e+01,2.077974194407653311e-02
5.379999999999999716e+01,1.569001495947166744e-02
5.384000000000000341e+01,3.498718025068470183e-02
5.388000000000000256e+01,3.123537765083642462e-02
5.392000000000000171e+01,2.694653940927130287e-02
5.396000000000000085e+01,2.908864390506196718e-02
5.400000000000000000e+01,3.766169019612448932e-02
5.403999999999999915e+01,3.095774176292629548e-02
5.407999999999999829e+01,2.559274835229500764e-02
5.411999999999999744e+01,2.237070663612633278e-02
5.415999999999999659e+01,2.718759817485331617e-02
5.420000000000000284e+01,3.012745145397734831e-02
5.424000000000000199e+01,3.869424326189075530e-02
5.428000000000000114e+01,2.501605537188403630e-02
5.432000000000000028e+01,3.572474845268912291e-02
5.435999999999999943e+01,3.249643529586226931e-02
5.439999999999999858e+01,3.007107121561180402e-02
5.443999999999999773e+01,3.863262504692869387e-02
5.447999999999999687e+01,3.486516504232116398e-02
5.452000000000000313e+01,3.431264412997739321e-02
5.456000000000000227e+01,3.107907886529651803e-02
5.460000000000000142e+01,2.972045478541238475e-02
5.464000000000000057e+01,2.594878367368343847e-02
5.467999999999999972e+01,3.316402482101870469e-02
5.471999999999999886e+01,2.563825363798792958e-02
5.475999999999999801e+01,2.615140157859530481e-02
5.479999999999999716e+01,2.934348360755979768e-02
5.484000000000000341e+01,3.333850435017850916e-02
5.488000000000000256e+01,2.420050422205504217e-02
5.492000000000000171e+01,2.551341229117304321e-02
5.496000000000000085e+01,2.387726738245580724e-02
5.500000000000000000e+01,3.912400969864913286e-02
5.503999999999999915e+01,3.721773930586691481e-02
5.507999999999999829e+01,3.075441788103879318e-02
5.511999999999999744e+01,3.125801028245482616e-02
5.515999999999999659e+01,2.961654260959606030e-02
5.520000000000000284e+01,3.735397972075257117e-02
5.524000000000000199e+01,3.437038032435095480e-02
5.528000000000000114e+01,2.280973711558640857e-02
5.532000000000000028e+01,2.437998472982364287e-02
5.535999999999999943e+01,3.559713256440068252e-02
5.539999999999999858e+01,3.930923057900264500e-02
5.543999999999999773e+01,3.605227624086541210e-02
5.547999999999999687e+01,4.163822168283693587e-02
5.552000000000000313e+01,3.703912243198322768e-02
5.556000000000000227e+01,2.547096800213885168e-02
5.560000000000000142e+01,4.391764769428066484e-02
5.564000000000000057e+01,4.869529020676757747e-02
5.567999999999999972e+01,4.703987312333209048e-02
5.571999999999999886e+01,3.091141936209434657e-02
5.575999999999999801e+01,5.498176573158222724e-02
5.579999999999999716e+01,4.528313080359027548e-02
5.584000000000000341e+01,4.281939194899348627e-02
5.588000000000000256e+01,3.794257685795285329e-02
5.592000000000000171e+01,4.726863527729602277e-02
5.596000000000000085e+01,5.176962273408908938e-02
5.600000000000000000e+01,5.760951999342484031e-02
5.603999999999999915e+01,5.058436826624697347e-02
5.607999999999999829e+01,6.580206242091338198e-02
5.611999999999999744e+01,8.905864366836757640e-02
5.615999999999999659e+01,8.176222559550574975e-02
5.620000000000000284e+01,7.768070704738666565e-02
5.624000000000000199e+01,8.324606799376295385e-02
5.628000000000000114e+01,8.720234089683670531e-02
5.632000000000000028e+01,1.058974762987756058e-01
5.635999999999999943e+01,1.307554987083803522e-01
5.639999999999999858e+01,1.296165026243836504e-01
5.643999999999999773e+01,1.464323566689189893e-01
5.647999999999999687e+01,1.468991617034403341e-01
5.652000000000000313e+01,1.470968690654553546e-01
5.656000000000000227e+01,1.531894595200571363e-01
5.660000000000000142e+01,1.724129106509780796e-01
5.664000000000000057e+01,1.830592859386855897e-01
5.667999999999999972e+01,1.907565677389529424e-01
5.671999999999999886e+01,2.030087328401723179e-01
5.675999999999999801e+01,2.069518184765867241e-01
5.679999999999999716e+01,2.092858038226086681e-01
5.684000000000000341e+01,2.113506839594538056e-01
5.688000000000000256e+01,2.002824961213648391e-01
5.692000000000000171e+01,1.801012274361558918e-01
5.696000000000000085e+01,1.848427759535454795e-01
5.700000000000000000e+01,1.793992449210078943e-01
5.703999999999999915e+01,1.769025944247925863e-01
5.707999999999999829e+01,1.478729110102310340e-01
5.711999999999999744e+01,1.365300625041163951e-01
5.715999999999999659e+01,1.345660726199092161e-01
5.720000000000000284e+01,1.183970104054577616e-01
5.724000000000000199e+01,1.083908144728277650e-01
5.728000000000000114e+01,1.066914775172142366e-01
5.732000000000000028e+01,1.111550049592543304e-01
5.735999999999999943e+01,9.203348413961986996e-02
5.739999999999999858e+01,9.944276538762091000e-02
5.743999999999999773e+01,8.755498376433736019e-02
5.747999999999999687e+01,8.879804209152858396e-02
5.752000000000000313e+01,9.834795374323329620e-02
5.756000000000000227e+01,9.690877504185761715e-02
5.760000000000000142e+01,1.045804453948072643e-01
5.764000000000000057e+01,1.251149527252365112e-01
5.767999999999999972e+01,1.231364010759599115e-01
5.771999999999999886e+01,1.463486479343487634e-01
5.775999999999999801e+01,1.339158729005309190e-01
5.779999999999999716e+01,1.378299207364355183e-01
5.784000000000000341e+01,1.465668246996046642e-01
5.788000000000000256e+01,1.335946625866283044e-01
5.792000000000000171e+01,1.294653427866468420e-01
5.796000000000000085e+01,1.210469033292431024e-01
5.800000000000000000e+01,1.056593512257348044e-01
5.803999999999999915e+01,9.670264576703098414e-02
5.807999999999999829e+01,8.801280430387120601e-02
5.811999999999999744e+01,8.039382350815105216e-02
5.815999999999999659e+01,6.821771913992970282e-02
5.820000000000000284e+01,6.300845605749730294e-02
5.824000000000000199e+01,7.575400070982431233e-02
5.828000000000000114e+01,5.178251440421522550e-02
5.832000000000000028e+01,4.951782281443599387e-02
5.835999999999999943e+01,4.698399021629411088e-02
5.839999999999999858e+01,4.310901884906632314e-02
5.843999999999999773e+01,4.378889027318571409e-02
5.847999999999999687e+01,3.294365126697688939e-02
5.852000000000000313e+01,3.415723089842358923e-02
5.856000000000000227e+01,4.448163697418366230e-02
5.860000000000000142e+01,3.631295047220761685e-02
5.864000000000000057e+01,2.680311954864258994e-02
5.867999999999999972e+01,3.310409235963589908e-02
5.871999999999999886e+01,4.261990534409029752e-02
5.875999999999999801e+01,3.873460687101050459e-02
5.879999999999999716e+01,2.412818804491132646e-02
5.884000000000000341e+01,1.836458986387876080e-02
5.888000000000000256e+01,3.189578036756359619e-02
5.892000000000000171e+01,3.175785644071905250e-02
5.896000000000000085e+01,3.831875669541071061e-02
5.900000000000000000e+01,3.362253347734416031e-02
5.903999999999999915e+01,2.678115880287069289e-02
5.907999999999999829e+01,2.503061025572279538e-02
5.911999999999999744e+01,3.507086701031323500e-02
5.915999999999999659e+01,3.948197982166703340e-02
5.920000000000000284e+01,4.067594058963919235e-02
5.924000000000000199e+01,3.999274439544529131e-02
5.928000000000000114e+01,3.448439904574280429e-02
5.932000000000000028e+01,3.406687417086293190e-02
5.935999999999999943e+01,3.418418234950412748e-02
5.939999999999999858e+01,3.430032423026289218e-02
5.943999999999999773e+01,2.771531875455874108e-02
5.947999999999999687e+01,2.648912919000171937e-02
5.952000000000000313e+01,3.812573232498406295e-02
5.956000000000000227e+01,3.180521868153787096e-02
5.960000000000000142e+01,2.896752369036828881e-02
5.964000000000000057e+01,3.658062573054776667e-02
5.967999999999999972e+01,2.918459941730568510e-02
5.971999999999999886e+01,2.848737938600698696e-02
5.975999999999999801e+01,3.395296628524807625e-02
5.979999999999999716e+01,3.003740530267328193e-02
5.984000000000000341e+01,3.576863902704875003e-02
5.988000000000000256e+01,3.211872298544071053e-02
5.992000000000000171e+01,3.945559578991458816e-02
5.996000000000000085e+01,3.821531455821670226e-02
