2.003999999999999915e+01,7.959226831567887961e-02
2.007999999999999829e+01,6.594775005395128731e-02
2.012000000000000099e+01,4.539599182308939190e-02
2.016000000000000014e+01,4.786290825632871088e-02
2.019999999999999929e+01,7.532163746108481994e-02
2.023999999999999844e+01,5.180639946693481324e-02
2.028000000000000114e+01,5.821581904240143851e-02
2.032000000000000028e+01,8.994591040647667568e-02
2.035999999999999943e+01,7.201746217200248601e-02
2.039999999999999858e+01,6.198030930359044871e-02
2.044000000000000128e+01,2.694883330000438781e-02
2.048000000000000043e+01,4.519080937439617224e-02
2.051999999999999957e+01,5.816983586067045464e-02
2.055999999999999872e+01,3.102715709106369096e-02
2.060000000000000142e+01,7.952015444275137290e-02
2.064000000000000057e+01,4.941527367305045132e-02
2.067999999999999972e+01,6.732215057503847244e-02
2.071999999999999886e+01,5.004016890102577081e-02
2.076000000000000156e+01,6.432713705941910109e-02
2.080000000000000071e+01,6.348547638328942699e-02
2.083999999999999986e+01,7.119283381185810555e-02
2.087999999999999901e+01,6.673127003747580943e-02
2.092000000000000171e+01,1.148854563020221820e-01
2.096000000000000085e+01,6.832781844566002127e-02
2.100000000000000000e+01,5.268142367820392857e-02
2.103999999999999915e+01,5.281888799716535216e-02
2.107999999999999829e+01,8.255217250912826044e-02
2.112000000000000099e+01,3.368759019038610608e-02
2.116000000000000014e+01,7.624379449762427874e-02
2.119999999999999929e+01,4.381955199457169409e-02
2.123999999999999844e+01,7.650760244557872070e-02
2.128000000000000114e+01,4.605403096724124817e-02
2.132000000000000028e+01,7.545105521400388704e-02
2.135999999999999943e+01,6.341096824500637441e-02
2.139999999999999858e+01,5.827563158106536384e-02
2.144000000000000128e+01,6.234703952402017441e-02
2.148000000000000043e+01,4.865898507221678299e-02
2.151999999999999957e+01,4.319110852582629112e-02
2.155999999999999872e+01,3.969514313173441028e-02
2.160000000000000142e+01,7.138556546737960529e-02
2.164000000000000057e+01,5.802146503486311363e-02
2.167999999999999972e+01,8.674973429671091474e-02
2.171999999999999886e+01,4.510155570174013973e-02
2.176000000000000156e+01,8.336421104135988136e-02
2.180000000000000071e+01,7.657234737637923228e-02
2.183999999999999986e+01,7.010812047782305489e-02
2.187999999999999901e+01,5.838097598142066857e-02
2.192000000000000171e+01,4.171977102248326796e-02
2.196000000000000085e+01,5.761411270592545902e-02
2.200000000000000000e+01,4.062161928280606099e-02
2.203999999999999915e+01,2.001049299750730370e-02
2.207999999999999829e+01,3.392805334378713733e-02
2.212000000000000099e+01,7.250861542989758823e-02
2.216000000000000014e+01,6.800780414594810586e-02
2.219999999999999929e+01,5.824408279127454846e-02
2.223999999999999844e+01,3.072091691875922584e-02
2.228000000000000114e+01,6.304836935271139475e-02
2.232000000000000028e+01,6.479098756817298910e-02
2.235999999999999943e+01,4.910302028288509452e-02
2.239999999999999858e+01,5.413178699060490484e-02
2.244000000000000128e+01,6.705189704979323817e-02
2.248000000000000043e+01,6.122599965321788573e-02
2.251999999999999957e+01,7.841883243327003872e-02
2.255999999999999872e+01,6.963082336207135348e-02
2.260000000000000142e+01,2.335200657576753588e-02
2.264000000000000057e+01,5.007806434079527941e-02
2.267999999999999972e+01,4.983671449397893832e-02
2.271999999999999886e+01,3.019165044789807670e-02
2.276000000000000156e+01,6.447780449938594893e-02
2.280000000000000071e+01,5.568260023505902656e-02
2.283999999999999986e+01,4.524191909288695357e-02
2.287999999999999901e+01,6.669909384472957892e-02
2.292000000000000171e+01,7.894710112881882236e-02
2.296000000000000085e+01,6.291228260961151397e-02
2.300000000000000000e+01,4.950712150359691532e-02
2.303999999999999915e+01,8.312720499853649969e-02
2.307999999999999829e+01,5.689427084840879834e-02
2.312000000000000099e+01,8.064628893080728889e-02
2.316000000000000014e+01,4.290101027781296344e-02
2.319999999999999929e+01,6.500637157176340775e-02
2.323999999999999844e+01,4.731894684390523104e-02
2.328000000000000114e+01,6.679108652970477955e-02
2.332000000000000028e+01,4.548387349221295201e-02
2.335999999999999943e+01,5.706109622268290549e-02
2.339999999999999858e+01,4.134207208291388463e-02
2.344000000000000128e+01,7.922542584142742983e-02
2.348000000000000043e+01,3.489355014313073183e-02
2.351999999999999957e+01,5.501630864079930933e-02
2.355999999999999872e+01,9.158069788981820780e-02
2.360000000000000142e+01,5.415126536522968381e-02
2.364000000000000057e+01,5.848539244420963845e-02
2.367999999999999972e+01,4.374468409971441624e-02
2.371999999999999886e+01,5.695557707487518273e-02
2.376000000000000156e+01,7.246728914572359015e-02
2.380000000000000071e+01,6.002505136639329358e-02
2.383999999999999986e+01,6.665530048001593044e-02
2.387999999999999901e+01,4.171418348660669434e-02
2.392000000000000171e+01,5.755006409973442011e-02
2.396000000000000085e+01,6.943850081899748117e-02
2.400000000000000000e+01,5.205756761484831713e-02
2.403999999999999915e+01,5.605111936905236153e-02
2.407999999999999829e+01,6.201664155164550440e-02
2.412000000000000099e+01,8.245067049152607352e-02
2.416000000000000014e+01,5.487053018954336087e-02
2.419999999999999929e+01,7.267138080222787511e-02
2.423999999999999844e+01,4.410234502693621134e-02
2.428000000000000114e+01,5.565260293735212888e-02
2.432000000000000028e+01,6.095343206096714289e-02
2.435999999999999943e+01,5.605855900561643873e-02
2.439999999999999858e+01,6.201478115515134115e-02
2.444000000000000128e+01,5.185589150791813928e-02
2.448000000000000043e+01,4.564211886450490752e-02
2.451999999999999957e+01,4.534660133232928242e-02
2.455999999999999872e+01,3.682852349216698962e-02
2.460000000000000142e+01,4.508095706092470761e-02
2.464000000000000057e+01,4.182227025926395225e-02
2.467999999999999972e+01,5.040125383198480746e-02
2.471999999999999886e+01,4.944225608259535110e-02
2.476000000000000156e+01,4.289155228504118456e-02
2.480000000000000071e+01,3.370884913000376376e-02
2.483999999999999986e+01,5.708176036144924081e-02
2.487999999999999901e+01,6.762813209013279758e-02
2.492000000000000171e+01,6.074397853504745481e-02
2.496000000000000085e+01,4.563727408087863563e-02
2.500000000000000000e+01,7.328072980381300505e-02
2.503999999999999915e+01,6.803742192784978382e-02
2.507999999999999829e+01,4.898101067031261635e-02
2.512000000000000099e+01,2.729260758241505019e-02
2.516000000000000014e+01,5.493149232360729217e-02
2.519999999999999929e+01,3.521394467492717367e-02
2.523999999999999844e+01,3.555548543362507807e-02
2.528000000000000114e+01,5.069441642985082069e-02
2.532000000000000028e+01,5.136253730100193843e-02
2.535999999999999943e+01,4.183497951544539600e-02
2.539999999999999858e+01,5.368193867851307061e-02
2.544000000000000128e+01,4.908495337264932173e-02
2.548000000000000043e+01,7.178189839677330542e-02
2.551999999999999957e+01,4.021643847530106952e-02
2.555999999999999872e+01,4.350860323728638485e-02
2.560000000000000142e+01,4.482649984843715268e-02
2.564000000000000057e+01,6.192836374839270214e-02
2.567999999999999972e+01,5.272060299212095319e-02
2.571999999999999886e+01,3.594802160252434653e-02
2.576000000000000156e+01,4.120767801840721778e-02
2.580000000000000071e+01,4.580849576559286457e-02
2.583999999999999986e+01,3.001910411969523768e-02
2.587999999999999901e+01,3.461767212984167424e-02
2.592000000000000171e+01,5.105393968196970250e-02
2.596000000000000085e+01,5.170398738558344004e-02
2.600000000000000000e+01,5.136634493052981421e-02
2.603999999999999915e+01,4.149075220274620751e-02
2.607999999999999829e+01,4.707028091913973561e-02
2.612000000000000099e+01,3.127303824541815408e-02
2.616000000000000014e+01,4.737372861871762958e-02
2.619999999999999929e+01,5.229219151074210314e-02
2.623999999999999844e+01,1.676022655888924004e-02
2.628000000000000114e+01,4.206554258579980887e-02
2.632000000000000028e+01,2.428958309524324732e-02
2.635999999999999943e+01,5.452551488280130837e-02
2.639999999999999858e+01,4.431102259004346400e-02
2.644000000000000128e+01,3.804169340473088218e-02
2.648000000000000043e+01,4.361007693386421968e-02
2.651999999999999957e+01,3.996937767537293157e-02
2.655999999999999872e+01,5.145495495732080315e-02
2.660000000000000142e+01,3.959063497331045955e-02
2.664000000000000057e+01,5.469141641068552689e-02
2.667999999999999972e+01,5.170400157462314017e-02
2.671999999999999886e+01,3.391695335022586189e-02
2.676000000000000156e+01,3.586017309261736730e-02
2.680000000000000071e+01,6.115107988132172795e-02
2.683999999999999986e+01,5.651497116098416762e-02
2.687999999999999901e+01,4.727377484293273507e-02
2.692000000000000171e+01,5.776285025523107686e-02
2.696000000000000085e+01,3.832491298115822675e-02
2.700000000000000000e+01,5.670434001238609800e-02
2.703999999999999915e+01,2.805623412911738973e-02
2.707999999999999829e+01,3.886977540503589595e-02
2.712000000000000099e+01,4.672251570068859661e-02
2.716000000000000014e+01,4.865475020717453802e-02
2.719999999999999929e+01,4.663961703191118330e-02
2.723999999999999844e+01,3.771741136599800898e-02
2.728000000000000114e+01,4.392149917654988855e-02
2.732000000000000028e+01,5.867475751603158651e-02
2.735999999999999943e+01,5.764182893816024306e-02
2.739999999999999858e+01,2.503761705160493720e-02
2.744000000000000128e+01,3.288162937551362269e-02
2.748000000000000043e+01,1.145635363346788997e-02
2.751999999999999957e+01,2.784845442829658388e-02
2.755999999999999872e+01,4.752803228665703622e-02
2.760000000000000142e+01,2.971692004120252487e-02
2.764000000000000057e+01,5.860230440466750179e-02
2.767999999999999972e+01,4.637958240746411359e-02
2.771999999999999886e+01,6.835682351295292725e-02
2.776000000000000156e+01,4.791053536186887229e-02
2.780000000000000071e+01,6.232192458410012320e-02
2.783999999999999986e+01,3.430978643153928531e-02
2.787999999999999901e+01,4.937673239460573654e-02
2.792000000000000171e+01,5.556348469563019560e-02
2.796000000000000085e+01,6.273573010814084694e-02
2.800000000000000000e+01,2.320932138194388775e-02
2.803999999999999915e+01,3.860082353410147077e-02
2.807999999999999829e+01,5.596439020367974942e-02
2.812000000000000099e+01,3.649499138985990571e-02
2.816000000000000014e+01,5.780268991695090147e-02
2.819999999999999929e+01,4.852569253642815411e-02
2.823999999999999844e+01,3.563020813172609186e-02
2.828000000000000114e+01,3.654561594806193803e-02
2.832000000000000028e+01,5.456047887053881718e-02
2.835999999999999943e+01,2.324584656695105958e-02
2.839999999999999858e+01,4.487599644320303810e-02
2.844000000000000128e+01,4.710256666750634730e-02
2.848000000000000043e+01,3.979124401338938327e-02
2.851999999999999957e+01,1.570719314447458978e-02
2.855999999999999872e+01,3.568881096958650273e-02
2.860000000000000142e+01,3.791113387841731769e-02
2.864000000000000057e+01,3.322641722775920153e-02
2.867999999999999972e+01,4.761430131778260355e-02
2.871999999999999886e+01,3.832348181461306402e-02
2.876000000000000156e+01,4.383013440642923725e-02
2.880000000000000071e+01,2.664465387009688074e-02
2.883999999999999986e+01,2.688749686590108726e-02
2.887999999999999901e+01,3.370640991883004645e-02
2.892000000000000171e+01,5.071881210840827048e-02
2.896000000000000085e+01,2.201915132391068369e-02
2.900000000000000000e+01,4.494886205492241993e-02
2.903999999999999915e+01,4.387102052544261666e-02
2.907999999999999829e+01,4.608069181332663522e-02
2.912000000000000099e+01,3.151764899976754880e-02
2.916000000000000014e+01,3.832921157852257205e-02
2.919999999999999929e+01,7.013279862911607487e-02
2.923999999999999844e+01,4.109694434848772115e-02
2.928000000000000114e+01,5.053622039275032507e-02
2.932000000000000028e+01,6.370893264839596302e-03
2.935999999999999943e+01,1.942550142561263668e-02
2.939999999999999858e+01,1.833825162654502058e-02
2.944000000000000128e+01,1.100169347463732239e-02
2.948000000000000043e+01,4.246912654649355467e-02
2.951999999999999957e+01,1.770111159525776523e-02
2.955999999999999872e+01,2.680424683324749910e-02
2.960000000000000142e+01,2.012124784374180048e-02
2.964000000000000057e+01,5.487309339693136750e-02
2.967999999999999972e+01,6.890596368808710181e-02
2.971999999999999886e+01,4.709247471472097213e-02
2.976000000000000156e+01,4.402275569165375185e-02
2.980000000000000071e+01,5.640824561556302685e-02
2.983999999999999986e+01,5.103446979079103579e-02
2.987999999999999901e+01,8.216270123773733447e-02
2.992000000000000171e+01,6.231719318123507545e-02
2.996000000000000085e+01,4.707464341936881680e-02
3.000000000000000000e+01,5.945498650251749423e-02
3.003999999999999915e+01,3.796211501479460071e-02
3.007999999999999829e+01,5.198468691997754076e-02
3.012000000000000099e+01,5.548283593997947044e-02
3.016000000000000014e+01,3.431574665557627496e-02
3.019999999999999929e+01,4.241583589274590393e-02
3.023999999999999844e+01,5.906516434383889125e-02
3.028000000000000114e+01,3.888157811961072408e-02
3.032000000000000028e+01,5.914628384994949362e-02
3.035999999999999943e+01,5.277261881380712616e-02
3.039999999999999858e+01,5.659247772725562592e-02
3.044000000000000128e+01,2.653913147873568704e-02
3.048000000000000043e+01,4.647091058656074164e-02
3.051999999999999957e+01,4.206631605241469007e-02
3.055999999999999872e+01,5.180152356447614154e-02
3.060000000000000142e+01,5.594516239835931742e-02
3.064000000000000057e+01,6.008778880011617779e-02
3.067999999999999972e+01,5.600799885010526724e-02
3.071999999999999886e+01,4.765206782227211085e-02
3.076000000000000156e+01,7.086532184942521961e-02
3.080000000000000071e+01,5.625910484956764962e-02
3.083999999999999986e+01,6.730266328689396560e-02
3.087999999999999901e+01,4.644616407857302814e-02
3.092000000000000171e+01,7.820565013176065949e-02
3.096000000000000085e+01,9.450789014214489026e-02
3.100000000000000000e+01,8.943347355103328788e-02
3.103999999999999915e+01,7.580779288174556430e-02
3.107999999999999829e+01,7.599307029581825468e-02
3.112000000000000099e+01,8.242561426245251233e-02
3.116000000000000014e+01,9.740741908348732325e-02
3.119999999999999929e+01,9.627427111821827699e-02
3.123999999999999844e+01,1.096097973887132926e-01
3.128000000000000114e+01,1.199846205315357600e-01
3.132000000000000028e+01,1.195061928214654345e-01
3.135999999999999943e+01,1.519123890574211599e-01
3.139999999999999858e+01,1.560359580179377093e-01
3.144000000000000128e+01,1.930441528062608603e-01
3.148000000000000043e+01,2.145951137833547184e-01
3.151999999999999957e+01,2.203599856956885983e-01
3.155999999999999872e+01,2.534189309533385059e-01
3.160000000000000142e+01,3.052216894422420390e-01
3.164000000000000057e+01,3.474866293830602415e-01
3.167999999999999972e+01,3.706769220784670305e-01
3.171999999999999886e+01,4.145841679943257918e-01
3.176000000000000156e+01,4.436918990740302826e-01
3.180000000000000071e+01,5.231136427538812805e-01
3.183999999999999986e+01,4.890790151529786356e-01
3.187999999999999901e+01,4.981235657567353314e-01
3.192000000000000171e+01,5.061805654535921351e-01
3.196000000000000085e+01,5.093037408513840791e-01
3.200000000000000000e+01,5.074930928910015293e-01
3.203999999999999915e+01,4.159037243526480521e-01
3.207999999999999829e+01,3.742995188062521739e-01
3.211999999999999744e+01,3.474928643896287306e-01
3.215999999999999659e+01,3.525842841535737904e-01
3.220000000000000284e+01,3.221582591826182007e-01
3.224000000000000199e+01,2.782481554438772098e-01
3.228000000000000114e+01,2.442027636821507419e-01
3.232000000000000028e+01,2.118006799777977511e-01
3.235999999999999943e+01,2.080081132142523603e-01
3.239999999999999858e+01,1.756040865031044118e-01
3.243999999999999773e+01,1.774001339197062155e-01
3.247999999999999687e+01,1.098065551622488811e-01
3.252000000000000313e+01,1.675062182690129631e-01
3.256000000000000227e+01,1.176689385306317198e-01
3.260000000000000142e+01,1.345884999312669250e-01
3.264000000000000057e+01,1.370374233897559690e-01
3.267999999999999972e+01,1.065997629593982976e-01
3.271999999999999886e+01,9.852336024385695279e-02
3.275999999999999801e+01,1.190564838780262813e-01
3.279999999999999716e+01,9.782390919664568640e-02
3.284000000000000341e+01,6.639583180504704529e-02
3.288000000000000256e+01,7.936238091805092321e-02
3.292000000000000171e+01,1.054822190065271698e-01
3.296000000000000085e+01,7.273584043310889202e-02
3.300000000000000000e+01,1.014846132968700437e-01
3.303999999999999915e+01,1.654200429849992937e-01
3.307999999999999829e+01,7.995911587617883232e-01
3.311999999999999744e+01,1.000000000000000000e+00
3.315999999999999659e+01,2.651408711480927050e-01
3.320000000000000284e+01,7.322236707055089500e-02
3.324000000000000199e+01,7.006636731656058770e-02
3.328000000000000114e+01,1.067010167541781740e-01
3.332000000000000028e+01,1.101202411627729416e-01
3.335999999999999943e+01,9.643799500987709772e-02
3.339999999999999858e+01,7.387568409691275262e-02
3.343999999999999773e+01,1.036005615271257396e-01
3.347999999999999687e+01,1.037274358305110694e-01
3.352000000000000313e+01,1.104304893342983040e-01
3.356000000000000227e+01,1.036494951196805653e-01
3.360000000000000142e+01,1.300820337353679468e-01
3.364000000000000057e+01,1.124469004332532274e-01
3.367999999999999972e+01,1.079650739835270740e-01
3.371999999999999886e+01,1.113748562163394823e-01
3.375999999999999801e+01,8.650206668624148276e-02
3.379999999999999716e+01,1.178627483003889531e-01
3.384000000000000341e+01,1.390279507265763104e-01
3.388000000000000256e+01,1.828832943478205519e-01
3.392000000000000171e+01,1.705032934439079662e-01
3.396000000000000085e+01,1.771960174781991304e-01
3.400000000000000000e+01,1.825723833374654215e-01
3.403999999999999915e+01,2.020886331003971248e-01
3.407999999999999829e+01,2.311407809859866713e-01
3.411999999999999744e+01,2.453934695479504657e-01
3.415999999999999659e+01,2.385984320331749065e-01
3.420000000000000284e+01,2.857348817105991867e-01
3.424000000000000199e+01,3.101793262209584512e-01
3.428000000000000114e+01,3.185088903935683335e-01
3.432000000000000028e+01,3.084215818083700933e-01
3.435999999999999943e+01,3.608160252338860063e-01
3.439999999999999858e+01,3.569751354249289799e-01
3.443999999999999773e+01,3.830592362607611046e-01
3.447999999999999687e+01,3.798742136864447505e-01
3.452000000000000313e+01,3.812922566682608316e-01
3.456000000000000227e+01,3.623202953710831786e-01
3.460000000000000142e+01,3.479514015118183590e-01
3.464000000000000057e+01,3.059576689780729164e-01
3.467999999999999972e+01,3.139491605941557850e-01
3.471999999999999886e+01,2.735978751689985833e-01
3.475999999999999801e+01,2.365342361676306959e-01
3.479999999999999716e+01,2.517578174997109897e-01
3.484000000000000341e+01,2.186386246132220879e-01
3.488000000000000256e+01,2.085384526384694570e-01
3.492000000000000171e+01,2.013970746566459413e-01
3.496000000000000085e+01,1.932682172755866845e-01
3.500000000000000000e+01,1.686956402983827152e-01
3.503999999999999915e+01,1.668132318020547344e-01
3.507999999999999829e+01,1.613124971737918689e-01
3.511999999999999744e+01,1.492337316046930540e-01
3.515999999999999659e+01,1.628048430889327547e-01
3.520000000000000284e+01,1.290197574058801200e-01
3.524000000000000199e+01,1.402870661288013188e-01
3.528000000000000114e+01,1.561574582847708725e-01
3.532000000000000028e+01,1.644632556210922358e-01
3.535999999999999943e+01,1.418556692747459380e-01
3.539999999999999858e+01,1.626562001258283485e-01
3.543999999999999773e+01,1.689861588970870687e-01
3.547999999999999687e+01,1.638052522792036170e-01
3.552000000000000313e+01,1.855896559603565921e-01
3.556000000000000227e+01,1.899437846345653769e-01
3.560000000000000142e+01,2.150149577955871028e-01
3.564000000000000057e+01,2.114747472211223056e-01
3.567999999999999972e+01,2.263495896543020192e-01
3.571999999999999886e+01,2.353041276488433697e-01
3.575999999999999801e+01,2.850359417534562012e-01
3.579999999999999716e+01,2.762304621938082017e-01
3.584000000000000341e+01,3.042559862929573034e-01
3.588000000000000256e+01,3.431328756325137119e-01
3.592000000000000171e+01,3.471501201288114680e-01
3.596000000000000085e+01,3.761595481074116454e-01
3.600000000000000000e+01,4.373959967864724518e-01
3.603999999999999915e+01,4.437125755852482922e-01
3.607999999999999829e+01,4.825850331606866273e-01
3.611999999999999744e+01,5.349397111772442592e-01
3.615999999999999659e+01,5.514481814126215298e-01
3.620000000000000284e+01,5.975528274975406839e-01
3.624000000000000199e+01,6.140595353770642584e-01
3.628000000000000114e+01,6.243170957959923717e-01
3.632000000000000028e+01,6.233926667788964870e-01
3.635999999999999943e+01,6.385813134036317784e-01
3.639999999999999858e+01,6.560710764453956401e-01
3.643999999999999773e+01,6.104195741552461696e-01
3.647999999999999687e+01,5.775925883853861853e-01
3.652000000000000313e+01,5.296373435508986427e-01
3.656000000000000227e+01,4.829966503137369527e-01
3.660000000000000142e+01,4.636501489740716409e-01
3.664000000000000057e+01,4.068131701718033510e-01
3.667999999999999972e+01,3.868072147870288413e-01
3.671999999999999886e+01,3.447670249592315050e-01
3.675999999999999801e+01,3.102896591272158999e-01
3.679999999999999716e+01,3.192204434237901900e-01
3.684000000000000341e+01,2.673119651583031886e-01
3.688000000000000256e+01,2.574962141255019987e-01
3.692000000000000171e+01,2.282770829094995235e-01
3.696000000000000085e+01,2.207615967538448520e-01
3.700000000000000000e+01,1.533934203829540321e-01
3.703999999999999915e+01,1.633055878113854886e-01
3.707999999999999829e+01,1.574317969588112098e-01
3.711999999999999744e+01,1.610939757365589531e-01
3.715999999999999659e+01,1.279234016721204903e-01
3.720000000000000284e+01,1.210604650352694323e-01
3.724000000000000199e+01,9.314987477023355111e-02
3.728000000000000114e+01,1.181842755626881375e-01
3.732000000000000028e+01,1.077013520542030311e-01
3.735999999999999943e+01,9.688871798874376662e-02
3.739999999999999858e+01,1.044911773892130136e-01
3.743999999999999773e+01,9.630768697668937173e-02
3.747999999999999687e+01,9.371390032944544590e-02
3.752000000000000313e+01,7.303217239004043682e-02
3.756000000000000227e+01,8.293322087371199358e-02
3.760000000000000142e+01,8.921600250153878531e-02
3.764000000000000057e+01,5.373319966154425920e-02
3.767999999999999972e+01,6.132971145530545509e-02
3.771999999999999886e+01,5.511341718883355084e-02
3.775999999999999801e+01,7.520477352241342062e-02
3.779999999999999716e+01,8.773159337154494419e-02
3.784000000000000341e+01,4.533858568045599086e-02
3.788000000000000256e+01,3.813234866146394259e-02
3.792000000000000171e+01,3.585811336870271815e-02
3.796000000000000085e+01,4.081787410401124805e-02
3.800000000000000000e+01,3.854195925374431786e-02
3.803999999999999915e+01,1.784925914846918066e-02
3.807999999999999829e+01,5.371898705712487010e-02
3.811999999999999744e+01,5.045399134401313407e-02
3.815999999999999659e+01,3.863789903120214836e-02
3.820000000000000284e+01,4.194835705791331859e-02
3.824000000000000199e+01,2.388232878427642980e-02
3.828000000000000114e+01,5.119762261869896525e-02
3.832000000000000028e+01,4.332447186886087542e-02
3.835999999999999943e+01,2.295395489071986109e-02
3.839999999999999858e+01,2.593139781708430486e-02
3.843999999999999773e+01,3.285428611798988513e-02
3.847999999999999687e+01,3.911863401242911265e-02
3.852000000000000313e+01,0.000000000000000000e+00
3.856000000000000227e+01,3.717517695746156564e-02
3.860000000000000142e+01,2.041711283488256354e-02
3.864000000000000057e+01,1.944332179046176154e-02
3.867999999999999972e+01,3.195181140414079385e-02
3.871999999999999886e+01,1.050460981930677199e-03
3.875999999999999801e+01,5.499318728901578940e-02
3.879999999999999716e+01,2.672104450028288739e-02
3.884000000000000341e+01,1.028690516110480381e-02
3.888000000000000256e+01,3.199926576607284301e-02
3.892000000000000171e+01,1.622120253918628990e-02
3.896000000000000085e+01,4.154934688801809051e-02
3.900000000000000000e+01,2.840050070351202161e-02
3.903999999999999915e+01,3.268021797817372009e-02
3.907999999999999829e+01,5.142879390310213517e-02
3.911999999999999744e+01,2.084812770146180286e-02
3.915999999999999659e+01,1.789056980871950656e-02
3.920000000000000284e+01,1.164363889016654594e-02
3.924000000000000199e+01,2.545612569060293900e-02
3.928000000000000114e+01,2.644241170879267633e-02
3.932000000000000028e+01,4.913239829985877744e-02
3.935999999999999943e+01,3.071455327022975038e-02
3.939999999999999858e+01,1.459789522440323520e-02
3.943999999999999773e+01,3.005062640676205155e-02
3.947999999999999687e+01,2.938859956711299334e-02
3.952000000000000313e+01,2.280635767340561532e-02
3.956000000000000227e+01,2.345814944338092331e-02
3.960000000000000142e+01,3.101511962350799942e-02
3.964000000000000057e+01,2.508818510055853962e-02
3.967999999999999972e+01,2.047587556437991535e-02
3.971999999999999886e+01,3.362100167692572139e-02
3.975999999999999801e+01,3.295336971464479098e-02
3.979999999999999716e+01,2.603667309011655287e-02
3.984000000000000341e+01,3.983712068677499468e-02
3.988000000000000256e+01,1.285860508873384704e-02
3.992000000000000171e+01,1.646292142629809940e-02
3.996000000000000085e+01,3.486497330813740497e-02
4.000000000000000000e+01,9.199502873735262987e-03
4.003999999999999915e+01,3.680794461267700851e-02
4.007999999999999829e+01,3.383196988842978453e-02
4.011999999999999744e+01,2.362036944579403927e-02
4.015999999999999659e+01,1.801196722482570692e-02
4.020000000000000284e+01,2.621473761021036325e-02
4.024000000000000199e+01,3.375900898830272445e-02
4.028000000000000114e+01,2.157112302355962755e-02
4.032000000000000028e+01,2.648297443205336818e-02
4.035999999999999943e+01,2.087064382328761639e-02
4.039999999999999858e+01,3.827746396912207194e-02
4.043999999999999773e+01,5.995863272843487968e-02
4.047999999999999687e+01,4.250513337850910650e-02
4.052000000000000313e+01,5.958075441059873523e-02
4.056000000000000227e+01,4.837396363113227044e-02
4.060000000000000142e+01,3.683753850680755032e-02
4.064000000000000057e+01,2.891775431157024220e-02
4.067999999999999972e+01,5.256738851211824326e-02
4.071999999999999886e+01,6.207543102478587510e-02
4.075999999999999801e+01,4.297221023592764227e-02
4.079999999999999716e+01,4.491501244404520754e-02
4.084000000000000341e+01,4.192419923074884591e-02
4.088000000000000256e+01,2.873807242618844557e-02
4.092000000000000171e+01,5.534277452328698749e-02
4.096000000000000085e+01,4.807451891257105703e-02
4.100000000000000000e+01,3.291294589421096817e-02
4.103999999999999915e+01,5.129393690617673612e-02
4.107999999999999829e+01,4.731193983774330258e-02
4.111999999999999744e+01,5.023515693329363291e-02
4.115999999999999659e+01,1.665457147011110972e-02
4.120000000000000284e+01,1.530112902313051151e-02
4.124000000000000199e+01,2.085290356280464219e-02
4.128000000000000114e+01,4.186015708497697885e-02
4.132000000000000028e+01,6.549749894810824591e-02
4.135999999999999943e+01,5.032904959600912470e-02
4.139999999999999858e+01,5.883748690961080469e-02
4.143999999999999773e+01,5.156006849925143243e-02
4.147999999999999687e+01,4.428189263804212933e-02
4.152000000000000313e+01,2.680841823981405456e-02
4.156000000000000227e+01,2.215957985494614382e-02
4.160000000000000142e+01,4.973789389518350201e-02
4.164000000000000057e+01,3.193329941799736421e-02
4.167999999999999972e+01,5.556383269149262061e-02
4.171999999999999886e+01,4.236172038429796005e-02
4.175999999999999801e+01,3.606483729533225407e-02
4.179999999999999716e+01,3.798860914317096771e-02
4.184000000000000341e+01,5.175045500733823495e-02
4.188000000000000256e+01,4.249161922007016479e-02
4.192000000000000171e+01,5.493654516354930240e-02
4.196000000000000085e+01,1.344830906177471239e-02
4.200000000000000000e+01,3.773056662497759756e-02
4.203999999999999915e+01,4.063642727241285890e-02
4.207999999999999829e+01,3.893755786045525330e-02
4.211999999999999744e+01,4.907676905105851778e-02
4.215999999999999659e+01,5.099383392541565613e-02
4.220000000000000284e+01,6.639326225622052546e-02
4.224000000000000199e+01,5.482574307054779994e-02
4.228000000000000114e+01,6.594856266689884394e-02
4.232000000000000028e+01,6.753381493288011794e-02
4.235999999999999943e+01,4.840039019905871542e-02
4.239999999999999858e+01,5.886328715277876211e-02
4.243999999999999773e+01,7.491600454217806071e-02
4.247999999999999687e+01,5.610923139433126455e-02
4.252000000000000313e+01,7.939531814470494886e-02
4.256000000000000227e+01,6.551992287866435782e-02
4.260000000000000142e+01,7.959657303251042870e-02
4.264000000000000057e+01,9.597448638227469575e-02
4.267999999999999972e+01,1.123516705078986821e-01
4.271999999999999886e+01,1.178758719343708794e-01
4.275999999999999801e+01,1.299764699069087814e-01
4.279999999999999716e+01,1.476668967831388235e-01
4.284000000000000341e+01,1.693028725318451444e-01
4.288000000000000256e+01,1.458848251251491090e-01
4.292000000000000171e+01,1.938278483290695742e-01
4.296000000000000085e+01,2.144750847581168574e-01
4.300000000000000000e+01,2.420275795729930068e-01
4.303999999999999915e+01,2.541231124939421493e-01
4.307999999999999829e+01,2.589830893223863395e-01
4.311999999999999744e+01,3.065936525512484301e-01
4.315999999999999659e+01,2.825128474628179065e-01
4.320000000000000284e+01,2.873706704908926546e-01
4.324000000000000199e+01,2.866372221621300009e-01
4.328000000000000114e+01,2.595945631688805211e-01
4.332000000000000028e+01,2.677388028088114047e-01
4.335999999999999943e+01,2.515469708325636655e-01
4.339999999999999858e+01,2.564012230111624158e-01
4.343999999999999773e+01,1.895641134587008336e-01
4.347999999999999687e+01,1.963900810502690608e-01
4.352000000000000313e+01,1.644103082346841938e-01
4.356000000000000227e+01,1.709060016418342542e-01
4.360000000000000142e+01,1.487904985506711131e-01
4.364000000000000057e+01,1.322648441218968740e-01
4.367999999999999972e+01,1.295504441569335641e-01
4.371999999999999886e+01,1.360433128747736420e-01
4.375999999999999801e+01,8.334136277668410808e-02
4.379999999999999716e+01,1.115373336270147758e-01
4.384000000000000341e+01,1.058604145136339131e-01
4.388000000000000256e+01,8.768625901481422180e-02
4.392000000000000171e+01,8.891391893030882454e-02
4.396000000000000085e+01,6.942293948161358530e-02
4.400000000000000000e+01,8.742086802218293484e-02
4.403999999999999915e+01,8.634444005244931719e-02
4.407999999999999829e+01,8.395189101205155491e-02
4.411999999999999744e+01,7.235067317576954204e-02
4.415999999999999659e+01,4.923879412354464913e-02
4.420000000000000284e+01,5.046157998818531776e-02
4.424000000000000199e+01,5.267024190667186911e-02
4.428000000000000114e+01,5.323393126452456714e-02
4.432000000000000028e+01,6.432032819622064690e-02
4.435999999999999943e+01,7.310404206022097506e-02
4.439999999999999858e+01,4.176661143897014011e-02
4.443999999999999773e+01,6.468976507226203987e-02
4.447999999999999687e+01,4.091465221365821192e-02
4.452000000000000313e+01,6.909813213042878544e-02
4.456000000000000227e+01,6.571073238046247489e-02
4.460000000000000142e+01,6.100722379140611357e-02
4.464000000000000057e+01,6.255129977583924472e-02
4.467999999999999972e+01,6.541011835833300536e-02
4.471999999999999886e+01,5.675828889734842869e-02
4.475999999999999801e+01,7.013914416474505142e-02
4.479999999999999716e+01,7.496905902023526247e-02
4.484000000000000341e+01,7.256345918239458237e-02
4.488000000000000256e+01,5.470094073158162512e-02
4.492000000000000171e+01,6.347509749460875095e-02
4.496000000000000085e+01,5.185949461012534512e-02
4.500000000000000000e+01,7.312883651526674855e-02
4.503999999999999915e+01,5.625018615592978360e-02
4.507999999999999829e+01,6.765249574610061878e-02
4.511999999999999744e+01,7.642328395107053640e-02
4.515999999999999659e+01,9.374366232205272320e-02
4.520000000000000284e+01,7.784889510843685800e-02
4.524000000000000199e+01,5.504747880481452443e-02
4.528000000000000114e+01,4.770163557272207033e-02
4.532000000000000028e+01,8.935469818401918507e-02
4.535999999999999943e+01,8.825578933606273435e-02
4.539999999999999858e+01,6.676713119038919786e-02
4.543999999999999773e+01,6.402261182401940143e-02
4.547999999999999687e+01,7.541824545594623397e-02
4.552000000000000313e+01,6.412213925187795760e-02
4.556000000000000227e+01,6.466419456693796308e-02
4.560000000000000142e+01,8.000411809180801859e-02
4.564000000000000057e+01,6.936374265914131698e-02
4.567999999999999972e+01,6.891725059616747584e-02
4.571999999999999886e+01,7.669150567724923595e-02
4.575999999999999801e+01,7.788798009431999181e-02
4.579999999999999716e+01,6.625840709426589203e-02
4.584000000000000341e+01,1.079028826966519361e-01
4.588000000000000256e+01,8.048690351765715179e-02
4.592000000000000171e+01,7.345935538075654136e-02
4.596000000000000085e+01,7.267942286672575414e-02
4.600000000000000000e+01,7.518740116666390583e-02
4.603999999999999915e+01,6.914446822229552980e-02
4.607999999999999829e+01,7.691284619515727228e-02
4.611999999999999744e+01,6.659348516727651990e-02
4.615999999999999659e+01,6.909886835514253423e-02
4.620000000000000284e+01,8.114043475543310235e-02
4.624000000000000199e+01,6.292658578406520875e-02
4.628000000000000114e+01,6.937630685028080280e-02
4.632000000000000028e+01,7.681195289663890480e-02
4.635999999999999943e+01,8.819323061382118578e-02
4.639999999999999858e+01,7.754050158343808730e-02
4.643999999999999773e+01,8.464536627135295366e-02
4.647999999999999687e+01,8.023962431496360626e-02
4.652000000000000313e+01,8.800092265349143683e-02
4.656000000000000227e+01,8.589589720160192843e-02
4.660000000000000142e+01,7.852853562208311766e-02
4.664000000000000057e+01,8.990534104857778042e-02
4.667999999999999972e+01,8.648298259100709040e-02
4.671999999999999886e+01,8.963711382764361080e-02
4.675999999999999801e+01,1.066025719766456603e-01
4.679999999999999716e+01,8.772207262129216865e-02
4.684000000000000341e+01,6.522352375575765637e-02
4.688000000000000256e+01,9.862989751118168835e-02
4.692000000000000171e+01,8.994204889091707289e-02
4.696000000000000085e+01,9.638095666515451854e-02
4.700000000000000000e+01,7.848387844423253268e-02
4.703999999999999915e+01,8.886780627644384756e-02
4.707999999999999829e+01,9.990882077129252525e-02
4.711999999999999744e+01,1.056875113700861263e-01
4.715999999999999659e+01,9.403619982012792478e-02
4.720000000000000284e+01,1.149410286143409538e-01
4.724000000000000199e+01,9.210736158788153383e-02
4.728000000000000114e+01,1.162995093419097459e-01
4.732000000000000028e+01,9.050489546304207877e-02
4.735999999999999943e+01,9.200472658116656821e-02
4.739999999999999858e+01,9.514822047231470681e-02
4.743999999999999773e+01,9.039854843916025895e-02
4.747999999999999687e+01,1.011045012265031906e-01
4.752000000000000313e+01,9.931330324942634624e-02
4.756000000000000227e+01,8.469609925439880449e-02
4.760000000000000142e+01,8.619223529138221596e-02
4.764000000000000057e+01,9.821115699610541427e-02
4.767999999999999972e+01,9.411551356133619761e-02
4.771999999999999886e+01,1.146834740362018823e-01
4.775999999999999801e+01,1.056537672820836993e-01
4.779999999999999716e+01,9.333488979357351667e-02
4.784000000000000341e+01,9.482736462146740264e-02
4.788000000000000256e+01,1.150640356229745281e-01
4.792000000000000171e+01,1.027433374092679014e-01
4.796000000000000085e+01,8.877775319683665900e-02
4.800000000000000000e+01,1.030931976189065902e-01
4.803999999999999915e+01,7.432787742695302902e-02
4.807999999999999829e+01,8.469584216718295533e-02
4.811999999999999744e+01,7.401640920139489210e-02
4.815999999999999659e+01,8.635630952292895623e-02
4.820000000000000284e+01,6.778312818758769343e-02
4.824000000000000199e+01,8.110839927072328870e-02
4.828000000000000114e+01,7.239970782813844041e-02
4.832000000000000028e+01,8.177751052011802968e-02
4.835999999999999943e+01,6.451736584625993032e-02
4.839999999999999858e+01,6.567257338316813409e-02
4.843999999999999773e+01,7.965257876657136360e-02
4.847999999999999687e+01,6.962548916217806139e-02
4.852000000000000313e+01,7.110777450837552083e-02
4.856000000000000227e+01,6.075064594214391045e-02
4.860000000000000142e+01,5.006407120911794684e-02
4.864000000000000057e+01,5.647742955451514474e-02
4.867999999999999972e+01,6.453448078142620670e-02
4.871999999999999886e+01,4.957101124914652102e-02
4.875999999999999801e+01,6.617715017249663212e-02
4.879999999999999716e+01,5.088365296906237345e-02
4.884000000000000341e+01,5.334780593734536613e-02
4.888000000000000256e+01,5.350938215853860702e-02
4.892000000000000171e+01,5.663008168427283856e-02
4.896000000000000085e+01,5.810591873354049863e-02
4.900000000000000000e+01,6.056774380260206841e-02
4.903999999999999915e+01,4.921702908339090771e-02
4.907999999999999829e+01,4.740256532070716289e-02
4.911999999999999744e+01,5.512435345544127591e-02
4.915999999999999659e+01,5.593958470742025485e-02
4.920000000000000284e+01,4.688855426774286156e-02
4.924000000000000199e+01,4.046779846530770830e-02
4.928000000000000114e+01,4.522757929595788012e-02
4.932000000000000028e+01,4.110766984088658899e-02
4.935999999999999943e+01,6.033597809426820974e-02
4.939999999999999858e+01,4.108754044579497611e-02
4.943999999999999773e+01,4.748931574850412396e-02
4.947999999999999687e+01,5.750793991706116409e-02
4.952000000000000313e+01,4.845233647728906107e-02
4.956000000000000227e+01,5.090613245125582415e-02
4.960000000000000142e+01,5.697678011374143064e-02
4.964000000000000057e+01,4.923490210130912481e-02
4.967999999999999972e+01,4.280788429822736385e-02
4.971999999999999886e+01,5.545396214413499808e-02
4.975999999999999801e+01,5.198552377684673154e-02
4.979999999999999716e+01,7.778472496738766950e-02
4.984000000000000341e+01,5.918777910628445632e-02
4.988000000000000256e+01,3.795942382592817910e-02
4.992000000000000171e+01,8.611916664546670486e-02
4.996000000000000085e+01,5.864142676601172971e-02
5.000000000000000000e+01,6.700845503726279850e-02
5.003999999999999915e+01,5.630126793175892902e-02
5.007999999999999829e+01,5.019751238872139504e-02
5.011999999999999744e+01,7.632110968042712940e-02
5.015999999999999659e+01,5.574657408666243430e-02
5.020000000000000284e+01,8.121135337511468932e-02
5.024000000000000199e+01,7.050139988135765978e-02
5.028000000000000114e+01,6.636801982104627295e-02
5.032000000000000028e+01,7.209977607928357013e-02
5.035999999999999943e+01,7.322699704242406626e-02
5.039999999999999858e+01,5.330687393029478333e-02
5.043999999999999773e+01,6.956038551308652007e-02
5.047999999999999687e+01,7.298795976292071774e-02
5.052000000000000313e+01,7.740155778638097006e-02
5.056000000000000227e+01,4.399614958264817105e-02
5.060000000000000142e+01,4.479124267086989630e-02
5.064000000000000057e+01,6.202860349318826266e-02
5.067999999999999972e+01,5.558777727109887046e-02
5.071999999999999886e+01,5.703895960993381198e-02
5.075999999999999801e+01,5.257019128489005821e-02
5.079999999999999716e+01,5.665114579139370055e-02
5.084000000000000341e+01,4.428875329431888885e-02
5.088000000000000256e+01,4.803977798226122253e-02
5.092000000000000171e+01,3.205889560419299122e-02
5.096000000000000085e+01,3.284914468176514807e-02
5.100000000000000000e+01,3.922941554554483512e-02
5.103999999999999915e+01,5.119970913642250820e-02
5.107999999999999829e+01,4.639780517464233561e-02
5.111999999999999744e+01,3.962223335005154307e-02
5.115999999999999659e+01,4.994665387997400396e-02
5.120000000000000284e+01,3.166005668074396706e-02
5.124000000000000199e+01,3.770828999507559037e-02
5.128000000000000114e+01,3.520573532173267711e-02
5.132000000000000028e+01,4.092405951708990436e-02
5.135999999999999943e+01,3.447417946791937055e-02
5.139999999999999858e+01,4.150687927996993265e-02
5.143999999999999773e+01,4.130421964559226333e-02
5.147999999999999687e+01,2.432937186745998473e-02
5.152000000000000313e+01,4.418589657712967272e-02
5.156000000000000227e+01,2.326373283207289200e-02
5.160000000000000142e+01,2.700526426301199170e-02
5.164000000000000057e+01,3.173284581250606501e-02
5.167999999999999972e+01,3.317134789396891659e-02
5.171999999999999886e+01,3.296505242039739214e-02
5.175999999999999801e+01,4.393935191511096766e-02
5.179999999999999716e+01,3.222205929360968252e-02
5.184000000000000341e+01,3.464506927196560337e-02
5.188000000000000256e+01,3.476557307000575220e-02
5.192000000000000171e+01,4.014726410030957510e-02
5.196000000000000085e+01,3.040105924964884784e-02
5.200000000000000000e+01,2.492947492976867532e-02
5.203999999999999915e+01,4.905443905199689814e-02
5.207999999999999829e+01,4.621268711676591173e-02
5.211999999999999744e+01,1.212908953748964569e-02
5.215999999999999659e+01,1.750772905563066639e-02
5.220000000000000284e+01,1.926844514289339713e-02
5.224000000000000199e+01,3.089434271144021402e-02
5.228000000000000114e+01,3.035205767593636070e-02
5.232000000000000028e+01,4.164809317002476224e-02
5.235999999999999943e+01,3.156797449804769201e-02
5.239999999999999858e+01,2.905104770996708163e-02
5.243999999999999773e+01,3.738587569088580587e-02
5.247999999999999687e+01,2.302912755072495862e-02
5.252000000000000313e+01,1.853756747808043073e-02
5.256000000000000227e+01,1.470322297004684510e-02
5.260000000000000142e+01,3.290174760489703032e-02
5.264000000000000057e+01,4.583807818655617067e-02
5.267999999999999972e+01,2.950571346316195956e-02
5.271999999999999886e+01,3.783707026069257212e-02
5.275999999999999801e+01,3.400025574485642660e-02
5.279999999999999716e+01,3.706893013297743456e-02
5.284000000000000341e+01,3.717740853330772643e-02
5.288000000000000256e+01,3.070827374810371907e-02
5.292000000000000171e+01,2.621178777320878547e-02
5.296000000000000085e+01,2.927850685467463243e-02
5.300000000000000000e+01,3.892186335012785825e-02
5.303999999999999915e+01,1.600797106432812200e-02
5.307999999999999829e+01,3.452947468295058941e-02
5.311999999999999744e+01,2.772856767936845643e-02
5.315999999999999659e+01,3.539685051944549410e-02
5.320000000000000284e+01,2.234671134099627463e-02
5.324000000000000199e+01,4.283942316442024278e-02
5.328000000000000114e+01,3.965400910130725820e-02
5.332000000000000028e+01,3.186412936898120468e-02
5.335999999999999943e+01,2.341605924138745812e-02
5.339999999999999858e+01,2.351777310321184755e-02
5.343999999999999773e+01,3.578669003397873943e-02
5.347999999999999687e+01,4.147800789256609472e-02
5.352000000000000313e+01,2.677976745417108215e-02
5.356000000000000227e+01,2.359102051854696305e-02
5.360000000000000142e+01,2.895206227679257907e-02
5.364000000000000057e+01,1.359469236630548965e-02
5.367999999999999972e+01,2.914933425211496329e-02
5.371999999999999886e+01,3.023383404497655136e-02
5.375999999999999801e+01,4.151240726737545628e-02
5.379999999999999716e+01,3.371685355670926004e-02
5.384000000000000341e+01,2.526312074145939390e-02
5.388000000000000256e+01,4.278856151063857582e-02
5.392000000000000171e+01,2.282393128183266701e-02
5.396000000000000085e+01,2.653648315828776444e-02
5.400000000000000000e+01,3.156399686024784212e-02
5.403999999999999915e+01,3.264477421786310396e-02
5.407999999999999829e+01,3.504051528276405647e-02
5.411999999999999744e+01,2.822782277436063081e-02
5.415999999999999659e+01,1.845496532754699673e-02
5.420000000000000284e+01,2.972844607596603766e-02
5.424000000000000199e+01,4.067261332312582106e-02
5.428000000000000114e+01,4.010635739959342305e-02
5.432000000000000028e+01,3.723765269005473166e-02
5.435999999999999943e+01,3.930133641266798233e-02
5.439999999999999858e+01,3.774714845337045349e-02
5.443999999999999773e+01,5.099103664064347230e-02
5.447999999999999687e+01,3.397970327966379211e-02
5.452000000000000313e+01,4.031670900198824209e-02
5.456000000000000227e+01,3.415672955658902166e-02
5.460000000000000142e+01,4.937195390974689208e-02
5.464000000000000057e+01,3.992251578337498857e-02
5.467999999999999972e+01,2.619750017248196478e-02
5.471999999999999886e+01,3.549197215492340407e-02
5.475999999999999801e+01,3.853773136809687111e-02
5.479999999999999716e+01,4.059647786363292099e-02
5.484000000000000341e+01,3.344680772189023016e-02
5.488000000000000256e+01,3.682009354903510029e-02
5.492000000000000171e+01,5.564917920227682030e-02
5.496000000000000085e+01,4.751161654216234931e-02
5.500000000000000000e+01,2.950792861948791507e-02
5.503999999999999915e+01,4.340285306664463938e-02
5.507999999999999829e+01,3.921024927249030373e-02
5.511999999999999744e+01,5.014459381446317865e-02
5.515999999999999659e+01,5.351481021838631891e-02
5.520000000000000284e+01,4.570348128651584990e-02
5.524000000000000199e+01,3.789171857006534694e-02
5.528000000000000114e+01,4.323377078677573954e-02
5.532000000000000028e+01,3.410571854615092324e-02
5.535999999999999943e+01,4.668174417542053645e-02
5.539999999999999858e+01,3.985482431281665155e-02
5.543999999999999773e+01,6.065139570147065617e-02
5.547999999999999687e+01,5.579675578602764224e-02
5.552000000000000313e+01,4.633770195033905942e-02
5.556000000000000227e+01,4.542848291214594825e-02
5.560000000000000142e+01,4.517655094622802930e-02
5.564000000000000057e+01,5.840729857590522267e-02
5.567999999999999972e+01,5.289281968878371820e-02
5.571999999999999886e+01,5.790131652924633554e-02
5.575999999999999801e+01,6.488252898323068618e-02
5.579999999999999716e+01,6.495734074225271992e-02
5.584000000000000341e+01,6.996457574636856525e-02
5.588000000000000256e+01,8.154851590857468968e-02
5.592000000000000171e+01,6.452154936668590135e-02
5.596000000000000085e+01,7.511808630762931149e-02
5.600000000000000000e+01,7.124453478637285397e-02
5.603999999999999915e+01,9.795419437952049280e-02
5.607999999999999829e+01,7.763700414454369203e-02
5.611999999999999744e+01,1.017149870714446902e-01
5.615999999999999659e+01,9.816863752285660827e-02
5.620000000000000284e+01,9.264873960452855994e-02
5.624000000000000199e+01,1.147523517552647282e-01
5.628000000000000114e+01,1.184396076969781303e-01
5.632000000000000028e+01,1.352807030350007544e-01
5.635999999999999943e+01,1.277860325461985525e-01
5.639999999999999858e+01,1.498880130565493907e-01
5.643999999999999773e+01,1.598219088154428369e-01
5.647999999999999687e+01,1.885002030393684302e-01
5.652000000000000313e+01,1.793596312287584482e-01
5.656000000000000227e+01,1.994868579864415292e-01
5.660000000000000142e+01,2.150096962279177681e-01
5.664000000000000057e+01,1.874519721467890754e-01
5.667999999999999972e+01,2.105377020940068511e-01
5.671999999999999886e+01,2.316498959030587890e-01
5.675999999999999801e+01,2.353323133770356679e-01
5.679999999999999716e+01,2.229003802345126128e-01
5.684000000000000341e+01,2.081660575820734882e-01
5.688000000000000256e+01,2.098741494426207554e-01
5.692000000000000171e+01,2.004007364256583101e-01
5.696000000000000085e+01,1.787592508888124210e-01
5.700000000000000000e+01,1.653387778270923036e-01
5.703999999999999915e+01,1.575084686260179445e-01
5.707999999999999829e+01,1.638185852814326715e-01
5.711999999999999744e+01,1.569740645972615700e-01
5.715999999999999659e+01,1.576928477629350178e-01
5.720000000000000284e+01,1.390087277767990959e-01
5.724000000000000199e+01,1.144048095510162705e-01
5.728000000000000114e+01,1.187398506351311500e-01
5.732000000000000028e+01,1.171550953613796631e-01
5.735999999999999943e+01,1.004425712268567777e-01
5.739999999999999858e+01,1.028033233922645145e-01
5.743999999999999773e+01,1.081233992718510228e-01
5.747999999999999687e+01,8.220175558669504112e-02
5.752000000000000313e+01,7.765538438508950980e-02
5.756000000000000227e+01,7.771262069244012916e-02
5.760000000000000142e+01,7.053464245047152970e-02
5.764000000000000057e+01,7.585282226535020045e-02
5.767999999999999972e+01,7.393578941269045302e-02
5.771999999999999886e+01,7.695122402696927266e-02
5.775999999999999801e+01,6.385233060611607281e-02
5.779999999999999716e+01,6.127646183914380734e-02
5.784000000000000341e+01,6.790819388925757594e-02
5.788000000000000256e+01,5.612360736596140598e-02
5.792000000000000171e+01,7.130485804028044439e-02
5.796000000000000085e+01,4.472100221906012696e-02
5.800000000000000000e+01,5.694180847640126220e-02
5.803999999999999915e+01,5.337714947926384262e-02
5.807999999999999829e+01,7.480519427677527478e-02
5.811999999999999744e+01,6.104526023073410246e-02
5.815999999999999659e+01,5.287551639026755179e-02
5.820000000000000284e+01,5.588651900142773549e-02
5.824000000000000199e+01,6.152800795015176544e-02
5.828000000000000114e+01,5.763230498374324190e-02
5.832000000000000028e+01,4.814568537614775240e-02
5.835999999999999943e+01,5.806122084427173258e-02
5.839999999999999858e+01,6.994953402467844750e-02
5.843999999999999773e+01,4.895186924960386043e-02
5.847999999999999687e+01,4.669864998407737694e-02
5.852000000000000313e+01,5.792817805824883315e-02
5.856000000000000227e+01,6.817078185847287586e-02
5.860000000000000142e+01,5.440652871615123121e-02
5.864000000000000057e+01,5.445388193061975746e-02
5.867999999999999972e+01,6.929941102603263958e-02
5.871999999999999886e+01,5.027240016893275154e-02
5.875999999999999801e+01,4.834556043550668897e-02
5.879999999999999716e+01,6.812287948854255093e-02
5.884000000000000341e+01,5.008138707868133727e-02
5.888000000000000256e+01,5.769032967011799434e-02
5.892000000000000171e+01,5.937951353930102927e-02
5.896000000000000085e+01,5.909521396017604344e-02
5.900000000000000000e+01,5.157573276289319220e-02
5.903999999999999915e+01,5.490816158151225895e-02
5.907999999999999829e+01,5.166312305259656429e-02
5.911999999999999744e+01,6.683368889305278671e-02
5.915999999999999659e+01,5.339342424152987432e-02
5.920000000000000284e+01,5.409363531368291400e-02
5.924000000000000199e+01,5.051837616281140697e-02
5.928000000000000114e+01,5.878160125644753264e-02
5.932000000000000028e+01,4.599769209335510811e-02
5.935999999999999943e+01,4.768311861192112144e-02
5.939999999999999858e+01,4.542193486544517794e-02
5.943999999999999773e+01,4.809325904419154557e-02
5.947999999999999687e+01,5.602594828347195327e-02
5.952000000000000313e+01,5.376376238637720767e-02
5.956000000000000227e+01,7.320575315266034111e-02
5.960000000000000142e+01,6.699662952654943104e-02
5.964000000000000057e+01,6.572001853011255612e-02
5.967999999999999972e+01,7.003363349308244779e-02
5.971999999999999886e+01,6.875636474602653259e-02
5.975999999999999801e+01,7.109618667363047650e-02
5.979999999999999716e+01,4.383862458023676800e-02
5.984000000000000341e+01,3.631210856992560937e-02
5.988000000000000256e+01,6.199974355485941141e-02
5.992000000000000171e+01,5.578800398051757259e-02
5.996000000000000085e+01,4.431424253591294965e-02
