2.003999999999999915e+01,6.515972778298718959e-02
2.007999999999999829e+01,7.427237198339337043e-02
2.012000000000000099e+01,9.436782910593921603e-02
2.016000000000000014e+01,6.376629982246066752e-02
2.019999999999999929e+01,6.146862300749502545e-02
2.023999999999999844e+01,4.142618135539211099e-02
2.028000000000000114e+01,6.616370296019309649e-02
2.032000000000000028e+01,6.724195842993070660e-02
2.035999999999999943e+01,1.029610320687745773e-01
2.039999999999999858e+01,3.348521443593308750e-02
2.044000000000000128e+01,1.017315234529506951e-01
2.048000000000000043e+01,4.196986474087122110e-02
2.051999999999999957e+01,4.895631701670716263e-02
2.055999999999999872e+01,7.368501232189823835e-02
2.060000000000000142e+01,7.433197714066565320e-02
2.064000000000000057e+01,8.342696865896510883e-02
2.067999999999999972e+01,8.829605551112967854e-02
2.071999999999999886e+01,3.570872594872808586e-02
2.076000000000000156e+01,5.705140184070302267e-02
2.080000000000000071e+01,5.008770347611688628e-02
2.083999999999999986e+01,6.889307136926869912e-02
2.087999999999999901e+01,8.473992775298100355e-02
2.092000000000000171e+01,5.031226218464147915e-02
2.096000000000000085e+01,4.925802170764844584e-02
2.100000000000000000e+01,7.650763377810300414e-02
2.103999999999999915e+01,1.286813833680549024e-01
2.107999999999999829e+01,7.439284861645510671e-02
2.112000000000000099e+01,3.700162819149041549e-02
2.116000000000000014e+01,6.002155313278172144e-02
2.119999999999999929e+01,8.092789535418182245e-02
2.123999999999999844e+01,6.465611140370501608e-02
2.128000000000000114e+01,2.768231206579662568e-02
2.132000000000000028e+01,4.900733621499581832e-02
2.135999999999999943e+01,6.441659824920613342e-02
2.139999999999999858e+01,7.433256255136161395e-02
2.144000000000000128e+01,4.622547194339978599e-02
2.148000000000000043e+01,7.937445549124264033e-02
2.151999999999999957e+01,7.238806224192617655e-02
2.155999999999999872e+01,3.625036605306277554e-02
2.160000000000000142e+01,8.291442736018773962e-02
2.164000000000000057e+01,4.085970829847414970e-02
2.167999999999999972e+01,4.907698955863342566e-02
2.171999999999999886e+01,6.278504697197703766e-02
2.176000000000000156e+01,7.057734230979910428e-02
2.180000000000000071e+01,6.062487296440687012e-02
2.183999999999999986e+01,8.531322193415122324e-02
2.187999999999999901e+01,5.888212028859180630e-02
2.192000000000000171e+01,4.301136736379562731e-02
2.196000000000000085e+01,6.727346969280863231e-02
2.200000000000000000e+01,8.012777304314860904e-02
2.203999999999999915e+01,6.383077350130200722e-02
2.207999999999999829e+01,7.794994850840081257e-02
2.212000000000000099e+01,7.347943010588549317e-02
2.216000000000000014e+01,1.209707695885522821e-01
2.219999999999999929e+01,8.185565065257080497e-02
2.223999999999999844e+01,9.596978274662645858e-02
2.228000000000000114e+01,6.487896557066592795e-02
2.232000000000000028e+01,5.828982166151168431e-02
2.235999999999999943e+01,5.930377586362468867e-02
2.239999999999999858e+01,9.791579908903891294e-02
2.244000000000000128e+01,6.006050901517608065e-02
2.248000000000000043e+01,5.431125104567469802e-02
2.251999999999999957e+01,7.052888008879069914e-02
2.255999999999999872e+01,6.477710073380893441e-02
2.260000000000000142e+01,8.648424532617074445e-02
2.264000000000000057e+01,5.115743807239738622e-02
2.267999999999999972e+01,6.145552307030709843e-02
2.271999999999999886e+01,8.442627876285088706e-02
2.276000000000000156e+01,7.993558915019847999e-02
2.280000000000000071e+01,1.257168999699281309e-01
2.283999999999999986e+01,5.447431714708412392e-02
2.287999999999999901e+01,4.533273737615513277e-02
2.292000000000000171e+01,4.294932701377412315e-02
2.296000000000000085e+01,8.745820206766515004e-02
2.300000000000000000e+01,6.056933642537897650e-02
2.303999999999999915e+01,6.409664542676042631e-02
2.307999999999999829e+01,8.874591273803925096e-02
2.312000000000000099e+01,4.875686942877545393e-02
2.316000000000000014e+01,7.213622233601507672e-02
2.319999999999999929e+01,8.790995579386799708e-02
2.323999999999999844e+01,6.988527830907850791e-02
2.328000000000000114e+01,6.411080719519052229e-02
2.332000000000000028e+01,6.298218363438247425e-02
2.335999999999999943e+01,4.368633116529620913e-02
2.339999999999999858e+01,7.381755042981877346e-02
2.344000000000000128e+01,6.170107119169054855e-02
2.348000000000000043e+01,5.423043952242922322e-02
2.351999999999999957e+01,4.844840477307165577e-02
2.355999999999999872e+01,2.238681924023386630e-02
2.360000000000000142e+01,1.871458520556276706e-02
2.364000000000000057e+01,5.644259972742524112e-02
2.367999999999999972e+01,5.825988145512422250e-02
2.371999999999999886e+01,9.429551730446981972e-02
2.376000000000000156e+01,5.893341253262648904e-02
2.380000000000000071e+01,7.257591515487227252e-02
2.383999999999999986e+01,4.185839741899919503e-02
2.387999999999999901e+01,6.479259525396706410e-02
2.392000000000000171e+01,7.124942175185973448e-02
2.396000000000000085e+01,5.489191123181724058e-02
2.400000000000000000e+01,6.007882349143424394e-02
2.403999999999999915e+01,5.005575756277747673e-02
2.407999999999999829e+01,5.524014873686722282e-02
2.412000000000000099e+01,4.690441924652546946e-02
2.416000000000000014e+01,7.574429457415383926e-02
2.419999999999999929e+01,2.515960612325233992e-02
2.423999999999999844e+01,5.484188915490192939e-02
2.428000000000000114e+01,4.523372441969176344e-02
2.432000000000000028e+01,2.421776093471963640e-02
2.435999999999999943e+01,5.558611993098813708e-02
2.439999999999999858e+01,7.258942953247796148e-02
2.444000000000000128e+01,4.481025445606296592e-02
2.448000000000000043e+01,8.208933324234249373e-02
2.451999999999999957e+01,8.979464500214713596e-02
2.455999999999999872e+01,7.891026359308909999e-02
2.460000000000000142e+01,5.788547659885713570e-02
2.464000000000000057e+01,1.362388827479761935e-02
2.467999999999999972e+01,4.709448520278009670e-02
2.471999999999999886e+01,5.394856577693141197e-02
2.476000000000000156e+01,5.192963391865756950e-02
2.480000000000000071e+01,6.300583733923557916e-02
2.483999999999999986e+01,6.478656395629493747e-02
2.487999999999999901e+01,3.488120168746420419e-02
2.492000000000000171e+01,5.693769757614172700e-02
2.496000000000000085e+01,8.110525490579306718e-02
2.500000000000000000e+01,8.457079721505988967e-02
2.503999999999999915e+01,6.860171764485077650e-02
2.507999999999999829e+01,5.601109266441692269e-02
2.512000000000000099e+01,5.778299613137047319e-02
2.516000000000000014e+01,8.012984927666666479e-03
2.519999999999999929e+01,3.597515902731257542e-02
2.523999999999999844e+01,8.167957661808328274e-02
2.528000000000000114e+01,4.922682367384759866e-02
2.532000000000000028e+01,4.465545932432134213e-02
2.535999999999999943e+01,1.895961561094423875e-02
2.539999999999999858e+01,2.917198370092539961e-02
2.544000000000000128e+01,5.036716523797091921e-02
2.548000000000000043e+01,5.592990434983875075e-02
2.551999999999999957e+01,6.613849123185719381e-02
2.555999999999999872e+01,7.592335334012827175e-02
2.560000000000000142e+01,6.331634297126763344e-02
2.564000000000000057e+01,4.394864215174589667e-02
2.567999999999999972e+01,5.837683126827381691e-02
2.571999999999999886e+01,3.985153844483226709e-02
2.576000000000000156e+01,6.821853131393493253e-02
2.580000000000000071e+01,5.940739846109016620e-02
2.583999999999999986e+01,6.326893661072580111e-02
2.587999999999999901e+01,5.614514054350952521e-02
2.592000000000000171e+01,5.113240601198892205e-02
2.596000000000000085e+01,6.470684380060895413e-02
2.600000000000000000e+01,5.504448039359027128e-02
2.603999999999999915e+01,6.016710990372151763e-02
2.607999999999999829e+01,4.712251077395352566e-02
2.612000000000000099e+01,5.815712090694555997e-02
2.616000000000000014e+01,5.398175306084130459e-02
2.619999999999999929e+01,5.107251802008609676e-02
2.623999999999999844e+01,6.168088277925278667e-02
2.628000000000000114e+01,5.834666270812536443e-02
2.632000000000000028e+01,9.007572577315674234e-02
2.635999999999999943e+01,5.716647853733220624e-02
2.639999999999999858e+01,4.157701052810101883e-02
2.644000000000000128e+01,8.217404461622523915e-02
2.648000000000000043e+01,7.460887919583171490e-02
2.651999999999999957e+01,5.183373583186302175e-02
2.655999999999999872e+01,2.905733217180212283e-02
2.660000000000000142e+01,2.698042278996554480e-02
2.664000000000000057e+01,7.095087042952710754e-02
2.667999999999999972e+01,7.182869112815001844e-02
2.671999999999999886e+01,6.552335710368679955e-02
2.676000000000000156e+01,5.456965463400707816e-02
2.680000000000000071e+01,7.867923534784745931e-02
2.683999999999999986e+01,4.828965090388371434e-02
2.687999999999999901e+01,5.972277971512748862e-02
2.692000000000000171e+01,4.876403617948252278e-02
2.696000000000000085e+01,4.752071310391647874e-02
2.700000000000000000e+01,6.528702683009396379e-02
2.703999999999999915e+01,9.065643912930855530e-02
2.707999999999999829e+01,4.124839610301728882e-02
2.712000000000000099e+01,7.337471798040449966e-02
2.716000000000000014e+01,7.170262930193048445e-02
2.719999999999999929e+01,5.186331209406586790e-02
2.723999999999999844e+01,6.919960000807127976e-02
2.728000000000000114e+01,8.484477018107784707e-02
2.732000000000000028e+01,4.261106021174418390e-02
2.735999999999999943e+01,1.769712956372582191e-02
2.739999999999999858e+01,4.263273542297797702e-02
2.744000000000000128e+01,6.714461669397960020e-02
2.748000000000000043e+01,6.546244626246251752e-02
2.751999999999999957e+01,2.533475714174708571e-02
2.755999999999999872e+01,5.786968100939388765e-02
2.760000000000000142e+01,1.942932901372722287e-02
2.764000000000000057e+01,3.168344230698569297e-02
2.767999999999999972e+01,0.000000000000000000e+00
2.771999999999999886e+01,6.886181971031443694e-02
2.776000000000000156e+01,6.421357729917896717e-02
2.780000000000000071e+01,4.731260772367407164e-02
2.783999999999999986e+01,3.843720117912870216e-02
2.787999999999999901e+01,3.674242891151522500e-02
2.792000000000000171e+01,6.588629614805942281e-02
2.796000000000000085e+01,4.982521467502518120e-02
2.800000000000000000e+01,4.897159069151866412e-02
2.803999999999999915e+01,3.840002584124575097e-02
2.807999999999999829e+01,2.529241457093443085e-02
2.812000000000000099e+01,4.386837158248890756e-02
2.816000000000000014e+01,6.582278348771843091e-02
2.819999999999999929e+01,6.538532317235472291e-02
2.823999999999999844e+01,1.129362659529742352e-02
2.828000000000000114e+01,6.788633718648570681e-02
2.832000000000000028e+01,4.885666381654300144e-02
2.835999999999999943e+01,4.207719731873881680e-02
2.839999999999999858e+01,1.670803803095946213e-02
2.844000000000000128e+01,2.935941274142651533e-02
2.848000000000000043e+01,4.158706296625837989e-02
2.851999999999999957e+01,6.437506256306733954e-02
2.855999999999999872e+01,7.068569128062349161e-02
2.860000000000000142e+01,6.220880663882252803e-02
2.864000000000000057e+01,4.528137432641789889e-02
2.867999999999999972e+01,4.609618584455825452e-02
2.871999999999999886e+01,2.071694578252910798e-02
2.876000000000000156e+01,4.391984922499872490e-02
2.880000000000000071e+01,2.234026841975885261e-02
2.883999999999999986e+01,3.286672034641324042e-02
2.887999999999999901e+01,6.747238180815313957e-02
2.892000000000000171e+01,3.406001818973190820e-02
2.896000000000000085e+01,3.402108045200655240e-02
2.900000000000000000e+01,4.074031272273474086e-02
2.903999999999999915e+01,6.646918199649007319e-02
2.907999999999999829e+01,8.036778861115906336e-02
2.912000000000000099e+01,6.342523551626763623e-02
2.916000000000000014e+01,2.113355964259521630e-02
2.919999999999999929e+01,6.967046521554834393e-02
2.923999999999999844e+01,3.920527188624901849e-02
2.928000000000000114e+01,4.802800577503928831e-02
2.932000000000000028e+01,4.164076199652665122e-02
2.935999999999999943e+01,4.201168826198840162e-02
2.939999999999999858e+01,5.927992967106227029e-02
2.944000000000000128e+01,4.570701140214968733e-02
2.948000000000000043e+01,6.888723409713780332e-02
2.951999999999999957e+01,5.235454516330325520e-02
2.955999999999999872e+01,5.145177825190674903e-02
2.960000000000000142e+01,6.026443206107483241e-02
2.964000000000000057e+01,7.625772032083164009e-02
2.967999999999999972e+01,6.605695709514099179e-02
2.971999999999999886e+01,6.810640087577815582e-02
2.976000000000000156e+01,6.466254774923034521e-02
2.980000000000000071e+01,4.854350327666349246e-02
2.983999999999999986e+01,5.861599032883969135e-02
2.987999999999999901e+01,5.432342852694175411e-02
2.992000000000000171e+01,5.171946427642708927e-02
2.996000000000000085e+01,5.460627699212659142e-02
3.000000000000000000e+01,5.030993530837325062e-02
3.003999999999999915e+01,5.953119379948310086e-02
3.007999999999999829e+01,7.804540867953158045e-02
3.012000000000000099e+01,8.557428976108312491e-02
3.016000000000000014e+01,3.437936222253971941e-02
3.019999999999999929e+01,4.401804532120439512e-02
3.023999999999999844e+01,1.901338940993350241e-02
3.028000000000000114e+01,4.892784283794458788e-02
3.032000000000000028e+01,5.602795987555313911e-02
3.035999999999999943e+01,4.834056372746131647e-02
3.039999999999999858e+01,4.276422955710095647e-02
3.044000000000000128e+01,5.704246128587809467e-02
3.048000000000000043e+01,2.991792396460601217e-02
3.051999999999999957e+01,7.439234906828440762e-03
3.055999999999999872e+01,7.874637808277566708e-02
3.060000000000000142e+01,6.217967053193020066e-02
3.064000000000000057e+01,7.138203020577567337e-02
3.067999999999999972e+01,7.128891365232731259e-02
3.071999999999999886e+01,5.049378264287954221e-02
3.076000000000000156e+01,2.927492737276132448e-02
3.080000000000000071e+01,5.156864326058024917e-02
3.083999999999999986e+01,6.963645548473802738e-02
3.087999999999999901e+01,4.799135621426252329e-02
3.092000000000000171e+01,7.788565131432008404e-02
3.096000000000000085e+01,6.046267610586966712e-02
3.100000000000000000e+01,6.880876815763094234e-02
3.103999999999999915e+01,1.020789987155764217e-01
3.107999999999999829e+01,6.648627564851089522e-02
3.112000000000000099e+01,8.750251951955742569e-02
3.116000000000000014e+01,6.542613689170112545e-02
3.119999999999999929e+01,9.024204049314660248e-02
3.123999999999999844e+01,7.999214080433797447e-02
3.128000000000000114e+01,8.959680709754852534e-02
3.132000000000000028e+01,7.131756455117985172e-02
3.135999999999999943e+01,1.045777164187581820e-01
3.139999999999999858e+01,1.226278908242645072e-01
3.144000000000000128e+01,1.140615495389930290e-01
3.148000000000000043e+01,1.283070249083844150e-01
3.151999999999999957e+01,1.349468816493122336e-01
3.155999999999999872e+01,1.534144811991310364e-01
3.160000000000000142e+01,1.794851797719163033e-01
3.164000000000000057e+01,1.696451463359406886e-01
3.167999999999999972e+01,1.893763596381558278e-01
3.171999999999999886e+01,1.436243344104047581e-01
3.176000000000000156e+01,1.840537827130126480e-01
3.180000000000000071e+01,2.113855754879515048e-01
3.183999999999999986e+01,2.277320346341038526e-01
3.187999999999999901e+01,1.963387591835363266e-01
3.192000000000000171e+01,1.966290523897755715e-01
3.196000000000000085e+01,1.935383708008365788e-01
3.200000000000000000e+01,2.119921127809067662e-01
3.203999999999999915e+01,1.949575871706708263e-01
3.207999999999999829e+01,2.121414165069512303e-01
3.211999999999999744e+01,1.499006828461578733e-01
3.215999999999999659e+01,1.539855969427958715e-01
3.220000000000000284e+01,1.458177843092067494e-01
3.224000000000000199e+01,1.008943109680837807e-01
3.228000000000000114e+01,1.037080527207989850e-01
3.232000000000000028e+01,1.124350360515736502e-01
3.235999999999999943e+01,1.093317570468951699e-01
3.239999999999999858e+01,1.117192552491825669e-01
3.243999999999999773e+01,1.250895675892150505e-01
3.247999999999999687e+01,1.084636493091882398e-01
3.252000000000000313e+01,7.916253995152092160e-02
3.256000000000000227e+01,7.689789114495006184e-02
3.260000000000000142e+01,4.970658427800543622e-02
3.264000000000000057e+01,9.222064024775041002e-02
3.267999999999999972e+01,9.164206986856880677e-02
3.271999999999999886e+01,6.867162771477677841e-02
3.275999999999999801e+01,7.400503926877592675e-02
3.279999999999999716e+01,6.497340225681358383e-02
3.284000000000000341e+01,1.167753761425446152e-01
3.288000000000000256e+01,6.464985312493677638e-02
3.292000000000000171e+01,7.251301225494184710e-02
3.296000000000000085e+01,6.263140780287508591e-02
3.300000000000000000e+01,6.415508192279510691e-02
3.303999999999999915e+01,4.074511789865815081e-01
3.307999999999999829e+01,1.000000000000000000e+00
3.311999999999999744e+01,5.630018697729667343e-01
3.315999999999999659e+01,8.840315017120037311e-02
3.320000000000000284e+01,7.640166591940540652e-02
3.324000000000000199e+01,5.256991941898585263e-02
3.328000000000000114e+01,3.887605838121879764e-02
3.332000000000000028e+01,7.756652070876379756e-02
3.335999999999999943e+01,7.654407178637392950e-02
3.339999999999999858e+01,5.946671684127526059e-02
3.343999999999999773e+01,8.252221828270212001e-02
3.347999999999999687e+01,6.206262907515019966e-02
3.352000000000000313e+01,8.765039756783724045e-02
3.356000000000000227e+01,8.619918619993699460e-02
3.360000000000000142e+01,5.137202929058929529e-02
3.364000000000000057e+01,6.470455198825633691e-02
3.367999999999999972e+01,8.564017391412083458e-02
3.371999999999999886e+01,1.048846787344125120e-01
3.375999999999999801e+01,6.033580274197069410e-02
3.379999999999999716e+01,1.019684004811719918e-01
3.384000000000000341e+01,8.910183375325005095e-02
3.388000000000000256e+01,1.117210152864095141e-01
3.392000000000000171e+01,1.009642513096954825e-01
3.396000000000000085e+01,9.020622776703779433e-02
3.400000000000000000e+01,1.204259894241343914e-01
3.403999999999999915e+01,1.033284810766227219e-01
3.407999999999999829e+01,1.457971906121923733e-01
3.411999999999999744e+01,1.346116644662402329e-01
3.415999999999999659e+01,1.369437389016661677e-01
3.420000000000000284e+01,1.439216619636873584e-01
3.424000000000000199e+01,1.365345366018297368e-01
3.428000000000000114e+01,1.608309801296368413e-01
3.432000000000000028e+01,1.775218053052526890e-01
3.435999999999999943e+01,1.536547905716281470e-01
3.439999999999999858e+01,1.597814872235602257e-01
3.443999999999999773e+01,1.608373518090639720e-01
3.447999999999999687e+01,1.542875980581633888e-01
3.452000000000000313e+01,1.371749753218955425e-01
3.456000000000000227e+01,1.504785283659582085e-01
3.460000000000000142e+01,1.304061359672423204e-01
3.464000000000000057e+01,1.403274549777631386e-01
3.467999999999999972e+01,1.451779419455363762e-01
3.471999999999999886e+01,1.255242354411006955e-01
3.475999999999999801e+01,1.206555227142057235e-01
3.479999999999999716e+01,9.846451096577661655e-02
3.484000000000000341e+01,9.993024496151121927e-02
3.488000000000000256e+01,1.301222972532020405e-01
3.492000000000000171e+01,1.151094015220484462e-01
3.496000000000000085e+01,1.038974257345039454e-01
3.500000000000000000e+01,8.550229604085021751e-02
3.503999999999999915e+01,1.034378434807075864e-01
3.507999999999999829e+01,9.391194683096712459e-02
3.511999999999999744e+01,1.021282946471978592e-01
3.515999999999999659e+01,8.837523530855677378e-02
3.520000000000000284e+01,7.504338090530830729e-02
3.524000000000000199e+01,1.022668474451762510e-01
3.528000000000000114e+01,8.386290161873337368e-02
3.532000000000000028e+01,1.220679231448111995e-01
3.535999999999999943e+01,1.209824979972786291e-01
3.539999999999999858e+01,1.232755284577824878e-01
3.543999999999999773e+01,9.388247107433762839e-02
3.547999999999999687e+01,1.118041647214836620e-01
3.552000000000000313e+01,9.634991301662623742e-02
3.556000000000000227e+01,1.320125917611371102e-01
3.560000000000000142e+01,1.309196101296411785e-01
3.564000000000000057e+01,1.336275485088489479e-01
3.567999999999999972e+01,1.409813356606814394e-01
3.571999999999999886e+01,1.381947183245362532e-01
3.575999999999999801e+01,1.882148889734416297e-01
3.579999999999999716e+01,1.512061381666057747e-01
3.584000000000000341e+01,1.623570671838557022e-01
3.588000000000000256e+01,1.595654123180305639e-01
3.592000000000000171e+01,1.724036801021761045e-01
3.596000000000000085e+01,1.784812584539213765e-01
3.600000000000000000e+01,1.866698993359424408e-01
3.603999999999999915e+01,1.762688481818173725e-01
3.607999999999999829e+01,2.245890863501366630e-01
3.611999999999999744e+01,1.998217276008636134e-01
3.615999999999999659e+01,2.164546186434565811e-01
3.620000000000000284e+01,2.364659653730205868e-01
3.624000000000000199e+01,2.395774776021203090e-01
3.628000000000000114e+01,2.460674455260849214e-01
3.632000000000000028e+01,2.255184338617877982e-01
3.635999999999999943e+01,2.691827484743948284e-01
3.639999999999999858e+01,1.937108488874402235e-01
3.643999999999999773e+01,2.145595683883051441e-01
3.647999999999999687e+01,2.341396354349099818e-01
3.652000000000000313e+01,2.004879314157849424e-01
3.656000000000000227e+01,1.841560076257271750e-01
3.660000000000000142e+01,1.910583653745028532e-01
3.664000000000000057e+01,1.768362448724105640e-01
3.667999999999999972e+01,1.659925801046503724e-01
3.671999999999999886e+01,1.619070861070660561e-01
3.675999999999999801e+01,1.721841217053727557e-01
3.679999999999999716e+01,1.376786738453193437e-01
3.684000000000000341e+01,1.137335761781662485e-01
3.688000000000000256e+01,1.261191558260749412e-01
3.692000000000000171e+01,1.013266108492318907e-01
3.696000000000000085e+01,1.031480624786403344e-01
3.700000000000000000e+01,1.277813313073626056e-01
3.703999999999999915e+01,9.707050722672722065e-02
3.707999999999999829e+01,9.128382224823490543e-02
3.711999999999999744e+01,9.479009435330863764e-02
3.715999999999999659e+01,9.702771407121700553e-02
3.720000000000000284e+01,9.292710885806146348e-02
3.724000000000000199e+01,7.657377741196873255e-02
3.728000000000000114e+01,6.148657986447377682e-02
3.732000000000000028e+01,7.554816523267363082e-02
3.735999999999999943e+01,7.989181065369935220e-02
3.739999999999999858e+01,6.099865600390958625e-02
3.743999999999999773e+01,5.435570912216984574e-02
3.747999999999999687e+01,5.151368243268439340e-02
3.752000000000000313e+01,6.092186351914245790e-02
3.756000000000000227e+01,7.666575107967077418e-02
3.760000000000000142e+01,5.227426342963249761e-02
3.764000000000000057e+01,6.421345316964417738e-02
3.767999999999999972e+01,7.150427554190129376e-02
3.771999999999999886e+01,7.710398120326028559e-02
3.775999999999999801e+01,6.538138813514449144e-02
3.779999999999999716e+01,1.436834863417001118e-02
3.784000000000000341e+01,5.545128456927989752e-02
3.788000000000000256e+01,5.301913028955322627e-02
3.792000000000000171e+01,5.776761127739200169e-02
3.796000000000000085e+01,6.885179877876874965e-02
3.800000000000000000e+01,6.134629443738966181e-02
3.803999999999999915e+01,3.144891884631741824e-02
3.807999999999999829e+01,5.393586709022010067e-02
3.811999999999999744e+01,4.853890716549052325e-02
3.815999999999999659e+01,5.327983318491659459e-02
3.820000000000000284e+01,5.379485626688308014e-02
3.824000000000000199e+01,4.121222445660678579e-02
3.828000000000000114e+01,2.947326226460982371e-02
3.832000000000000028e+01,6.885123079430681414e-02
3.835999999999999943e+01,7.400832549424515849e-02
3.839999999999999858e+01,6.353297904380512950e-02
3.843999999999999773e+01,5.009912281654713140e-02
3.847999999999999687e+01,6.496912086146532095e-02
3.852000000000000313e+01,3.716895751266929837e-02
3.856000000000000227e+01,2.330885955838064849e-02
3.860000000000000142e+01,5.380626228961928048e-02
3.864000000000000057e+01,6.317918696732731376e-02
3.867999999999999972e+01,3.199427216204369512e-02
3.871999999999999886e+01,4.094221426425628113e-02
3.875999999999999801e+01,5.876064923286448277e-02
3.879999999999999716e+01,3.686617348829557272e-02
3.884000000000000341e+01,6.397630662179284999e-02
3.888000000000000256e+01,4.714888526013515102e-02
3.892000000000000171e+01,3.454484861180160543e-02
3.896000000000000085e+01,3.926059242934006738e-02
3.900000000000000000e+01,4.524247031518633527e-02
3.903999999999999915e+01,2.841001267102093164e-02
3.907999999999999829e+01,3.776908746329742800e-02
3.911999999999999744e+01,3.107325679724967996e-02
3.915999999999999659e+01,4.507692164870462370e-02
3.920000000000000284e+01,2.147999772138558389e-02
3.924000000000000199e+01,2.238474873034682067e-02
3.928000000000000114e+01,3.173752827802422266e-02
3.932000000000000028e+01,5.714269519013277093e-02
3.935999999999999943e+01,1.030519426231000721e-02
3.939999999999999858e+01,2.556869801640872936e-02
3.943999999999999773e+01,3.407151268147412537e-02
3.947999999999999687e+01,2.440710002880051854e-02
3.952000000000000313e+01,3.206246789725324814e-02
3.956000000000000227e+01,3.929411237331969370e-02
3.960000000000000142e+01,2.413388575361624308e-02
3.964000000000000057e+01,1.150718640232983349e-02
3.967999999999999972e+01,2.000244699884101349e-02
3.971999999999999886e+01,7.961463845518233773e-02
3.975999999999999801e+01,3.572179806601252089e-02
3.979999999999999716e+01,3.872124475469487098e-02
3.984000000000000341e+01,3.876218180469562236e-02
3.988000000000000256e+01,4.682868307362676036e-02
3.992000000000000171e+01,2.954606262545183756e-02
3.996000000000000085e+01,4.098976097446994232e-02
4.000000000000000000e+01,1.821258565554595768e-02
4.003999999999999915e+01,3.218855234246385116e-02
4.007999999999999829e+01,2.926468490780528495e-02
4.011999999999999744e+01,4.830770622233270667e-02
4.015999999999999659e+01,4.622624963330597414e-02
4.020000000000000284e+01,3.231453148238849771e-02
4.024000000000000199e+01,5.050884718818840491e-02
4.028000000000000114e+01,2.772285918987926756e-02
4.032000000000000028e+01,3.408565440327098600e-02
4.035999999999999943e+01,3.622254689232739383e-02
4.039999999999999858e+01,4.469514613567330402e-02
4.043999999999999773e+01,6.203823841117808019e-02
4.047999999999999687e+01,4.685031458205039107e-02
4.052000000000000313e+01,5.658653019448605520e-02
4.056000000000000227e+01,4.266348166891206772e-02
4.060000000000000142e+01,3.845585494925846115e-02
4.064000000000000057e+01,7.057890591566076677e-02
4.067999999999999972e+01,3.595132609920697470e-02
4.071999999999999886e+01,6.933925240073712803e-02
4.075999999999999801e+01,3.301929727439482931e-02
4.079999999999999716e+01,4.950613063039321915e-02
4.084000000000000341e+01,5.078298745575211826e-02
4.088000000000000256e+01,2.924550893264966575e-02
4.092000000000000171e+01,6.135974766170253225e-02
4.096000000000000085e+01,4.362193079501170551e-02
4.100000000000000000e+01,3.179735636282432498e-02
4.103999999999999915e+01,3.898242011768834892e-02
4.107999999999999829e+01,6.390972892658894344e-02
4.111999999999999744e+01,4.785673411426224350e-02
4.115999999999999659e+01,3.813944613121342947e-02
4.120000000000000284e+01,6.390790713150068525e-02
4.124000000000000199e+01,5.756781648113065003e-02
4.128000000000000114e+01,2.841339052176678967e-02
4.132000000000000028e+01,4.150414362137359869e-02
4.135999999999999943e+01,5.205885161126196786e-02
4.139999999999999858e+01,3.684197365108696220e-02
4.143999999999999773e+01,6.893984730956823070e-02
4.147999999999999687e+01,4.231391346488363320e-02
4.152000000000000313e+01,5.920055183586470787e-02
4.156000000000000227e+01,5.876489185231172779e-02
4.160000000000000142e+01,7.057944004727062515e-02
4.164000000000000057e+01,5.113036538901383210e-02
4.167999999999999972e+01,6.209746721360870358e-02
4.171999999999999886e+01,7.517563213286451718e-02
4.175999999999999801e+01,5.361045917884788709e-02
4.179999999999999716e+01,6.499624899344597084e-02
4.184000000000000341e+01,5.356770355430465896e-02
4.188000000000000256e+01,4.509514998358560289e-02
4.192000000000000171e+01,6.154673599256598598e-02
4.196000000000000085e+01,4.969194983281465666e-02
4.200000000000000000e+01,4.924244313306820608e-02
4.203999999999999915e+01,7.033736099296446220e-02
4.207999999999999829e+01,7.073026551773765880e-02
4.211999999999999744e+01,3.310011717286213961e-02
4.215999999999999659e+01,6.813258325691179396e-02
4.220000000000000284e+01,6.049488831034789682e-02
4.224000000000000199e+01,6.552986598443086286e-02
4.228000000000000114e+01,7.225344242944209405e-02
4.232000000000000028e+01,6.461197124781747902e-02
4.235999999999999943e+01,8.062724655234521087e-02
4.239999999999999858e+01,6.157671966776132738e-02
4.243999999999999773e+01,7.758947750987565950e-02
4.247999999999999687e+01,8.134950963607698315e-02
4.252000000000000313e+01,6.187274219664642971e-02
4.256000000000000227e+01,9.309044151827809699e-02
4.260000000000000142e+01,7.656840730091811487e-02
4.264000000000000057e+01,9.848937286188702567e-02
4.267999999999999972e+01,7.478292678669365423e-02
4.271999999999999886e+01,1.034608050042978844e-01
4.275999999999999801e+01,1.270678519763972780e-01
4.279999999999999716e+01,1.164540255568268651e-01
4.284000000000000341e+01,1.185128718171044315e-01
4.288000000000000256e+01,1.243726388024471441e-01
4.292000000000000171e+01,2.020500915337289649e-01
4.296000000000000085e+01,1.960783385476342622e-01
4.300000000000000000e+01,2.412235167450030027e-01
4.303999999999999915e+01,2.432760696156527624e-01
4.307999999999999829e+01,2.753223347283033084e-01
4.311999999999999744e+01,3.377847764658882257e-01
4.315999999999999659e+01,3.698285242582083354e-01
4.320000000000000284e+01,4.441174512949958575e-01
4.324000000000000199e+01,5.395283386308414864e-01
4.328000000000000114e+01,6.205741784347731382e-01
4.332000000000000028e+01,7.088006540390811017e-01
4.335999999999999943e+01,7.201373540292743680e-01
4.339999999999999858e+01,6.228994499852644751e-01
4.343999999999999773e+01,5.788907990630679512e-01
4.347999999999999687e+01,5.044634542271806410e-01
4.352000000000000313e+01,4.427087821382356680e-01
4.356000000000000227e+01,3.720810994718370401e-01
4.360000000000000142e+01,3.407413454364634497e-01
4.364000000000000057e+01,2.671538948915463951e-01
4.367999999999999972e+01,2.201804416159340860e-01
4.371999999999999886e+01,1.926390911707923370e-01
4.375999999999999801e+01,1.857972366970291056e-01
4.379999999999999716e+01,1.637454059846854548e-01
4.384000000000000341e+01,1.573234987037684385e-01
4.388000000000000256e+01,1.589271560364563241e-01
4.392000000000000171e+01,1.241976181930478235e-01
4.396000000000000085e+01,9.707118059215071038e-02
4.400000000000000000e+01,9.655874029213241949e-02
4.403999999999999915e+01,1.133660809592229590e-01
4.407999999999999829e+01,9.510761960296523765e-02
4.411999999999999744e+01,8.233993661007048270e-02
4.415999999999999659e+01,9.660871531282852476e-02
4.420000000000000284e+01,8.088126455192427844e-02
4.424000000000000199e+01,9.092288235760498383e-02
4.428000000000000114e+01,7.477045011840109667e-02
4.432000000000000028e+01,8.016244266380445627e-02
4.435999999999999943e+01,5.936038517221651351e-02
4.439999999999999858e+01,6.770711129489770386e-02
4.443999999999999773e+01,7.140547071682457059e-02
4.447999999999999687e+01,5.778153207233013150e-02
4.452000000000000313e+01,5.302808686256282877e-02
4.456000000000000227e+01,5.630020633349538256e-02
4.460000000000000142e+01,7.731457120577826803e-02
4.464000000000000057e+01,5.312398901427645842e-02
4.467999999999999972e+01,8.005033817200161994e-02
4.471999999999999886e+01,6.388406216877104415e-02
4.475999999999999801e+01,5.151870707610274602e-02
4.479999999999999716e+01,5.309341799363435921e-02
4.484000000000000341e+01,6.015890734557033381e-02
4.488000000000000256e+01,4.187527546979692705e-02
4.492000000000000171e+01,4.555853281681916667e-02
4.496000000000000085e+01,7.078621501159670926e-02
4.500000000000000000e+01,7.319956226442796143e-02
4.503999999999999915e+01,5.406596771622096398e-02
4.507999999999999829e+01,7.084058691317189627e-02
4.511999999999999744e+01,5.761897673723561514e-02
4.515999999999999659e+01,4.186132182652214234e-02
4.520000000000000284e+01,4.088866172345032718e-02
4.524000000000000199e+01,6.526260590664516303e-02
4.528000000000000114e+01,4.316420995224187762e-02
4.532000000000000028e+01,5.781895652465115359e-02
4.535999999999999943e+01,4.585718877975064611e-02
4.539999999999999858e+01,4.403330769336726014e-02
4.543999999999999773e+01,7.178067470285552643e-02
4.547999999999999687e+01,7.629124243877123679e-02
4.552000000000000313e+01,5.545268901012581630e-02
4.556000000000000227e+01,4.813173728768136567e-02
4.560000000000000142e+01,3.869720525286102913e-02
4.564000000000000057e+01,6.010131447060748644e-02
4.567999999999999972e+01,4.305990679097861096e-02
4.571999999999999886e+01,5.516728285586151165e-02
4.575999999999999801e+01,5.375454039150313890e-02
4.579999999999999716e+01,6.121229148816785537e-02
4.584000000000000341e+01,5.430499530551056997e-02
4.588000000000000256e+01,3.092032995254240940e-02
4.592000000000000171e+01,4.344387842761362334e-02
4.596000000000000085e+01,5.427631100481682819e-02
4.600000000000000000e+01,7.440170154176410644e-02
4.603999999999999915e+01,4.171778633129454711e-02
4.607999999999999829e+01,5.254644378641980945e-02
4.611999999999999744e+01,7.266805921312928518e-02
4.615999999999999659e+01,4.251515517818484774e-02
4.620000000000000284e+01,3.306174735537072834e-02
4.624000000000000199e+01,5.951655339216994217e-02
4.628000000000000114e+01,3.865409063206551310e-02
4.632000000000000028e+01,7.820277572072138750e-02
4.635999999999999943e+01,6.874433450441856663e-02
4.639999999999999858e+01,5.928463494961041386e-02
4.643999999999999773e+01,3.503742379569435572e-02
4.647999999999999687e+01,7.120136050632552838e-02
4.652000000000000313e+01,5.666831341183651422e-02
4.656000000000000227e+01,6.621447759689533252e-02
4.660000000000000142e+01,6.224052333559463440e-02
4.664000000000000057e+01,4.770370128479092114e-02
4.667999999999999972e+01,6.020334117828525511e-02
4.671999999999999886e+01,3.932703682486535929e-02
4.675999999999999801e+01,8.055173787956831921e-02
4.679999999999999716e+01,8.290845776841797299e-02
4.684000000000000341e+01,5.653634159105194040e-02
4.688000000000000256e+01,5.762315175670475187e-02
4.692000000000000171e+01,6.335581180401840540e-02
4.696000000000000085e+01,5.514588906150606068e-02
4.700000000000000000e+01,6.256589006221330296e-02
4.703999999999999915e+01,5.097373573314257361e-02
4.707999999999999829e+01,4.571728881746811579e-02
4.711999999999999744e+01,7.298934081633849658e-02
4.715999999999999659e+01,6.942023488563153766e-02
4.720000000000000284e+01,7.598901579104541670e-02
4.724000000000000199e+01,3.988763616313585614e-02
4.728000000000000114e+01,7.137929892148957289e-02
4.732000000000000028e+01,8.385880637769266288e-02
4.735999999999999943e+01,6.760947781898768438e-02
4.739999999999999858e+01,6.994732369587969290e-02
4.743999999999999773e+01,5.454040741942259990e-02
4.747999999999999687e+01,4.884891362772619816e-02
4.752000000000000313e+01,5.456269984068591594e-02
4.756000000000000227e+01,1.105484889290639233e-01
4.760000000000000142e+01,8.288507275788818685e-02
4.764000000000000057e+01,6.873925849814432887e-02
4.767999999999999972e+01,5.163493537328123217e-02
4.771999999999999886e+01,7.550839880190669817e-02
4.775999999999999801e+01,7.952477821382129830e-02
4.779999999999999716e+01,5.438985727525519343e-02
4.784000000000000341e+01,6.347329283822392143e-02
4.788000000000000256e+01,7.297793458770393538e-02
4.792000000000000171e+01,5.417620475651784701e-02
4.796000000000000085e+01,6.241093699592551586e-02
4.800000000000000000e+01,6.768716040178797411e-02
4.803999999999999915e+01,4.930412040768272774e-02
4.807999999999999829e+01,5.584522060107596775e-02
4.811999999999999744e+01,7.336913647933937521e-02
4.815999999999999659e+01,6.638886021150099126e-02
4.820000000000000284e+01,6.743414898351642039e-02
4.824000000000000199e+01,4.693249627023347859e-02
4.828000000000000114e+01,5.769194944898970584e-02
4.832000000000000028e+01,7.140739513159440055e-02
4.835999999999999943e+01,8.005201012123881743e-02
4.839999999999999858e+01,8.447072317984417877e-02
4.843999999999999773e+01,3.608013072783752134e-02
4.847999999999999687e+01,6.668911901314901469e-02
4.852000000000000313e+01,6.011998381826576948e-02
4.856000000000000227e+01,6.030902056179559406e-02
4.860000000000000142e+01,6.176419232085254840e-02
4.864000000000000057e+01,6.110578406748654740e-02
4.867999999999999972e+01,5.833379580564409389e-02
4.871999999999999886e+01,7.372651773065416747e-02
4.875999999999999801e+01,5.151865182016287376e-02
4.879999999999999716e+01,5.676971244213423196e-02
4.884000000000000341e+01,5.821733555546779876e-02
4.888000000000000256e+01,5.543905678512310586e-02
4.892000000000000171e+01,6.406605815757067390e-02
4.896000000000000085e+01,4.818886746285142020e-02
4.900000000000000000e+01,5.765828142539301121e-02
4.903999999999999915e+01,5.740975659321075758e-02
4.907999999999999829e+01,6.180708185581366282e-02
4.911999999999999744e+01,5.859879022652180608e-02
4.915999999999999659e+01,6.383852811079278322e-02
4.920000000000000284e+01,5.640307656321691399e-02
4.924000000000000199e+01,5.192361761026476757e-02
4.928000000000000114e+01,5.673711694068989814e-02
4.932000000000000028e+01,6.957618142147767304e-02
4.935999999999999943e+01,5.453133884266915532e-02
4.939999999999999858e+01,6.356570782362752636e-02
4.943999999999999773e+01,5.823502988047121048e-02
4.947999999999999687e+01,6.599948965130997269e-02
4.952000000000000313e+01,7.376269139148979026e-02
4.956000000000000227e+01,6.040141615560100374e-02
4.960000000000000142e+01,7.830124694199404323e-02
4.964000000000000057e+01,6.958456383337942308e-02
4.967999999999999972e+01,5.157240637217595097e-02
4.971999999999999886e+01,6.313149742914611617e-02
4.975999999999999801e+01,8.018136740597042733e-02
4.979999999999999716e+01,8.920315617900750893e-02
4.984000000000000341e+01,9.357657878410118035e-02
4.988000000000000256e+01,7.978277509761011466e-02
4.992000000000000171e+01,7.612685851561856731e-02
4.996000000000000085e+01,8.134143590511191957e-02
5.000000000000000000e+01,1.055656523657278884e-01
5.003999999999999915e+01,1.027508905918165238e-01
5.007999999999999829e+01,8.641601071491253339e-02
5.011999999999999744e+01,1.326046009566454464e-01
5.015999999999999659e+01,1.285186721313993086e-01
5.020000000000000284e+01,1.176720552787948182e-01
5.024000000000000199e+01,1.190756474571995349e-01
5.028000000000000114e+01,1.504729525880192653e-01
5.032000000000000028e+01,1.311732742886599357e-01
5.035999999999999943e+01,1.566535622141586592e-01
5.039999999999999858e+01,2.108601699669513108e-01
5.043999999999999773e+01,2.033857204477398095e-01
5.047999999999999687e+01,2.001346567824624223e-01
5.052000000000000313e+01,1.909678338793750207e-01
5.056000000000000227e+01,1.682808929206560111e-01
5.060000000000000142e+01,1.650260554712478789e-01
5.064000000000000057e+01,1.723315695763679434e-01
5.067999999999999972e+01,1.475285329622629815e-01
5.071999999999999886e+01,1.299061328786826897e-01
5.075999999999999801e+01,1.186194405715994132e-01
5.079999999999999716e+01,1.195829573507796451e-01
5.084000000000000341e+01,1.226575381244793123e-01
5.088000000000000256e+01,1.058750351893143760e-01
5.092000000000000171e+01,1.051449207631373339e-01
5.096000000000000085e+01,1.124403716491396699e-01
5.100000000000000000e+01,9.058452250040084641e-02
5.103999999999999915e+01,9.956731513703973024e-02
5.107999999999999829e+01,9.967709793821311060e-02
5.111999999999999744e+01,7.232543823243407777e-02
5.115999999999999659e+01,6.313848895425927532e-02
5.120000000000000284e+01,6.831407069675092536e-02
5.124000000000000199e+01,6.377171386159000144e-02
5.128000000000000114e+01,6.556506485423380104e-02
5.132000000000000028e+01,5.003611845534997743e-02
5.135999999999999943e+01,5.478420439873969705e-02
5.139999999999999858e+01,6.079842563392882232e-02
5.143999999999999773e+01,5.160267138436623602e-02
5.147999999999999687e+01,6.733105765777586127e-02
5.152000000000000313e+01,5.010596453686786550e-02
5.156000000000000227e+01,3.625932861848201599e-02
5.160000000000000142e+01,5.705351395161246952e-02
5.164000000000000057e+01,6.221525944073777459e-02
5.167999999999999972e+01,4.751992129993348746e-02
5.171999999999999886e+01,4.676464985211654241e-02
5.175999999999999801e+01,5.487987255338806075e-02
5.179999999999999716e+01,4.271554725758310023e-02
5.184000000000000341e+01,4.575868180356713194e-02
5.188000000000000256e+01,3.612662718213631441e-02
5.192000000000000171e+01,4.846146247418186420e-02
5.196000000000000085e+01,5.614793180746169288e-02
5.200000000000000000e+01,5.622878453301265178e-02
5.203999999999999915e+01,6.137795202439510350e-02
5.207999999999999829e+01,2.216710194406210782e-02
5.211999999999999744e+01,4.759204407463913516e-02
5.215999999999999659e+01,5.780701079150580429e-02
5.220000000000000284e+01,6.083882529936440742e-02
5.224000000000000199e+01,4.274616309558660482e-02
5.228000000000000114e+01,6.436389475826519158e-02
5.232000000000000028e+01,3.655203632506321548e-02
5.235999999999999943e+01,3.239692536470040879e-02
5.239999999999999858e+01,5.358841939707209567e-02
5.243999999999999773e+01,4.351629164184987048e-02
5.247999999999999687e+01,5.541105385535857047e-02
5.252000000000000313e+01,5.336323382763917544e-02
5.256000000000000227e+01,4.497719038440656930e-02
5.260000000000000142e+01,5.602325064782236186e-02
5.264000000000000057e+01,4.636729861805631570e-02
5.267999999999999972e+01,5.234127089194792054e-02
5.271999999999999886e+01,4.141541029143522290e-02
5.275999999999999801e+01,4.527454524449951029e-02
5.279999999999999716e+01,6.941071268192025578e-02
5.284000000000000341e+01,5.214411327552349179e-02
5.288000000000000256e+01,3.487625616999446426e-02
5.292000000000000171e+01,6.830286684773530237e-02
5.296000000000000085e+01,5.652453128261476084e-02
5.300000000000000000e+01,4.094275861931804400e-02
5.303999999999999915e+01,1.437565441901098723e-02
5.307999999999999829e+01,4.146026867067027777e-02
5.311999999999999744e+01,2.671965172715242212e-02
5.315999999999999659e+01,3.859303298831853052e-02
5.320000000000000284e+01,4.666297717104218867e-02
5.324000000000000199e+01,4.205773232054062227e-02
5.328000000000000114e+01,6.617880758149888298e-02
5.332000000000000028e+01,3.622318467638704909e-02
5.335999999999999943e+01,5.442724332403617304e-02
5.339999999999999858e+01,5.826625543829853926e-02
5.343999999999999773e+01,5.154240043400507704e-02
5.347999999999999687e+01,3.129842766219246425e-02
5.352000000000000313e+01,2.879670117185485073e-02
5.356000000000000227e+01,4.910679351478469679e-02
5.360000000000000142e+01,4.575762300634453328e-02
5.364000000000000057e+01,4.663183866363160290e-02
5.367999999999999972e+01,4.454754604781153982e-02
5.371999999999999886e+01,6.358521476509736148e-02
5.375999999999999801e+01,4.206504548731525989e-02
5.379999999999999716e+01,4.504655258242926813e-02
5.384000000000000341e+01,4.253476514630054328e-02
5.388000000000000256e+01,5.269565147932186999e-02
5.392000000000000171e+01,3.243784492875338710e-02
5.396000000000000085e+01,4.977811051546914001e-02
5.400000000000000000e+01,5.148593649103782449e-02
5.403999999999999915e+01,5.995193494572403914e-02
5.407999999999999829e+01,2.912748857387766760e-02
5.411999999999999744e+01,4.435040193484508786e-02
5.415999999999999659e+01,5.027784138525922403e-02
5.420000000000000284e+01,1.944962229490395864e-02
5.424000000000000199e+01,2.452961785351167809e-02
5.428000000000000114e+01,5.706854048528640921e-02
5.432000000000000028e+01,5.961123465192580406e-02
5.435999999999999943e+01,5.328091930673309329e-02
5.439999999999999858e+01,3.258555752682217033e-02
5.443999999999999773e+01,5.075566106851780307e-02
5.447999999999999687e+01,6.301000576313124657e-02
5.452000000000000313e+01,5.371740959208585325e-02
5.456000000000000227e+01,5.456270098336248042e-02
5.460000000000000142e+01,3.555090903282211862e-02
5.464000000000000057e+01,5.244733177071227853e-02
5.467999999999999972e+01,4.695188490075598992e-02
5.471999999999999886e+01,4.821461057701192238e-02
5.475999999999999801e+01,5.285579377152976877e-02
5.479999999999999716e+01,6.172036324623046688e-02
5.484000000000000341e+01,4.903799188684612731e-02
5.488000000000000256e+01,4.987322315325502103e-02
5.492000000000000171e+01,5.493184071168705218e-02
5.496000000000000085e+01,4.309062561673258213e-02
5.500000000000000000e+01,5.279383636016692777e-02
5.503999999999999915e+01,5.277910890088964579e-02
5.507999999999999829e+01,4.220151448487290818e-02
5.511999999999999744e+01,6.077270474085354202e-02
5.515999999999999659e+01,7.089334994292412206e-02
5.520000000000000284e+01,6.580402003123721200e-02
5.524000000000000199e+01,6.451561206416023264e-02
5.528000000000000114e+01,5.477665905501350602e-02
5.532000000000000028e+01,4.123426917660186208e-02
5.535999999999999943e+01,4.670151889817701629e-02
5.539999999999999858e+01,6.653130005482722764e-02
5.543999999999999773e+01,6.354674729963243063e-02
5.547999999999999687e+01,6.309572337576657697e-02
5.552000000000000313e+01,4.996951064364004574e-02
5.556000000000000227e+01,6.050004570009257648e-02
5.560000000000000142e+01,6.046771385111335967e-02
5.564000000000000057e+01,5.029497947963641746e-02
5.567999999999999972e+01,6.251159977161752090e-02
5.571999999999999886e+01,7.134724761278816996e-02
5.575999999999999801e+01,5.905841908963617437e-02
5.579999999999999716e+01,5.479515635621987069e-02
5.584000000000000341e+01,4.841831432079510278e-02
5.588000000000000256e+01,5.682646814679349206e-02
5.592000000000000171e+01,5.593914823589561658e-02
5.596000000000000085e+01,5.843028596166219973e-02
5.600000000000000000e+01,7.739627707664063772e-02
5.603999999999999915e+01,7.143561244403949517e-02
5.607999999999999829e+01,6.589615480703310546e-02
5.611999999999999744e+01,7.683155057107880770e-02
5.615999999999999659e+01,8.565336706468995587e-02
5.620000000000000284e+01,8.053260168017387088e-02
5.624000000000000199e+01,8.892943905564026918e-02
5.628000000000000114e+01,6.564019064341349019e-02
5.632000000000000028e+01,7.318958453753489357e-02
5.635999999999999943e+01,7.947032793892987168e-02
5.639999999999999858e+01,9.800128097913290981e-02
5.643999999999999773e+01,7.681932504667438044e-02
5.647999999999999687e+01,1.084441591436817454e-01
5.652000000000000313e+01,1.244365538781871672e-01
5.656000000000000227e+01,1.129675066424978558e-01
5.660000000000000142e+01,1.154385265812990502e-01
5.664000000000000057e+01,9.889739213754149272e-02
5.667999999999999972e+01,1.060130055928718701e-01
5.671999999999999886e+01,1.262237574765586179e-01
5.675999999999999801e+01,8.771070336473708873e-02
5.679999999999999716e+01,9.735733114509693975e-02
5.684000000000000341e+01,1.382650656620998397e-01
5.688000000000000256e+01,1.335453899440357528e-01
5.692000000000000171e+01,1.140382036609113720e-01
5.696000000000000085e+01,8.312322184857061369e-02
5.700000000000000000e+01,9.234109874738963275e-02
5.703999999999999915e+01,7.114028307046502131e-02
5.707999999999999829e+01,9.302957676550346888e-02
5.711999999999999744e+01,8.238785599775620694e-02
5.715999999999999659e+01,7.512459298507585814e-02
5.720000000000000284e+01,9.151807792279083309e-02
5.724000000000000199e+01,6.946604710374064406e-02
5.728000000000000114e+01,6.557872731614690365e-02
5.732000000000000028e+01,6.253507902548401109e-02
5.735999999999999943e+01,6.202495975164733222e-02
5.739999999999999858e+01,4.714979433909872314e-02
5.743999999999999773e+01,7.282995206011115552e-02
5.747999999999999687e+01,7.569577607056238167e-02
5.752000000000000313e+01,7.222337715489732246e-02
5.756000000000000227e+01,4.382432264162889474e-02
5.760000000000000142e+01,5.767044879365704896e-02
5.764000000000000057e+01,8.165446281190698319e-02
5.767999999999999972e+01,6.803788987478018302e-02
5.771999999999999886e+01,8.230270872922780534e-02
5.775999999999999801e+01,7.333072952175441472e-02
5.779999999999999716e+01,6.309009996363748596e-02
5.784000000000000341e+01,6.932432397628275622e-02
5.788000000000000256e+01,5.274421431783440917e-02
5.792000000000000171e+01,6.700274712360435037e-02
5.796000000000000085e+01,5.126505182339281819e-02
5.800000000000000000e+01,7.523775095402271407e-02
5.803999999999999915e+01,5.823014813289938835e-02
5.807999999999999829e+01,5.178289760039933576e-02
5.811999999999999744e+01,4.491192550680369461e-02
5.815999999999999659e+01,6.887959590110677432e-02
5.820000000000000284e+01,4.933217808552095573e-02
5.824000000000000199e+01,4.456975636421639519e-02
5.828000000000000114e+01,6.515394021581817630e-02
5.832000000000000028e+01,5.151725220708813779e-02
5.835999999999999943e+01,6.618442043206762548e-02
5.839999999999999858e+01,5.254521811042857371e-02
5.843999999999999773e+01,6.045044196659860036e-02
5.847999999999999687e+01,4.047175966303077910e-02
5.852000000000000313e+01,5.302157739883068405e-02
5.856000000000000227e+01,5.923317231112964348e-02
5.860000000000000142e+01,7.009061825753978847e-02
5.864000000000000057e+01,5.475401557594729296e-02
5.867999999999999972e+01,6.265169661179284533e-02
5.871999999999999886e+01,5.153722347031072792e-02
5.875999999999999801e+01,5.140556706353339306e-02
5.879999999999999716e+01,5.042772478376821715e-02
5.884000000000000341e+01,5.874284173065294490e-02
5.888000000000000256e+01,4.086391007321581864e-02
5.892000000000000171e+01,4.410694026196139428e-02
5.896000000000000085e+01,4.777117773046758720e-02
5.900000000000000000e+01,5.396894437761672048e-02
5.903999999999999915e+01,5.720820328052271531e-02
5.907999999999999829e+01,6.551577764388784308e-02
5.911999999999999744e+01,5.607859100635412958e-02
5.915999999999999659e+01,5.128725545818577786e-02
5.920000000000000284e+01,6.339323799395631120e-02
5.924000000000000199e+01,5.437474450877124305e-02
5.928000000000000114e+01,5.380428153567591576e-02
5.932000000000000028e+01,4.393834516115789623e-02
5.935999999999999943e+01,6.491105139294095494e-02
5.939999999999999858e+01,5.546506528183856727e-02
5.943999999999999773e+01,4.432796460292195290e-02
5.947999999999999687e+01,6.529689967910798365e-02
5.952000000000000313e+01,7.232325320474673747e-02
5.956000000000000227e+01,5.400048695113239539e-02
5.960000000000000142e+01,4.835039503105325459e-02
5.964000000000000057e+01,5.157079803757185638e-02
5.967999999999999972e+01,6.366169597463476604e-02
5.971999999999999886e+01,5.420565355911589195e-02
5.975999999999999801e+01,3.967878157545981499e-02
5.979999999999999716e+01,5.894780289442884402e-02
5.984000000000000341e+01,7.103367275821857729e-02
5.988000000000000256e+01,5.988274476926499362e-02
5.992000000000000171e+01,6.267188428238179565e-02
5.996000000000000085e+01,4.602640536153276146e-02
