2.003999999999999915e+01,8.915884015601935331e-02
2.007999999999999829e+01,8.419552814216417491e-02
2.012000000000000099e+01,8.633839172402443807e-02
2.016000000000000014e+01,7.462304867936801756e-02
2.019999999999999929e+01,9.239957431825052137e-02
2.023999999999999844e+01,6.860226867228599867e-02
2.028000000000000114e+01,9.099726888322418050e-02
2.032000000000000028e+01,1.094832561672380300e-01
2.035999999999999943e+01,1.165983310989270466e-01
2.039999999999999858e+01,4.660672112970883074e-02
2.044000000000000128e+01,6.367018975184464413e-02
2.048000000000000043e+01,4.910901871337397528e-02
2.051999999999999957e+01,6.226306558376212136e-02
2.055999999999999872e+01,6.475685190275026759e-02
2.060000000000000142e+01,9.461052556059082463e-02
2.064000000000000057e+01,8.964159895523704513e-02
2.067999999999999972e+01,7.543372266406798976e-02
2.071999999999999886e+01,1.056414983420917858e-01
2.076000000000000156e+01,6.833644913576560065e-02
2.080000000000000071e+01,7.189376487674443983e-02
2.083999999999999986e+01,6.123752785605216659e-02
2.087999999999999901e+01,6.728131607087027566e-02
2.092000000000000171e+01,8.433987256906610996e-02
2.096000000000000085e+01,7.794633233156929297e-02
2.100000000000000000e+01,8.647617174328603440e-02
2.103999999999999915e+01,7.333055481722457192e-02
2.107999999999999829e+01,5.023532083927550324e-02
2.112000000000000099e+01,5.521061769969184269e-02
2.116000000000000014e+01,5.983016478851343328e-02
2.119999999999999929e+01,3.602300999043359098e-02
2.123999999999999844e+01,6.160609259690214695e-02
2.128000000000000114e+01,5.201122984269911098e-02
2.132000000000000028e+01,5.378645348976231200e-02
2.135999999999999943e+01,5.698256465011593275e-02
2.139999999999999858e+01,4.134583809083153955e-02
2.144000000000000128e+01,6.479481740276039903e-02
2.148000000000000043e+01,8.362409670584002030e-02
2.151999999999999957e+01,7.793527926179527610e-02
2.155999999999999872e+01,8.255055650899705000e-02
2.160000000000000142e+01,6.584569138560392165e-02
2.164000000000000057e+01,6.584083178186780905e-02
2.167999999999999972e+01,8.360196214407365767e-02
2.171999999999999886e+01,4.628674003056781200e-02
2.176000000000000156e+01,6.866626817676899086e-02
2.180000000000000071e+01,6.972564876399228728e-02
2.183999999999999986e+01,5.159685172248264923e-02
2.187999999999999901e+01,6.331520827675277130e-02
2.192000000000000171e+01,6.188596953604699746e-02
2.196000000000000085e+01,8.142066994942961933e-02
2.200000000000000000e+01,5.902616492554627753e-02
2.203999999999999915e+01,5.830625396970496449e-02
2.207999999999999829e+01,3.591085969649730758e-02
2.212000000000000099e+01,7.534217731182937805e-02
2.216000000000000014e+01,3.198150845403188725e-02
2.219999999999999929e+01,8.420375640150808139e-02
2.223999999999999844e+01,6.962379805991132653e-02
2.228000000000000114e+01,5.895200282762066285e-02
2.232000000000000028e+01,6.675683794775490176e-02
2.235999999999999943e+01,7.598253463926731011e-02
2.239999999999999858e+01,5.855814078685171731e-02
2.244000000000000128e+01,7.702147041185494758e-02
2.248000000000000043e+01,8.411383268767959331e-02
2.251999999999999957e+01,4.927697603644396601e-02
2.255999999999999872e+01,7.377952039673228712e-02
2.260000000000000142e+01,4.249503246311878146e-02
2.264000000000000057e+01,4.496629185062104433e-02
2.267999999999999972e+01,6.840147171403457294e-02
2.271999999999999886e+01,9.290217531508428161e-02
2.276000000000000156e+01,8.329088064539307001e-02
2.280000000000000071e+01,8.433897699363090972e-02
2.283999999999999986e+01,1.070616466563810432e-01
2.287999999999999901e+01,3.313449987633663996e-02
2.292000000000000171e+01,6.367346358972801601e-02
2.296000000000000085e+01,3.060815878775132587e-02
2.300000000000000000e+01,3.947114734483348625e-02
2.303999999999999915e+01,3.980578198249411226e-02
2.307999999999999829e+01,7.780476596801798317e-02
2.312000000000000099e+01,5.824006169657819365e-02
2.316000000000000014e+01,6.603517835269595571e-02
2.319999999999999929e+01,8.804296059651327278e-02
2.323999999999999844e+01,5.852763587944773138e-02
2.328000000000000114e+01,5.210818704106774668e-02
2.332000000000000028e+01,7.731249691538157054e-02
2.335999999999999943e+01,7.302406338430297850e-02
2.339999999999999858e+01,4.173018487273031513e-02
2.344000000000000128e+01,5.876050120953885125e-02
2.348000000000000043e+01,7.827763554674455060e-02
2.351999999999999957e+01,7.292129275834792479e-02
2.355999999999999872e+01,8.426490568113753632e-02
2.360000000000000142e+01,2.951693402316079434e-02
2.364000000000000057e+01,5.471738804934792727e-02
2.367999999999999972e+01,5.504436079922691433e-02
2.371999999999999886e+01,6.638602919512943956e-02
2.376000000000000156e+01,6.493538305759120888e-02
2.380000000000000071e+01,7.769738694260548695e-02
2.383999999999999986e+01,5.776867851822738847e-02
2.387999999999999901e+01,3.677349277094637409e-02
2.392000000000000171e+01,3.994015178348737927e-02
2.396000000000000085e+01,5.909609914114258983e-02
2.400000000000000000e+01,5.622118487830606026e-02
2.403999999999999915e+01,4.090927731294702330e-02
2.407999999999999829e+01,5.366782379789306057e-02
2.412000000000000099e+01,3.409097920436544860e-02
2.416000000000000014e+01,6.816823820084497165e-02
2.419999999999999929e+01,7.097608952745812494e-02
2.423999999999999844e+01,4.109321816791437071e-02
2.428000000000000114e+01,7.090503169445885878e-02
2.432000000000000028e+01,2.183341615453250964e-02
2.435999999999999943e+01,5.377619310455422630e-02
2.439999999999999858e+01,5.587087117494125149e-02
2.444000000000000128e+01,5.441175793237951197e-02
2.448000000000000043e+01,7.675914642751559269e-02
2.451999999999999957e+01,6.037522056364909989e-02
2.455999999999999872e+01,5.216334059737119666e-02
2.460000000000000142e+01,4.110832215674571632e-02
2.464000000000000057e+01,7.766681044489967545e-02
2.467999999999999972e+01,8.899646302017957811e-02
2.471999999999999886e+01,5.626486862827117380e-02
2.476000000000000156e+01,6.972546387349858044e-02
2.480000000000000071e+01,3.308422566707437673e-02
2.483999999999999986e+01,9.095985029531494792e-02
2.487999999999999901e+01,8.452049961040918047e-02
2.492000000000000171e+01,8.127858655885428218e-02
2.496000000000000085e+01,6.169104289702866117e-02
2.500000000000000000e+01,3.890502188943693179e-02
2.503999999999999915e+01,7.474768056811956218e-02
2.507999999999999829e+01,7.683360928547849911e-02
2.512000000000000099e+01,3.592426614284478792e-02
2.516000000000000014e+01,4.760301516434560509e-02
2.519999999999999929e+01,8.024561928813889189e-02
2.523999999999999844e+01,8.090813177317035532e-02
2.528000000000000114e+01,5.349916502295203047e-02
2.532000000000000028e+01,7.299303037170568054e-02
2.535999999999999943e+01,2.888256494450238201e-02
2.539999999999999858e+01,4.375609835913830958e-02
2.544000000000000128e+01,5.329917204564569438e-02
2.548000000000000043e+01,4.258798819089917170e-02
2.551999999999999957e+01,4.999802317980496513e-02
2.555999999999999872e+01,3.928576952002481998e-02
2.560000000000000142e+01,5.664393047884335591e-02
2.564000000000000057e+01,8.288476630729250949e-02
2.567999999999999972e+01,4.658724854233358553e-02
2.571999999999999886e+01,5.648189551027445188e-02
2.576000000000000156e+01,7.170592928828110890e-02
2.580000000000000071e+01,5.814781335193650036e-02
2.583999999999999986e+01,1.438623268495052912e-02
2.587999999999999901e+01,2.854265292372548668e-02
2.592000000000000171e+01,5.442436872562415873e-02
2.596000000000000085e+01,3.979809033889877140e-02
2.600000000000000000e+01,1.948600920192017708e-02
2.603999999999999915e+01,3.683820062474463947e-02
2.607999999999999829e+01,1.901232216571898184e-02
2.612000000000000099e+01,5.448516795589915251e-02
2.616000000000000014e+01,3.594753157223842810e-02
2.619999999999999929e+01,4.263766628480047949e-02
2.623999999999999844e+01,3.795673610659387048e-02
2.628000000000000114e+01,5.104167656153256460e-02
2.632000000000000028e+01,4.031905273747570656e-02
2.635999999999999943e+01,3.776842811556562624e-02
2.639999999999999858e+01,4.374513015277961547e-02
2.644000000000000128e+01,4.439134651995250286e-02
2.648000000000000043e+01,4.752430306178615643e-02
2.651999999999999957e+01,4.710341433149364820e-02
2.655999999999999872e+01,8.257014219794203691e-02
2.660000000000000142e+01,4.697060873273778414e-02
2.664000000000000057e+01,0.000000000000000000e+00
2.667999999999999972e+01,4.186095045435175854e-02
2.671999999999999886e+01,6.915286711393521524e-02
2.676000000000000156e+01,2.715516076442772708e-02
2.680000000000000071e+01,7.541032446759451946e-02
2.683999999999999986e+01,5.437586308631747745e-02
2.687999999999999901e+01,1.841703526491248258e-02
2.692000000000000171e+01,3.007165502472701479e-02
2.696000000000000085e+01,5.629417132530500911e-02
2.700000000000000000e+01,3.738939602717412242e-02
2.703999999999999915e+01,1.848404691365813576e-02
2.707999999999999829e+01,5.891798155422282857e-02
2.712000000000000099e+01,3.112826933056877382e-02
2.716000000000000014e+01,3.211958824543748731e-02
2.719999999999999929e+01,3.808492811936484840e-02
2.723999999999999844e+01,5.115625888259551363e-02
2.728000000000000114e+01,3.544540153744536043e-02
2.732000000000000028e+01,3.750038784585173202e-02
2.735999999999999943e+01,3.955479203746137956e-02
2.739999999999999858e+01,4.374058404251894572e-02
2.744000000000000128e+01,6.817951605067877618e-02
2.748000000000000043e+01,3.505464669513764370e-02
2.751999999999999957e+01,2.005094429942467366e-02
2.755999999999999872e+01,5.656928632329636525e-02
2.760000000000000142e+01,2.202134107360300894e-02
2.764000000000000057e+01,3.721879569487371309e-02
2.767999999999999972e+01,4.388777602625064389e-02
2.771999999999999886e+01,3.527703963163969503e-02
2.776000000000000156e+01,7.818834246823104517e-02
2.780000000000000071e+01,3.617554155138693467e-02
2.783999999999999986e+01,4.426346381177771044e-02
2.787999999999999901e+01,6.301064530518366014e-02
2.792000000000000171e+01,5.475226456065241526e-02
2.796000000000000085e+01,3.938671624110615110e-02
2.800000000000000000e+01,6.417268909778969799e-02
2.803999999999999915e+01,2.499893315953793591e-02
2.807999999999999829e+01,2.384472535424188300e-02
2.812000000000000099e+01,5.182685227788615817e-02
2.816000000000000014e+01,6.062063761991243888e-02
2.819999999999999929e+01,2.428710023293523951e-02
2.823999999999999844e+01,2.561777833355433770e-02
2.828000000000000114e+01,3.192244937596661059e-02
2.832000000000000028e+01,5.492695264606320404e-02
2.835999999999999943e+01,3.067215806852915255e-02
2.839999999999999858e+01,4.408157482788509912e-02
2.844000000000000128e+01,4.221125618307659116e-02
2.848000000000000043e+01,7.231989088534876431e-02
2.851999999999999957e+01,5.303725262136295415e-02
2.855999999999999872e+01,4.619049842315971210e-02
2.860000000000000142e+01,3.330254553107798304e-02
2.864000000000000057e+01,2.716521871496918247e-02
2.867999999999999972e+01,4.021501425003082969e-02
2.871999999999999886e+01,4.864492195679889081e-02
2.876000000000000156e+01,3.468851606491962086e-02
2.880000000000000071e+01,4.205120037910255182e-02
2.883999999999999986e+01,3.200216794443472984e-02
2.887999999999999901e+01,3.154638331690923919e-02
2.892000000000000171e+01,4.139450244815670588e-02
2.896000000000000085e+01,4.982068397693348999e-02
2.900000000000000000e+01,3.692653116496465160e-02
2.903999999999999915e+01,3.824489243992814508e-02
2.907999999999999829e+01,2.890277213839947262e-02
2.912000000000000099e+01,5.900148696885190724e-02
2.916000000000000014e+01,3.189168534784453390e-02
2.919999999999999929e+01,2.823293452405601159e-02
2.923999999999999844e+01,2.492888130732906146e-02
2.928000000000000114e+01,3.157339401563308279e-02
2.932000000000000028e+01,2.649143343742530257e-02
2.935999999999999943e+01,3.810927810731282867e-02
2.939999999999999858e+01,7.531013935395780567e-02
2.944000000000000128e+01,6.240904677847861765e-02
2.948000000000000043e+01,5.661388698241952983e-02
2.951999999999999957e+01,4.371151914196225174e-02
2.955999999999999872e+01,2.050398576754847157e-02
2.960000000000000142e+01,4.775245840725789864e-02
2.964000000000000057e+01,2.560962902576773698e-02
2.967999999999999972e+01,1.981126809630742377e-02
2.971999999999999886e+01,3.710861597961790520e-02
2.976000000000000156e+01,2.668969690256560098e-02
2.980000000000000071e+01,5.393495284372650661e-02
2.983999999999999986e+01,4.422539888817937637e-02
2.987999999999999901e+01,2.705329905449230243e-02
2.992000000000000171e+01,6.531179585866611625e-02
2.996000000000000085e+01,2.504204577863773651e-02
3.000000000000000000e+01,6.116727144567648405e-02
3.003999999999999915e+01,4.399257127356190344e-02
3.007999999999999829e+01,4.138568670344445338e-02
3.012000000000000099e+01,4.908267476180537547e-02
3.016000000000000014e+01,3.226134193492050800e-02
3.019999999999999929e+01,5.381483073879093221e-02
3.023999999999999844e+01,4.800736862483437339e-02
3.028000000000000114e+01,2.620946638428775857e-02
3.032000000000000028e+01,3.887776922027801757e-02
3.035999999999999943e+01,5.332205458700244038e-02
3.039999999999999858e+01,6.421239402698140919e-02
3.044000000000000128e+01,5.022907682332574536e-02
3.048000000000000043e+01,5.792013473797334722e-02
3.051999999999999957e+01,6.099125812888538112e-02
3.055999999999999872e+01,4.878259111877911169e-02
3.060000000000000142e+01,5.043106923156865512e-02
3.064000000000000057e+01,6.629201992423090772e-02
3.067999999999999972e+01,5.123872333808947993e-02
3.071999999999999886e+01,1.036971714544996093e-01
3.076000000000000156e+01,4.777975838228021993e-02
3.080000000000000071e+01,6.328270137844843601e-02
3.083999999999999986e+01,6.315051821520933917e-02
3.087999999999999901e+01,8.291605732024079356e-02
3.092000000000000171e+01,5.542223216634650090e-02
3.096000000000000085e+01,6.488189494874004037e-02
3.100000000000000000e+01,6.297036935686284309e-02
3.103999999999999915e+01,8.699714629166059587e-02
3.107999999999999829e+01,6.696251126870844672e-02
3.112000000000000099e+01,6.398296433073981382e-02
3.116000000000000014e+01,1.043528130444402457e-01
3.119999999999999929e+01,9.426533378359748527e-02
3.123999999999999844e+01,9.163907013906305576e-02
3.128000000000000114e+01,1.138851173111840170e-01
3.132000000000000028e+01,1.180087264092049559e-01
3.135999999999999943e+01,1.359894609142684452e-01
3.139999999999999858e+01,1.646293633368159925e-01
3.144000000000000128e+01,2.007304761872893972e-01
3.148000000000000043e+01,2.624145516553428314e-01
3.151999999999999957e+01,2.867884451496223175e-01
3.155999999999999872e+01,3.250194588625620051e-01
3.160000000000000142e+01,3.493919691735088429e-01
3.164000000000000057e+01,4.132052492428179291e-01
3.167999999999999972e+01,4.489468840486393608e-01
3.171999999999999886e+01,5.585961505188641318e-01
3.176000000000000156e+01,5.772806260965706038e-01
3.180000000000000071e+01,6.258119979262879440e-01
3.183999999999999986e+01,6.608401886226069610e-01
3.187999999999999901e+01,6.688627143510164075e-01
3.192000000000000171e+01,6.957169498841473398e-01
3.196000000000000085e+01,6.085100371838970679e-01
3.200000000000000000e+01,6.513526510395749591e-01
3.203999999999999915e+01,5.716062307148337407e-01
3.207999999999999829e+01,5.234833418516355863e-01
3.211999999999999744e+01,4.828216457758627844e-01
3.215999999999999659e+01,4.219055188668622836e-01
3.220000000000000284e+01,3.176386079344775681e-01
3.224000000000000199e+01,3.459085167945366579e-01
3.228000000000000114e+01,2.835689497669368064e-01
3.232000000000000028e+01,2.805685305577975130e-01
3.235999999999999943e+01,2.249787823135757370e-01
3.239999999999999858e+01,2.127383975530520166e-01
3.243999999999999773e+01,1.997866419015102979e-01
3.247999999999999687e+01,1.765296449656284239e-01
3.252000000000000313e+01,1.561145600099109743e-01
3.256000000000000227e+01,1.293028451356894315e-01
3.260000000000000142e+01,1.479724595247048080e-01
3.264000000000000057e+01,1.122760951416344050e-01
3.267999999999999972e+01,1.256143428929834827e-01
3.271999999999999886e+01,1.133682178638309862e-01
3.275999999999999801e+01,9.010618729729583110e-02
3.279999999999999716e+01,8.567584370659921122e-02
3.284000000000000341e+01,9.510258712891511701e-02
3.288000000000000256e+01,8.001093910398417164e-02
3.292000000000000171e+01,8.339564644720873221e-02
3.296000000000000085e+01,1.006374376904163870e-01
3.300000000000000000e+01,8.518827899631623013e-02
3.303999999999999915e+01,1.724283257902323174e-01
3.307999999999999829e+01,8.157567362124120702e-01
3.311999999999999744e+01,1.000000000000000000e+00
3.315999999999999659e+01,2.490179332795695033e-01
3.320000000000000284e+01,8.326116363596380854e-02
3.324000000000000199e+01,5.039651633754324567e-02
3.328000000000000114e+01,7.793697743730831906e-02
3.332000000000000028e+01,9.765947492410173569e-02
3.335999999999999943e+01,7.403115829489251287e-02
3.339999999999999858e+01,7.101115554964228249e-02
3.343999999999999773e+01,7.900559629502892922e-02
3.347999999999999687e+01,1.040550639024861307e-01
3.352000000000000313e+01,8.362174227531350701e-02
3.356000000000000227e+01,7.846680296159078138e-02
3.360000000000000142e+01,1.184378384745391477e-01
3.364000000000000057e+01,7.206330475467054297e-02
3.367999999999999972e+01,1.020836513156322123e-01
3.371999999999999886e+01,1.050982851755659087e-01
3.375999999999999801e+01,1.184166972354174369e-01
3.379999999999999716e+01,1.477241423719669600e-01
3.384000000000000341e+01,1.226655776061361947e-01
3.388000000000000256e+01,1.132407153469968675e-01
3.392000000000000171e+01,1.596016744527231912e-01
3.396000000000000085e+01,1.789569146313626791e-01
3.400000000000000000e+01,1.723724203291994439e-01
3.403999999999999915e+01,1.935027932012423901e-01
3.407999999999999829e+01,2.185410230680273624e-01
3.411999999999999744e+01,2.336292976003896127e-01
3.415999999999999659e+01,3.030820732929444539e-01
3.420000000000000284e+01,3.199454722172983545e-01
3.424000000000000199e+01,3.620364336649009585e-01
3.428000000000000114e+01,4.034159764883673005e-01
3.432000000000000028e+01,4.327135878211070263e-01
3.435999999999999943e+01,4.374927693125700845e-01
3.439999999999999858e+01,4.749614075643004418e-01
3.443999999999999773e+01,4.690792036827629019e-01
3.447999999999999687e+01,4.898458700770295660e-01
3.452000000000000313e+01,4.434546831208878159e-01
3.456000000000000227e+01,4.734583536166935280e-01
3.460000000000000142e+01,4.515832939568403814e-01
3.464000000000000057e+01,4.165603090208884196e-01
3.467999999999999972e+01,3.929070639022557154e-01
3.471999999999999886e+01,3.365628242262260761e-01
3.475999999999999801e+01,3.278318287468244829e-01
3.479999999999999716e+01,3.080848748085390221e-01
3.484000000000000341e+01,2.641748070715125296e-01
3.488000000000000256e+01,2.828017771935331104e-01
3.492000000000000171e+01,2.594992067087823484e-01
3.496000000000000085e+01,2.319319150128595353e-01
3.500000000000000000e+01,2.512672042981983211e-01
3.503999999999999915e+01,2.350688627675001918e-01
3.507999999999999829e+01,2.011033141157655968e-01
3.511999999999999744e+01,1.834820927920584877e-01
3.515999999999999659e+01,1.797178982961275540e-01
3.520000000000000284e+01,1.692016769003906740e-01
3.524000000000000199e+01,1.732531372463842478e-01
3.528000000000000114e+01,1.524308153898880358e-01
3.532000000000000028e+01,1.532827430928399848e-01
3.535999999999999943e+01,1.747429338336030924e-01
3.539999999999999858e+01,1.578268564620123326e-01
3.543999999999999773e+01,1.835494067213994662e-01
3.547999999999999687e+01,1.861748120631822323e-01
3.552000000000000313e+01,1.710329988694873349e-01
3.556000000000000227e+01,1.622863037390791241e-01
3.560000000000000142e+01,2.214065552093447964e-01
3.564000000000000057e+01,2.069730113704964791e-01
3.567999999999999972e+01,2.330461179686460771e-01
3.571999999999999886e+01,2.505905417039275274e-01
3.575999999999999801e+01,2.777280347659955018e-01
3.579999999999999716e+01,3.176565525690549507e-01
3.584000000000000341e+01,3.554522972999810126e-01
3.588000000000000256e+01,3.584250464129705716e-01
3.592000000000000171e+01,3.912445848972928020e-01
3.596000000000000085e+01,4.478703273061606649e-01
3.600000000000000000e+01,4.732263559305981415e-01
3.603999999999999915e+01,5.408656681262126176e-01
3.607999999999999829e+01,5.981996456466032175e-01
3.611999999999999744e+01,6.548221568097387646e-01
3.615999999999999659e+01,7.324082387518091597e-01
3.620000000000000284e+01,8.028869393575079894e-01
3.624000000000000199e+01,8.193548962948908887e-01
3.628000000000000114e+01,8.820147440185804877e-01
3.632000000000000028e+01,9.084302707312785774e-01
3.635999999999999943e+01,9.174338856119461649e-01
3.639999999999999858e+01,8.546603279409143994e-01
3.643999999999999773e+01,8.309720870124128744e-01
3.647999999999999687e+01,7.923592306014262121e-01
3.652000000000000313e+01,7.519689119724594084e-01
3.656000000000000227e+01,6.874154349246621720e-01
3.660000000000000142e+01,5.876836150860984542e-01
3.664000000000000057e+01,5.444482030397060912e-01
3.667999999999999972e+01,5.342575171006749279e-01
3.671999999999999886e+01,4.689900895572491346e-01
3.675999999999999801e+01,3.696103005563113886e-01
3.679999999999999716e+01,3.704323200392253823e-01
3.684000000000000341e+01,3.485124878181878327e-01
3.688000000000000256e+01,2.978102184464121449e-01
3.692000000000000171e+01,2.986297506779229116e-01
3.696000000000000085e+01,2.422405641110589314e-01
3.700000000000000000e+01,2.149874819089551414e-01
3.703999999999999915e+01,2.083426191622497758e-01
3.707999999999999829e+01,2.091588205310855042e-01
3.711999999999999744e+01,1.797712645445098956e-01
3.715999999999999659e+01,1.738345528575318821e-01
3.720000000000000284e+01,1.689629892693013946e-01
3.724000000000000199e+01,1.512987614506538792e-01
3.728000000000000114e+01,1.517554473987712538e-01
3.732000000000000028e+01,1.287596122015121358e-01
3.735999999999999943e+01,1.285039591261611380e-01
3.739999999999999858e+01,1.254048355199862408e-01
3.743999999999999773e+01,8.641669034253147974e-02
3.747999999999999687e+01,9.859500374623883512e-02
3.752000000000000313e+01,1.171683843670851405e-01
3.756000000000000227e+01,1.353855897689764387e-01
3.760000000000000142e+01,1.230436968686851040e-01
3.764000000000000057e+01,1.554723454950861228e-01
3.767999999999999972e+01,1.488140098722663118e-01
3.771999999999999886e+01,1.844389142382111824e-01
3.775999999999999801e+01,2.182863242182044305e-01
3.779999999999999716e+01,2.556861661943727881e-01
3.784000000000000341e+01,2.781613574070556094e-01
3.788000000000000256e+01,2.945951091849148273e-01
3.792000000000000171e+01,3.003681500597780718e-01
3.796000000000000085e+01,3.118255897480316507e-01
3.800000000000000000e+01,2.824193944123848388e-01
3.803999999999999915e+01,2.572762818361614690e-01
3.807999999999999829e+01,2.328429660351492569e-01
3.811999999999999744e+01,2.226219287685068937e-01
3.815999999999999659e+01,1.853950636187463308e-01
3.820000000000000284e+01,1.531419340670102380e-01
3.824000000000000199e+01,1.137813702574015512e-01
3.828000000000000114e+01,9.609497921918101759e-02
3.832000000000000028e+01,1.160725421740816943e-01
3.835999999999999943e+01,8.559259141034775142e-02
3.839999999999999858e+01,8.495936568200404548e-02
3.843999999999999773e+01,9.214249728285428542e-02
3.847999999999999687e+01,6.734519377402482798e-02
3.852000000000000313e+01,5.498351594953239385e-02
3.856000000000000227e+01,5.470213427704700287e-02
3.860000000000000142e+01,5.441987890067141731e-02
3.864000000000000057e+01,3.423835308213087764e-02
3.867999999999999972e+01,3.288836170098526773e-02
3.871999999999999886e+01,5.356786017143984335e-02
3.875999999999999801e+01,5.434808508669994320e-02
3.879999999999999716e+01,4.304626229146702593e-02
3.884000000000000341e+01,3.565217300747407225e-02
3.888000000000000256e+01,6.201340974794253280e-02
3.892000000000000171e+01,6.243478437340022058e-02
3.896000000000000085e+01,4.046958079270613490e-02
3.900000000000000000e+01,4.906174367156198451e-02
3.903999999999999915e+01,6.866820476634635795e-02
3.907999999999999829e+01,1.223348184926409919e-02
3.911999999999999744e+01,5.457919325218307804e-02
3.915999999999999659e+01,3.687350082729195372e-02
3.920000000000000284e+01,4.013130031792279395e-02
3.924000000000000199e+01,2.064718584401278520e-02
3.928000000000000114e+01,2.639050314611414774e-02
3.932000000000000028e+01,4.847803882021175376e-02
3.935999999999999943e+01,4.462570096485734411e-02
3.939999999999999858e+01,6.102619284733507010e-02
3.943999999999999773e+01,2.519250052064542916e-02
3.947999999999999687e+01,2.595674661049818255e-02
3.952000000000000313e+01,3.524797900158666702e-02
3.956000000000000227e+01,4.205101332197470898e-02
3.960000000000000142e+01,4.991913348052100241e-02
3.964000000000000057e+01,1.265963413458847525e-02
3.967999999999999972e+01,2.834317877087885393e-02
3.971999999999999886e+01,3.052333785150286236e-02
3.975999999999999801e+01,3.838784905007527198e-02
3.979999999999999716e+01,4.092152799465998553e-02
3.984000000000000341e+01,4.842889999253302546e-02
3.988000000000000256e+01,2.786441400323846213e-02
3.992000000000000171e+01,3.856792759624168287e-02
3.996000000000000085e+01,4.429593327920457874e-02
4.000000000000000000e+01,2.621601979781290614e-02
4.003999999999999915e+01,2.092702106370519788e-02
4.007999999999999829e+01,4.015477636277204471e-02
4.011999999999999744e+01,2.882336798603739661e-02
4.015999999999999659e+01,3.063819973821077514e-02
4.020000000000000284e+01,2.499021789171024591e-02
4.024000000000000199e+01,4.599095689559948297e-02
4.028000000000000114e+01,3.074727215852460227e-02
4.032000000000000028e+01,4.819289060559689419e-02
4.035999999999999943e+01,3.792196710803708015e-02
4.039999999999999858e+01,3.298005063094849171e-02
4.043999999999999773e+01,4.686962293348932024e-02
4.047999999999999687e+01,5.436235985758125500e-02
4.052000000000000313e+01,2.347869584672897941e-02
4.056000000000000227e+01,3.843148309614598246e-02
4.060000000000000142e+01,5.835794368299811186e-02
4.064000000000000057e+01,3.990800022187658558e-02
4.067999999999999972e+01,2.678705651749069966e-02
4.071999999999999886e+01,3.924883572741621335e-02
4.075999999999999801e+01,5.064369971496072292e-02
4.079999999999999716e+01,3.680930980600658625e-02
4.084000000000000341e+01,4.535968324645245353e-02
4.088000000000000256e+01,1.198036146633009620e-02
4.092000000000000171e+01,2.443748160738876130e-02
4.096000000000000085e+01,5.075147811313281132e-02
4.100000000000000000e+01,4.224234617835018191e-02
4.103999999999999915e+01,3.657490519864000506e-02
4.107999999999999829e+01,2.948521220048343564e-02
4.111999999999999744e+01,4.833356023452674982e-02
4.115999999999999659e+01,3.058213320406970998e-02
4.120000000000000284e+01,3.983473061442040219e-02
4.124000000000000199e+01,5.619295572730365756e-02
4.128000000000000114e+01,4.909855696483826637e-02
4.132000000000000028e+01,3.880525748459974500e-02
4.135999999999999943e+01,6.333320517684082329e-02
4.139999999999999858e+01,4.699742964268003448e-02
4.143999999999999773e+01,5.233574490346494523e-02
4.147999999999999687e+01,5.305384131715649293e-02
4.152000000000000313e+01,5.981157268568458585e-02
4.156000000000000227e+01,5.875112667988461462e-02
4.160000000000000142e+01,6.586228452148946977e-02
4.164000000000000057e+01,5.591672205242109728e-02
4.167999999999999972e+01,7.581779952927079902e-02
4.171999999999999886e+01,5.698711644622803801e-02
4.175999999999999801e+01,8.115022553593166654e-02
4.179999999999999716e+01,7.866274080861024309e-02
4.184000000000000341e+01,1.294735725236350887e-01
4.188000000000000256e+01,1.515018373783607319e-01
4.192000000000000171e+01,1.749504563806620339e-01
4.196000000000000085e+01,1.863169456960276915e-01
4.200000000000000000e+01,2.253980956879783060e-01
4.203999999999999915e+01,2.410266020887270599e-01
4.207999999999999829e+01,2.580754584863453882e-01
4.211999999999999744e+01,2.687274369607789981e-01
4.215999999999999659e+01,2.406476434608786352e-01
4.220000000000000284e+01,2.182521387806609647e-01
4.224000000000000199e+01,2.065155208075993010e-01
4.228000000000000114e+01,2.111230444184738764e-01
4.232000000000000028e+01,1.510598117945996521e-01
4.235999999999999943e+01,1.283050998638677886e-01
4.239999999999999858e+01,1.169199274788929044e-01
4.243999999999999773e+01,1.243661919897231238e-01
4.247999999999999687e+01,1.072938160109493250e-01
4.252000000000000313e+01,1.040782759274778563e-01
4.256000000000000227e+01,8.771460510796291743e-02
4.260000000000000142e+01,1.047508353143423582e-01
4.264000000000000057e+01,1.018876913109079407e-01
4.267999999999999972e+01,1.008002102338494826e-01
4.271999999999999886e+01,1.320466415856953180e-01
4.275999999999999801e+01,1.323785122804378711e-01
4.279999999999999716e+01,1.554504239730860327e-01
4.284000000000000341e+01,1.568463137942701924e-01
4.288000000000000256e+01,2.229110049071253430e-01
4.292000000000000171e+01,2.623250731480138431e-01
4.296000000000000085e+01,3.440222454420469589e-01
4.300000000000000000e+01,5.046013557008632855e-01
4.303999999999999915e+01,6.733520324507311638e-01
4.307999999999999829e+01,8.303758789533752793e-01
4.311999999999999744e+01,9.600384404063632138e-01
4.315999999999999659e+01,9.745735775925927769e-01
4.320000000000000284e+01,9.422043604478680390e-01
4.324000000000000199e+01,8.558242180414420419e-01
4.328000000000000114e+01,7.694430805229768300e-01
4.332000000000000028e+01,7.356495640635207778e-01
4.335999999999999943e+01,7.107382627830109989e-01
4.339999999999999858e+01,6.794300503736691033e-01
4.343999999999999773e+01,7.220291655895192395e-01
4.347999999999999687e+01,8.154392552404050587e-01
4.352000000000000313e+01,8.754474650557592108e-01
4.356000000000000227e+01,9.052517504497875622e-01
4.360000000000000142e+01,8.838877292002546016e-01
4.364000000000000057e+01,8.191726271518612323e-01
4.367999999999999972e+01,7.747102438099161548e-01
4.371999999999999886e+01,7.032418883478211979e-01
4.375999999999999801e+01,6.303512113429547981e-01
4.379999999999999716e+01,5.265459467013966499e-01
4.384000000000000341e+01,4.458360245728090754e-01
4.388000000000000256e+01,3.555312224113891251e-01
4.392000000000000171e+01,3.124840983240278480e-01
4.396000000000000085e+01,2.211112862112449284e-01
4.400000000000000000e+01,2.096863716052937976e-01
4.403999999999999915e+01,1.833366453960012799e-01
4.407999999999999829e+01,1.367321791258878372e-01
4.411999999999999744e+01,1.434259701505608275e-01
4.415999999999999659e+01,1.149412222636108649e-01
4.420000000000000284e+01,9.818129572162964669e-02
4.424000000000000199e+01,1.119785997035783603e-01
4.428000000000000114e+01,1.033891874684024492e-01
4.432000000000000028e+01,6.352984561208678549e-02
4.435999999999999943e+01,7.092817041538822254e-02
4.439999999999999858e+01,6.624430223348828917e-02
4.443999999999999773e+01,5.232086798593891391e-02
4.447999999999999687e+01,6.469071610041818299e-02
4.452000000000000313e+01,6.284639714874530603e-02
4.456000000000000227e+01,5.567112245958250050e-02
4.460000000000000142e+01,5.808868777070221728e-02
4.464000000000000057e+01,6.512449311927830109e-02
4.467999999999999972e+01,5.616948477772855386e-02
4.471999999999999886e+01,6.924381063630594135e-02
4.475999999999999801e+01,6.916994868663298157e-02
4.479999999999999716e+01,6.589709574133230385e-02
4.484000000000000341e+01,7.683634700075141211e-02
4.488000000000000256e+01,5.899295357413462254e-02
4.492000000000000171e+01,5.394034829827035887e-02
4.496000000000000085e+01,5.563794572637176944e-02
4.500000000000000000e+01,4.347669213085675333e-02
4.503999999999999915e+01,5.192345045544281834e-02
4.507999999999999829e+01,5.041996912224851884e-02
4.511999999999999744e+01,4.500683150270762961e-02
4.515999999999999659e+01,5.060783333459260153e-02
4.520000000000000284e+01,3.808603701863613744e-02
4.524000000000000199e+01,5.398947431677624670e-02
4.528000000000000114e+01,3.613565762696600153e-02
4.532000000000000028e+01,5.203699989570256118e-02
4.535999999999999943e+01,4.590692642470278056e-02
4.539999999999999858e+01,5.114631467372348500e-02
4.543999999999999773e+01,4.252684048468632905e-02
4.547999999999999687e+01,5.593668077992312165e-02
4.552000000000000313e+01,5.051305763659950238e-02
4.556000000000000227e+01,5.361626410536195209e-02
4.560000000000000142e+01,6.844425560041604573e-02
4.564000000000000057e+01,3.530184398228950610e-02
4.567999999999999972e+01,4.941706478045617551e-02
4.571999999999999886e+01,5.500334329663274235e-02
4.575999999999999801e+01,4.744140806264682958e-02
4.579999999999999716e+01,4.378702578419191999e-02
4.584000000000000341e+01,2.982705563744982025e-02
4.588000000000000256e+01,2.617054927464983541e-02
4.592000000000000171e+01,4.951794490683187472e-02
4.596000000000000085e+01,4.870193826620888844e-02
4.600000000000000000e+01,5.961070627511267511e-02
4.603999999999999915e+01,3.001095918179550945e-02
4.607999999999999829e+01,4.624752014939226274e-02
4.611999999999999744e+01,3.583337523090351223e-02
4.615999999999999659e+01,7.018955081401501150e-02
4.620000000000000284e+01,5.550932327251460741e-02
4.624000000000000199e+01,5.113255017586767343e-02
4.628000000000000114e+01,5.528258801313014337e-02
4.632000000000000028e+01,5.374629596048369901e-02
4.635999999999999943e+01,5.967082728243291306e-02
4.639999999999999858e+01,4.853851481020680925e-02
4.643999999999999773e+01,5.161826503564074381e-02
4.647999999999999687e+01,5.860555057610555840e-02
4.652000000000000313e+01,7.447496931907432449e-02
4.656000000000000227e+01,6.049571430963414376e-02
4.660000000000000142e+01,5.930720386853392118e-02
4.664000000000000057e+01,7.481805039928615675e-02
4.667999999999999972e+01,8.002328727054507096e-02
4.671999999999999886e+01,8.487211129493325845e-02
4.675999999999999801e+01,6.378086981971904657e-02
4.679999999999999716e+01,7.360212095179317904e-02
4.684000000000000341e+01,8.448827010258141978e-02
4.688000000000000256e+01,8.755610386806851608e-02
4.692000000000000171e+01,9.595277551275931127e-02
4.696000000000000085e+01,7.805404797481169110e-02
4.700000000000000000e+01,9.924036323280156779e-02
4.703999999999999915e+01,6.321769819794163803e-02
4.707999999999999829e+01,8.582314108961115739e-02
4.711999999999999744e+01,8.852909355170017480e-02
4.715999999999999659e+01,1.075790610011937570e-01
4.720000000000000284e+01,9.216106766495847646e-02
4.724000000000000199e+01,1.087215410055309001e-01
4.728000000000000114e+01,1.192403310573049297e-01
4.732000000000000028e+01,9.777845667289571108e-02
4.735999999999999943e+01,1.114930023041463408e-01
4.739999999999999858e+01,1.149019195977268593e-01
4.743999999999999773e+01,1.108478354731890075e-01
4.747999999999999687e+01,1.252697290025651389e-01
4.752000000000000313e+01,1.038023394661862914e-01
4.756000000000000227e+01,1.001002685190613833e-01
4.760000000000000142e+01,1.202040995326241896e-01
4.764000000000000057e+01,1.136571852283947692e-01
4.767999999999999972e+01,1.127944175821691958e-01
4.771999999999999886e+01,1.151284960936961727e-01
4.775999999999999801e+01,1.128421928429213239e-01
4.779999999999999716e+01,1.308085014179162786e-01
4.784000000000000341e+01,1.118195331417838057e-01
4.788000000000000256e+01,1.567885794584541470e-01
4.792000000000000171e+01,1.704876027631007374e-01
4.796000000000000085e+01,1.472313461035904270e-01
4.800000000000000000e+01,1.516895944691920017e-01
4.803999999999999915e+01,1.511721253141025956e-01
4.807999999999999829e+01,1.396383531915356135e-01
4.811999999999999744e+01,1.074944077081688987e-01
4.815999999999999659e+01,9.347109374356217526e-02
4.820000000000000284e+01,8.619789843112571348e-02
4.824000000000000199e+01,8.176620729199406135e-02
4.828000000000000114e+01,8.195266176175820816e-02
4.832000000000000028e+01,9.315317370650570694e-02
4.835999999999999943e+01,9.227138993607951478e-02
4.839999999999999858e+01,7.859665242349614389e-02
4.843999999999999773e+01,7.202735583167753364e-02
4.847999999999999687e+01,7.220817062829368305e-02
4.852000000000000313e+01,6.279398502160513096e-02
4.856000000000000227e+01,7.043443507295109318e-02
4.860000000000000142e+01,7.096718210821409412e-02
4.864000000000000057e+01,5.764098369130043337e-02
4.867999999999999972e+01,7.593788610018710472e-02
4.871999999999999886e+01,5.123890441995342104e-02
4.875999999999999801e+01,7.557411772819096207e-02
4.879999999999999716e+01,5.833475885056919191e-02
4.884000000000000341e+01,4.891148750625445851e-02
4.888000000000000256e+01,7.857321018708218752e-02
4.892000000000000171e+01,4.391933391119436092e-02
4.896000000000000085e+01,4.870577807974960094e-02
4.900000000000000000e+01,6.948086100793743336e-02
4.903999999999999915e+01,4.406209509371098593e-02
4.907999999999999829e+01,4.067255027287437763e-02
4.911999999999999744e+01,5.149499862537323946e-02
4.915999999999999659e+01,4.739250255194033673e-02
4.920000000000000284e+01,6.993849488936396130e-02
4.924000000000000199e+01,4.877793265856565641e-02
4.928000000000000114e+01,3.365680407336524987e-02
4.932000000000000028e+01,6.721452745451175770e-02
4.935999999999999943e+01,4.249722487361150963e-02
4.939999999999999858e+01,4.158577755795692110e-02
4.943999999999999773e+01,5.062237317838341744e-02
4.947999999999999687e+01,4.082540263027711197e-02
4.952000000000000313e+01,4.275311541616667182e-02
4.956000000000000227e+01,6.351208039144631834e-02
4.960000000000000142e+01,2.528535618931322670e-02
4.964000000000000057e+01,5.563587135271360479e-02
4.967999999999999972e+01,4.370113451206483063e-02
4.971999999999999886e+01,4.171443334376171569e-02
4.975999999999999801e+01,5.571635121923784739e-02
4.979999999999999716e+01,4.591009569961982534e-02
4.984000000000000341e+01,4.711785822327846374e-02
4.988000000000000256e+01,5.081175388085228811e-02
4.992000000000000171e+01,4.633192679505844513e-02
4.996000000000000085e+01,4.753618721970871014e-02
5.000000000000000000e+01,5.335854863316587260e-02
5.003999999999999915e+01,4.923054171695815523e-02
5.007999999999999829e+01,4.190340683182646603e-02
5.011999999999999744e+01,5.767145154445663807e-02
5.015999999999999659e+01,6.277846782508535173e-02
5.020000000000000284e+01,6.752898098098890356e-02
5.024000000000000199e+01,6.446109158676653628e-02
5.028000000000000114e+01,6.530063892830846595e-02
5.032000000000000028e+01,6.436236605348176487e-02
5.035999999999999943e+01,5.915897246203494914e-02
5.039999999999999858e+01,4.471585819114193977e-02
5.043999999999999773e+01,4.341871736629968059e-02
5.047999999999999687e+01,2.755192636685500907e-02
5.052000000000000313e+01,3.513563308306087707e-02
5.056000000000000227e+01,4.413946980872097969e-02
5.060000000000000142e+01,3.217774034298544195e-02
5.064000000000000057e+01,3.016402268303623735e-02
5.067999999999999972e+01,3.774298729654332329e-02
5.071999999999999886e+01,4.603142077949168992e-02
5.075999999999999801e+01,6.106990650331491077e-02
5.079999999999999716e+01,4.128500955587182525e-02
5.084000000000000341e+01,4.175264557078550709e-02
5.088000000000000256e+01,5.216828716542654815e-02
5.092000000000000171e+01,3.877572631003167042e-02
5.096000000000000085e+01,4.563569530396411472e-02
5.100000000000000000e+01,3.259607321369661220e-02
5.103999999999999915e+01,4.371759233859239674e-02
5.107999999999999829e+01,4.808667260611659139e-02
5.111999999999999744e+01,3.006885921383654556e-02
5.115999999999999659e+01,3.941014037557232647e-02
5.120000000000000284e+01,5.052686343859198043e-02
5.124000000000000199e+01,3.996734671808510608e-02
5.128000000000000114e+01,4.610706659895814213e-02
5.132000000000000028e+01,4.229638494451867098e-02
5.135999999999999943e+01,4.630172544976755150e-02
5.139999999999999858e+01,3.111812148335864336e-02
5.143999999999999773e+01,4.293827631257655930e-02
5.147999999999999687e+01,3.841211255201225361e-02
5.152000000000000313e+01,3.175276895013093292e-02
5.156000000000000227e+01,4.534593963242955494e-02
5.160000000000000142e+01,3.761818968676682723e-02
5.164000000000000057e+01,3.557448366913568832e-02
5.167999999999999972e+01,5.058533237077309647e-02
5.171999999999999886e+01,4.534124281538035039e-02
5.175999999999999801e+01,5.466440644132826432e-02
5.179999999999999716e+01,3.271744640063320442e-02
5.184000000000000341e+01,4.701277563979217727e-02
5.188000000000000256e+01,3.714454903002598063e-02
5.192000000000000171e+01,3.153904510594172234e-02
5.196000000000000085e+01,3.446020476570557656e-02
5.200000000000000000e+01,6.687240815620015821e-02
5.203999999999999915e+01,3.887754509240205769e-02
5.207999999999999829e+01,4.286102314655648032e-02
5.211999999999999744e+01,4.222400633167185113e-02
5.215999999999999659e+01,4.229642102987481861e-02
5.220000000000000284e+01,4.769753663398498128e-02
5.224000000000000199e+01,3.639698543780613832e-02
5.228000000000000114e+01,4.215097339574851165e-02
5.232000000000000028e+01,5.607628710379691794e-02
5.235999999999999943e+01,5.720854433971579722e-02
5.239999999999999858e+01,6.011621234662407193e-02
5.243999999999999773e+01,6.231199062427029284e-02
5.247999999999999687e+01,6.663850609220638155e-02
5.252000000000000313e+01,6.634451631433858909e-02
5.256000000000000227e+01,6.569396218883277738e-02
5.260000000000000142e+01,4.087983353622510335e-02
5.264000000000000057e+01,4.093746158102830324e-02
5.267999999999999972e+01,4.774509205823503077e-02
5.271999999999999886e+01,6.556666586601130053e-02
5.275999999999999801e+01,4.643283518845203045e-02
5.279999999999999716e+01,2.658710544254254751e-02
5.284000000000000341e+01,3.871969709873222809e-02
5.288000000000000256e+01,4.267848922349412599e-02
5.292000000000000171e+01,4.770202164014397672e-02
5.296000000000000085e+01,5.983087772011543015e-02
5.300000000000000000e+01,4.886213438018067318e-02
5.303999999999999915e+01,3.753681424049023357e-02
5.307999999999999829e+01,4.610864045861959998e-02
5.311999999999999744e+01,4.615133242460867785e-02
5.315999999999999659e+01,2.949233372374953158e-02
5.320000000000000284e+01,3.948171966609795996e-02
5.324000000000000199e+01,3.987598275931609343e-02
5.328000000000000114e+01,3.849234884810535939e-02
5.332000000000000028e+01,4.421402926112798226e-02
5.335999999999999943e+01,4.851313908902218225e-02
5.339999999999999858e+01,4.072982245450528643e-02
5.343999999999999773e+01,4.182845950445995137e-02
5.347999999999999687e+01,3.404262446853237312e-02
5.352000000000000313e+01,4.650925287063674418e-02
5.356000000000000227e+01,4.938075012219894644e-02
5.360000000000000142e+01,4.265711518554225062e-02
5.364000000000000057e+01,3.984082981982507710e-02
5.367999999999999972e+01,4.519583492321341961e-02
5.371999999999999886e+01,4.593030365050324720e-02
5.375999999999999801e+01,4.239956345867149090e-02
5.379999999999999716e+01,4.810609610687636289e-02
5.384000000000000341e+01,5.345603120179582418e-02
5.388000000000000256e+01,4.388089942495781992e-02
5.392000000000000171e+01,4.674099382700894201e-02
5.396000000000000085e+01,4.249324616432779977e-02
5.400000000000000000e+01,2.865035593666297870e-02
5.403999999999999915e+01,3.612590114119639678e-02
5.407999999999999829e+01,5.639199686856654486e-02
5.411999999999999744e+01,4.965185067989999479e-02
5.415999999999999659e+01,4.326575562584297069e-02
5.420000000000000284e+01,3.758903916337272277e-02
5.424000000000000199e+01,4.790082552491518875e-02
5.428000000000000114e+01,3.973424969139994350e-02
5.432000000000000028e+01,3.831763374555218621e-02
5.435999999999999943e+01,4.684893310157741547e-02
5.439999999999999858e+01,5.253632091427146156e-02
5.443999999999999773e+01,4.294329883308377338e-02
5.447999999999999687e+01,5.076008732846392507e-02
5.452000000000000313e+01,5.466697568352296699e-02
5.456000000000000227e+01,4.507009350493843686e-02
5.460000000000000142e+01,5.252769029523880057e-02
5.464000000000000057e+01,2.942574673317269185e-02
5.467999999999999972e+01,2.941886447374868555e-02
5.471999999999999886e+01,3.864923118780220351e-02
5.475999999999999801e+01,5.036560443923930597e-02
5.479999999999999716e+01,5.213148587750941060e-02
5.484000000000000341e+01,4.750015941147158610e-02
5.488000000000000256e+01,4.357819389652018566e-02
5.492000000000000171e+01,4.747215818804961102e-02
5.496000000000000085e+01,4.496891146224150926e-02
5.500000000000000000e+01,4.850494999429360438e-02
5.503999999999999915e+01,3.711589156197025313e-02
5.507999999999999829e+01,5.273049749671313707e-02
5.511999999999999744e+01,3.671956514301094598e-02
5.515999999999999659e+01,6.192543486716397400e-02
5.520000000000000284e+01,3.951598196810934827e-02
5.524000000000000199e+01,5.405938713571430132e-02
5.528000000000000114e+01,5.119038965031013494e-02
5.532000000000000028e+01,5.365001213204695363e-02
5.535999999999999943e+01,5.077839870364218161e-02
5.539999999999999858e+01,5.394606015633254120e-02
5.543999999999999773e+01,6.706160889363085853e-02
5.547999999999999687e+01,5.601350839111994551e-02
5.552000000000000313e+01,6.592847643212383646e-02
5.556000000000000227e+01,7.051220337460360754e-02
5.560000000000000142e+01,5.697286237335503351e-02
5.564000000000000057e+01,6.759454325447364353e-02
5.567999999999999972e+01,6.400176755770009551e-02
5.571999999999999886e+01,6.929088639783817505e-02
5.575999999999999801e+01,6.036554658473104740e-02
5.579999999999999716e+01,6.671801213694647514e-02
5.584000000000000341e+01,8.834828201680802739e-02
5.588000000000000256e+01,8.297226432286723685e-02
5.592000000000000171e+01,8.789944995606989442e-02
5.596000000000000085e+01,8.571874164071589808e-02
5.600000000000000000e+01,9.170926360923099818e-02
5.603999999999999915e+01,8.632794761799388039e-02
5.607999999999999829e+01,8.378793241546984849e-02
5.611999999999999744e+01,9.545972879289579827e-02
5.615999999999999659e+01,1.064195389371463130e-01
5.620000000000000284e+01,1.223526177250019026e-01
5.624000000000000199e+01,1.297564813219510005e-01
5.628000000000000114e+01,1.147733173988289973e-01
5.632000000000000028e+01,1.353216695464873054e-01
5.635999999999999943e+01,1.743457689838792402e-01
5.639999999999999858e+01,1.828102824111391411e-01
5.643999999999999773e+01,1.976693722345590210e-01
5.647999999999999687e+01,1.919180718227932736e-01
5.652000000000000313e+01,2.263175527239213447e-01
5.656000000000000227e+01,2.440152547556996288e-01
5.660000000000000142e+01,2.389705924713414475e-01
5.664000000000000057e+01,2.445844433306034738e-01
5.667999999999999972e+01,2.814658589857148563e-01
5.671999999999999886e+01,2.749958545217544570e-01
5.675999999999999801e+01,2.759864036365031192e-01
5.679999999999999716e+01,2.830161913136698959e-01
5.684000000000000341e+01,2.605523670502237210e-01
5.688000000000000256e+01,2.572749335760241007e-01
5.692000000000000171e+01,2.284124995270475356e-01
5.696000000000000085e+01,2.226450676331534761e-01
5.700000000000000000e+01,2.193635841667596897e-01
5.703999999999999915e+01,1.986696523895911670e-01
5.707999999999999829e+01,1.946748067507117208e-01
5.711999999999999744e+01,1.952978773942243007e-01
5.715999999999999659e+01,1.824171100551219560e-01
5.720000000000000284e+01,1.780628703642474775e-01
5.724000000000000199e+01,1.570068341635229570e-01
5.728000000000000114e+01,1.167617009526971256e-01
5.732000000000000028e+01,1.156013428172747853e-01
5.735999999999999943e+01,1.027137839841225503e-01
5.739999999999999858e+01,1.313982976135956993e-01
5.743999999999999773e+01,1.153100584672062112e-01
5.747999999999999687e+01,1.013524268015456448e-01
5.752000000000000313e+01,1.129770822260715291e-01
5.756000000000000227e+01,1.000827059569573407e-01
5.760000000000000142e+01,1.099279867454482362e-01
5.764000000000000057e+01,1.197718998960407705e-01
5.767999999999999972e+01,1.122033481330348553e-01
5.771999999999999886e+01,1.092526970872736425e-01
5.775999999999999801e+01,1.215798005606869847e-01
5.779999999999999716e+01,1.129411510609370367e-01
5.784000000000000341e+01,1.352147077697646582e-01
5.788000000000000256e+01,1.414971083552254705e-01
5.792000000000000171e+01,1.278797383384540354e-01
5.796000000000000085e+01,1.451745714172307800e-01
5.800000000000000000e+01,1.212499221392095011e-01
5.803999999999999915e+01,1.101157206540527150e-01
5.807999999999999829e+01,9.720349764328850561e-02
5.811999999999999744e+01,1.112948601361775786e-01
5.815999999999999659e+01,1.044204603168146506e-01
5.820000000000000284e+01,8.155489607267313312e-02
5.824000000000000199e+01,1.045253244357932515e-01
5.828000000000000114e+01,1.065299873736320485e-01
5.832000000000000028e+01,7.051311610514295058e-02
5.835999999999999943e+01,8.317486228811434013e-02
5.839999999999999858e+01,8.410938079376714671e-02
5.843999999999999773e+01,6.052484477689725612e-02
5.847999999999999687e+01,5.861395750478906597e-02
5.852000000000000313e+01,6.345292116431709706e-02
5.856000000000000227e+01,6.544786536215922712e-02
5.860000000000000142e+01,7.241601594301702582e-02
5.864000000000000057e+01,5.202247885574121794e-02
5.867999999999999972e+01,4.974930037830917889e-02
5.871999999999999886e+01,6.595180796769808951e-02
5.875999999999999801e+01,5.337131079730969563e-02
5.879999999999999716e+01,5.002795675739706710e-02
5.884000000000000341e+01,6.835824212315773363e-02
5.888000000000000256e+01,6.643340348779686044e-02
5.892000000000000171e+01,5.775592261047259729e-02
5.896000000000000085e+01,5.867090920757164069e-02
5.900000000000000000e+01,6.775704826280339044e-02
5.903999999999999915e+01,5.196878873571144503e-02
5.907999999999999829e+01,6.282876131338351045e-02
5.911999999999999744e+01,5.059097570664685545e-02
5.915999999999999659e+01,4.901163786991159094e-02
5.920000000000000284e+01,6.235468870134384251e-02
5.924000000000000199e+01,5.757457716048750007e-02
5.928000000000000114e+01,4.248852909204386269e-02
5.932000000000000028e+01,5.262939292369120392e-02
5.935999999999999943e+01,4.358110578605975394e-02
5.939999999999999858e+01,4.625724567633151402e-02
5.943999999999999773e+01,5.959182607286935690e-02
5.947999999999999687e+01,3.135155722392554689e-02
5.952000000000000313e+01,6.493703003600542756e-02
5.956000000000000227e+01,6.227757894705386599e-02
5.960000000000000142e+01,6.139335184732380712e-02
5.964000000000000057e+01,5.908639124725684894e-02
5.967999999999999972e+01,3.083902997808189023e-02
5.971999999999999886e+01,5.979813475105190401e-02
5.975999999999999801e+01,4.362909806826951314e-02
5.979999999999999716e+01,3.811849255266482744e-02
5.984000000000000341e+01,4.184500318794706630e-02
5.988000000000000256e+01,3.384424775188077383e-02
5.992000000000000171e+01,4.396381875768708841e-02
5.996000000000000085e+01,3.880283667025627437e-02
