2.003999999999999915e+01,6.056020622870651737e-02
2.007999999999999829e+01,4.791859034305001597e-02
2.012000000000000099e+01,5.540601509017582110e-02
2.016000000000000014e+01,5.844614750208376730e-02
2.019999999999999929e+01,4.205912711749518196e-02
2.023999999999999844e+01,3.386406899277730198e-02
2.028000000000000114e+01,4.673428896665152155e-02
2.032000000000000028e+01,3.198524265178878667e-02
2.035999999999999943e+01,5.538787482640499665e-02
2.039999999999999858e+01,6.732139988300335498e-02
2.044000000000000128e+01,4.344354515862464822e-02
2.048000000000000043e+01,4.999337604156864345e-02
2.051999999999999957e+01,5.747929315795187455e-02
2.055999999999999872e+01,5.583670245237782465e-02
2.060000000000000142e+01,4.857650756188672259e-02
2.064000000000000057e+01,2.914501900671247203e-02
2.067999999999999972e+01,5.488701058355830581e-02
2.071999999999999886e+01,3.779580665803726480e-02
2.076000000000000156e+01,4.996198024449955560e-02
2.080000000000000071e+01,3.333857475393609687e-02
2.083999999999999986e+01,5.861180137044485344e-02
2.087999999999999901e+01,6.024477374367218779e-02
2.092000000000000171e+01,5.368547106780126310e-02
2.096000000000000085e+01,5.578623436726683898e-02
2.100000000000000000e+01,5.718465050179877968e-02
2.103999999999999915e+01,6.068944219331114109e-02
2.107999999999999829e+01,2.908502000153401906e-02
2.112000000000000099e+01,3.867504243157371402e-02
2.116000000000000014e+01,6.628753834568124059e-02
2.119999999999999929e+01,6.347202366156955156e-02
2.123999999999999844e+01,4.474023635325381776e-02
2.128000000000000114e+01,4.496716093340417247e-02
2.132000000000000028e+01,5.338602243149800919e-02
2.135999999999999943e+01,4.471830696440786540e-02
2.139999999999999858e+01,5.103027538429986965e-02
2.144000000000000128e+01,4.376656953745840933e-02
2.148000000000000043e+01,3.650268617773021890e-02
2.151999999999999957e+01,3.602637321274396176e-02
2.155999999999999872e+01,4.350793122911968125e-02
2.160000000000000142e+01,5.567051501767954214e-02
2.164000000000000057e+01,2.921296720706091990e-02
2.167999999999999972e+01,3.552367989648774760e-02
2.171999999999999886e+01,5.400534530367343683e-02
2.176000000000000156e+01,4.322928849759147957e-02
2.180000000000000071e+01,5.234817259847469179e-02
2.183999999999999986e+01,4.718919213159953469e-02
2.187999999999999901e+01,5.232867818778719204e-02
2.192000000000000171e+01,3.125322224189373832e-02
2.196000000000000085e+01,3.451984924440412716e-02
2.200000000000000000e+01,5.768141246093035773e-02
2.203999999999999915e+01,6.516074458649635803e-02
2.207999999999999829e+01,6.725649810436080955e-02
2.212000000000000099e+01,5.226565682383319672e-02
2.216000000000000014e+01,6.278719532397014635e-02
2.219999999999999929e+01,3.539076999979580418e-02
2.223999999999999844e+01,6.557298436986205847e-02
2.228000000000000114e+01,4.870888114179877659e-02
2.232000000000000028e+01,3.324894252071299711e-02
2.235999999999999943e+01,4.774852478314044191e-02
2.239999999999999858e+01,4.726804842242447041e-02
2.244000000000000128e+01,4.234022622686597903e-02
2.248000000000000043e+01,6.362695721837856311e-02
2.251999999999999957e+01,4.769789779198701368e-02
2.255999999999999872e+01,3.832232405195758196e-02
2.260000000000000142e+01,3.971332055045687093e-02
2.264000000000000057e+01,5.374336878923098582e-02
2.267999999999999972e+01,2.681265797506902221e-02
2.271999999999999886e+01,4.645974125509392400e-02
2.276000000000000156e+01,1.882643536886843827e-02
2.280000000000000071e+01,3.940934383494434229e-02
2.283999999999999986e+01,4.126721847271565963e-02
2.287999999999999901e+01,3.937991786628158158e-02
2.292000000000000171e+01,3.585398382242997034e-02
2.296000000000000085e+01,2.834881235215105932e-02
2.300000000000000000e+01,3.629140783534199471e-02
2.303999999999999915e+01,5.710710597795080196e-02
2.307999999999999829e+01,4.749474940861486694e-02
2.312000000000000099e+01,1.798705091563496811e-02
2.316000000000000014e+01,5.331383998563011400e-02
2.319999999999999929e+01,2.918909370270141024e-02
2.323999999999999844e+01,4.274783772069434828e-02
2.328000000000000114e+01,5.888102534471692517e-02
2.332000000000000028e+01,3.452155950844892213e-02
2.335999999999999943e+01,5.393114908842525090e-02
2.339999999999999858e+01,4.689170163345190989e-02
2.344000000000000128e+01,2.744683450745992112e-02
2.348000000000000043e+01,4.100424595000976696e-02
2.351999999999999957e+01,5.222082896116776729e-02
2.355999999999999872e+01,3.581806965780633123e-02
2.360000000000000142e+01,4.703419909125098469e-02
2.364000000000000057e+01,2.454541640190399318e-02
2.367999999999999972e+01,3.927199307890571339e-02
2.371999999999999886e+01,4.323156565005346896e-02
2.376000000000000156e+01,2.121021334902649380e-02
2.380000000000000071e+01,4.389414735992285682e-02
2.383999999999999986e+01,4.925738590801925776e-02
2.387999999999999901e+01,3.800210896985155296e-02
2.392000000000000171e+01,5.179104990430842548e-02
2.396000000000000085e+01,4.100342310389307188e-02
2.400000000000000000e+01,2.459811233841877401e-02
2.403999999999999915e+01,1.849121741215224712e-02
2.407999999999999829e+01,5.872802436297405726e-02
2.412000000000000099e+01,4.091763620355613751e-02
2.416000000000000014e+01,5.470514882639954807e-02
2.419999999999999929e+01,2.144629879879809964e-02
2.423999999999999844e+01,4.178701635022760708e-02
2.428000000000000114e+01,4.480702811436789584e-02
2.432000000000000028e+01,3.612378047363759559e-02
2.435999999999999943e+01,4.078172512894229218e-02
2.439999999999999858e+01,2.109715202992780078e-02
2.444000000000000128e+01,4.237288534472595514e-02
2.448000000000000043e+01,3.977421963810908595e-02
2.451999999999999957e+01,3.694124478073074896e-02
2.455999999999999872e+01,1.491507512559806653e-02
2.460000000000000142e+01,3.174266538454010439e-02
2.464000000000000057e+01,3.639886811980844877e-02
2.467999999999999972e+01,2.186187324155230982e-02
2.471999999999999886e+01,4.500833393639135094e-02
2.476000000000000156e+01,3.117301195733347338e-02
2.480000000000000071e+01,4.144564598175411868e-02
2.483999999999999986e+01,4.352591297526554881e-02
2.487999999999999901e+01,2.313613339171493449e-02
2.492000000000000171e+01,2.989709096141938624e-02
2.496000000000000085e+01,3.665778936091540485e-02
2.500000000000000000e+01,1.907595592724356873e-02
2.503999999999999915e+01,3.847538964282170432e-02
2.507999999999999829e+01,2.416987744637162649e-02
2.512000000000000099e+01,4.661157021694951885e-02
2.516000000000000014e+01,5.641374265210087613e-02
2.519999999999999929e+01,3.976683581575664317e-02
2.523999999999999844e+01,3.833358306680551691e-02
2.528000000000000114e+01,3.104855601287630912e-02
2.532000000000000028e+01,3.499815598344618861e-02
2.535999999999999943e+01,3.473440190715228887e-02
2.539999999999999858e+01,3.002323254036272718e-02
2.544000000000000128e+01,3.303578280667230499e-02
2.548000000000000043e+01,1.685511668765931823e-02
2.551999999999999957e+01,3.952818889515356121e-02
2.555999999999999872e+01,1.421862531997812769e-02
2.560000000000000142e+01,3.548678826051623186e-02
2.564000000000000057e+01,2.234781123364149372e-02
2.567999999999999972e+01,2.582683979992293419e-02
2.571999999999999886e+01,4.545575241068668115e-02
2.576000000000000156e+01,4.027399474499029908e-02
2.580000000000000071e+01,2.338894294659676215e-02
2.583999999999999986e+01,2.710091817271399056e-02
2.587999999999999901e+01,1.910959738895435731e-02
2.592000000000000171e+01,1.603326131471074015e-02
2.596000000000000085e+01,2.348935633240156751e-02
2.600000000000000000e+01,2.345523801520201304e-02
2.603999999999999915e+01,3.465572982788315409e-02
2.607999999999999829e+01,3.438698124277979329e-02
2.612000000000000099e+01,2.686207681205822137e-02
2.616000000000000014e+01,2.893335756015361429e-02
2.619999999999999929e+01,2.491878211066092183e-02
2.623999999999999844e+01,4.150122429978016225e-02
2.628000000000000114e+01,2.882583821497213331e-02
2.632000000000000028e+01,0.000000000000000000e+00
2.635999999999999943e+01,3.483827273560039656e-02
2.639999999999999858e+01,4.205713651679802989e-02
2.644000000000000128e+01,3.031682169155768339e-02
2.648000000000000043e+01,4.268442344901975799e-02
2.651999999999999957e+01,2.649637221614141447e-02
2.655999999999999872e+01,2.926690897786133130e-02
2.660000000000000142e+01,3.273932900231280030e-02
2.664000000000000057e+01,1.959316877779664068e-02
2.667999999999999972e+01,4.272605630521820325e-02
2.671999999999999886e+01,3.730328614934981524e-02
2.676000000000000156e+01,3.211427489176917754e-02
2.680000000000000071e+01,2.762714220397035833e-02
2.683999999999999986e+01,4.818415887173287809e-02
2.687999999999999901e+01,3.971739349176185707e-02
2.692000000000000171e+01,2.867565959521480717e-02
2.696000000000000085e+01,2.582573027543449973e-02
2.700000000000000000e+01,2.835888093332676607e-02
2.703999999999999915e+01,1.193283890593237716e-02
2.707999999999999829e+01,2.335966426306406926e-02
2.712000000000000099e+01,3.455211946109029014e-02
2.716000000000000014e+01,1.859326848158963930e-02
2.719999999999999929e+01,2.393359352966896794e-02
2.723999999999999844e+01,2.506052041715901152e-02
2.728000000000000114e+01,3.508142528782252911e-02
2.732000000000000028e+01,3.784614615517058883e-02
2.735999999999999943e+01,3.218438055540335380e-02
2.739999999999999858e+01,3.190568554740974561e-02
2.744000000000000128e+01,3.630787927747369803e-02
2.748000000000000043e+01,1.987838755742593264e-02
2.751999999999999957e+01,3.481265747304553015e-02
2.755999999999999872e+01,1.697816450423077911e-02
2.760000000000000142e+01,4.174232593592023394e-02
2.764000000000000057e+01,4.216389358750802230e-02
2.767999999999999972e+01,2.690309780695893452e-02
2.771999999999999886e+01,5.026192842543002887e-02
2.776000000000000156e+01,2.844679529929054762e-02
2.780000000000000071e+01,3.425045235801688071e-02
2.783999999999999986e+01,4.684153151427991602e-02
2.787999999999999901e+01,2.221669448159108856e-02
2.792000000000000171e+01,3.667959976505710123e-02
2.796000000000000085e+01,3.382171291096257304e-02
2.800000000000000000e+01,3.798530470508722917e-02
2.803999999999999915e+01,2.974336889035379336e-02
2.807999999999999829e+01,2.828884954161764442e-02
2.812000000000000099e+01,2.800429839928044243e-02
2.816000000000000014e+01,3.099625727013058385e-02
2.819999999999999929e+01,3.141321758952764914e-02
2.823999999999999844e+01,8.189750965100495161e-03
2.828000000000000114e+01,3.388455102128345997e-02
2.832000000000000028e+01,3.523674134133653740e-02
2.835999999999999943e+01,2.792836142448456779e-02
2.839999999999999858e+01,2.951393321028868491e-02
2.844000000000000128e+01,2.501359623747011554e-02
2.848000000000000043e+01,2.776878695483370879e-02
2.851999999999999957e+01,3.356641893303341506e-02
2.855999999999999872e+01,2.555414927045429607e-02
2.860000000000000142e+01,1.356250984027091572e-02
2.864000000000000057e+01,1.116699739633032068e-02
2.867999999999999972e+01,3.521995296306738160e-02
2.871999999999999886e+01,3.469622910273357369e-02
2.876000000000000156e+01,7.723342436402476884e-03
2.880000000000000071e+01,2.498750414817256515e-02
2.883999999999999986e+01,2.773957673390848450e-02
2.887999999999999901e+01,3.002317755754093515e-02
2.892000000000000171e+01,2.388025530905181146e-02
2.896000000000000085e+01,3.014217619859029668e-02
2.900000000000000000e+01,2.353042634302895605e-02
2.903999999999999915e+01,4.313307574579430120e-02
2.907999999999999829e+01,1.522112738006208867e-02
2.912000000000000099e+01,2.592877256270329639e-02
2.916000000000000014e+01,3.382733636269177890e-02
2.919999999999999929e+01,3.072470716496707166e-02
2.923999999999999844e+01,2.457893440236768451e-02
2.928000000000000114e+01,2.358212781277437692e-02
2.932000000000000028e+01,2.726616584751295758e-02
2.935999999999999943e+01,2.626863536631323173e-02
2.939999999999999858e+01,3.580345525831594988e-02
2.944000000000000128e+01,9.292623881570614974e-03
2.948000000000000043e+01,2.280573943614174620e-02
2.951999999999999957e+01,1.338057892713772831e-02
2.955999999999999872e+01,3.134010700000167821e-02
2.960000000000000142e+01,3.525564872370713643e-02
2.964000000000000057e+01,1.295606729747954960e-02
2.967999999999999972e+01,2.108395560289636622e-02
2.971999999999999886e+01,3.436079975683015153e-02
2.976000000000000156e+01,9.485442387918504789e-03
2.980000000000000071e+01,3.703922060883078210e-02
2.983999999999999986e+01,1.754650383812123710e-02
2.987999999999999901e+01,2.356598570022426856e-02
2.992000000000000171e+01,1.437117217923952750e-02
2.996000000000000085e+01,2.413486687271116857e-02
3.000000000000000000e+01,5.004834518154506473e-02
3.003999999999999915e+01,2.914938411084965972e-02
3.007999999999999829e+01,5.506210473884051715e-02
3.012000000000000099e+01,4.001389173617258405e-02
3.016000000000000014e+01,5.141411201635589373e-02
3.019999999999999929e+01,2.372587922903676011e-02
3.023999999999999844e+01,3.980654042049806829e-02
3.028000000000000114e+01,1.820310849752920790e-02
3.032000000000000028e+01,1.485599542658141460e-02
3.035999999999999943e+01,2.999926057410692501e-02
3.039999999999999858e+01,3.718408853176826540e-02
3.044000000000000128e+01,2.681400585425294456e-02
3.048000000000000043e+01,2.650812759792861573e-02
3.051999999999999957e+01,3.696863373933144403e-02
3.055999999999999872e+01,3.830039741130049358e-02
3.060000000000000142e+01,3.729116652146407390e-02
3.064000000000000057e+01,3.557936226652650552e-02
3.067999999999999972e+01,3.269686309781370120e-02
3.071999999999999886e+01,5.181563827589524135e-02
3.076000000000000156e+01,2.763286175545942927e-02
3.080000000000000071e+01,4.323994088783109091e-02
3.083999999999999986e+01,5.135669311593359793e-02
3.087999999999999901e+01,4.262070529949656822e-02
3.092000000000000171e+01,5.401350469656818892e-02
3.096000000000000085e+01,5.136228583242457429e-02
3.100000000000000000e+01,5.854119888276120703e-02
3.103999999999999915e+01,6.431534826697152263e-02
3.107999999999999829e+01,5.464111474394479917e-02
3.112000000000000099e+01,7.375589502803170383e-02
3.116000000000000014e+01,6.431491344534898125e-02
3.119999999999999929e+01,8.202452165730605982e-02
3.123999999999999844e+01,9.458439662951496907e-02
3.128000000000000114e+01,1.043351404738061122e-01
3.132000000000000028e+01,1.295334560448666017e-01
3.135999999999999943e+01,1.320275126822582079e-01
3.139999999999999858e+01,1.478625964238612644e-01
3.144000000000000128e+01,1.833583345672201159e-01
3.148000000000000043e+01,2.179174193300477680e-01
3.151999999999999957e+01,2.583275986199726204e-01
3.155999999999999872e+01,3.010779669227746091e-01
3.160000000000000142e+01,3.471047645200319165e-01
3.164000000000000057e+01,4.088131866403811876e-01
3.167999999999999972e+01,4.335396637107796214e-01
3.171999999999999886e+01,4.556910596338132891e-01
3.176000000000000156e+01,5.010140070255136857e-01
3.180000000000000071e+01,5.259732882094766415e-01
3.183999999999999986e+01,5.160571633345070186e-01
3.187999999999999901e+01,5.026297123376450848e-01
3.192000000000000171e+01,4.892018388559309927e-01
3.196000000000000085e+01,4.575168381574977183e-01
3.200000000000000000e+01,4.415134535348472777e-01
3.203999999999999915e+01,3.721438940619959945e-01
3.207999999999999829e+01,3.310952052600165119e-01
3.211999999999999744e+01,2.872373656197311775e-01
3.215999999999999659e+01,2.922977016168350484e-01
3.220000000000000284e+01,2.229264315555971321e-01
3.224000000000000199e+01,2.029414558646525646e-01
3.228000000000000114e+01,1.733595767348242167e-01
3.232000000000000028e+01,1.795884924056726506e-01
3.235999999999999943e+01,1.385367936486932294e-01
3.239999999999999858e+01,1.225291137832781596e-01
3.243999999999999773e+01,1.081594213666362825e-01
3.247999999999999687e+01,1.150887810837067649e-01
3.252000000000000313e+01,1.063356637992615567e-01
3.256000000000000227e+01,8.892187772597122397e-02
3.260000000000000142e+01,1.052123371378501787e-01
3.264000000000000057e+01,7.562653738202410048e-02
3.267999999999999972e+01,9.332047892662426181e-02
3.271999999999999886e+01,9.697036091205343822e-02
3.275999999999999801e+01,4.912653359299936490e-02
3.279999999999999716e+01,5.043492719893798854e-02
3.284000000000000341e+01,5.384941947783471183e-02
3.288000000000000256e+01,6.428527589698200539e-02
3.292000000000000171e+01,7.308226423123528881e-02
3.296000000000000085e+01,9.756084611511381399e-02
3.300000000000000000e+01,3.942511149360742873e-01
3.303999999999999915e+01,4.390920467664587989e-01
3.307999999999999829e+01,1.356507949903677512e-01
3.311999999999999744e+01,6.065195029273254268e-02
3.315999999999999659e+01,5.610480583160408485e-02
3.320000000000000284e+01,4.757818366503224067e-02
3.324000000000000199e+01,5.730781183341838309e-02
3.328000000000000114e+01,4.995058333682850932e-02
3.332000000000000028e+01,7.746788495599975233e-02
3.335999999999999943e+01,5.302334258175521453e-02
3.339999999999999858e+01,5.338873532928542498e-02
3.343999999999999773e+01,5.351960962050499038e-02
3.347999999999999687e+01,7.494951258068931199e-02
3.352000000000000313e+01,6.946202043259362691e-02
3.356000000000000227e+01,7.965610775527449949e-02
3.360000000000000142e+01,6.761400419333582490e-02
3.364000000000000057e+01,6.750851334432179940e-02
3.367999999999999972e+01,8.636144342090271153e-02
3.371999999999999886e+01,8.742532559289270533e-02
3.375999999999999801e+01,8.310535508892850920e-02
3.379999999999999716e+01,7.831679737630253824e-02
3.384000000000000341e+01,9.857222476600430161e-02
3.388000000000000256e+01,1.199974852051585994e-01
3.392000000000000171e+01,1.205909090812262024e-01
3.396000000000000085e+01,1.359296618220031116e-01
3.400000000000000000e+01,1.468207974754546230e-01
3.403999999999999915e+01,1.818196723181163266e-01
3.407999999999999829e+01,1.884967770819871991e-01
3.411999999999999744e+01,2.085148451259559166e-01
3.415999999999999659e+01,2.430441770366424392e-01
3.420000000000000284e+01,2.445705299519283227e-01
3.424000000000000199e+01,2.947809493928861269e-01
3.428000000000000114e+01,3.201804986377340678e-01
3.432000000000000028e+01,3.530694988436797188e-01
3.435999999999999943e+01,3.426568628780164438e-01
3.439999999999999858e+01,3.554157164340862041e-01
3.443999999999999773e+01,3.262772937716193478e-01
3.447999999999999687e+01,3.451207510881589280e-01
3.452000000000000313e+01,3.178538448182257614e-01
3.456000000000000227e+01,2.905864541165067427e-01
3.460000000000000142e+01,2.759578345166804891e-01
3.464000000000000057e+01,2.411995423742752387e-01
3.467999999999999972e+01,2.457628942313725418e-01
3.471999999999999886e+01,2.182594961115685295e-01
3.475999999999999801e+01,1.879468852065246387e-01
3.479999999999999716e+01,1.873594429784911641e-01
3.484000000000000341e+01,1.720257105308954648e-01
3.488000000000000256e+01,1.431159884503577506e-01
3.492000000000000171e+01,1.413567688755983931e-01
3.496000000000000085e+01,1.330433669419776865e-01
3.500000000000000000e+01,1.301128572680483320e-01
3.503999999999999915e+01,1.276499725093380999e-01
3.507999999999999829e+01,1.172285407457446110e-01
3.511999999999999744e+01,9.650795798825792526e-02
3.515999999999999659e+01,9.708636447895979682e-02
3.520000000000000284e+01,9.298306541959698579e-02
3.524000000000000199e+01,1.010504018346044669e-01
3.528000000000000114e+01,1.077128750929555040e-01
3.532000000000000028e+01,1.150770270014384311e-01
3.535999999999999943e+01,1.018433688626400324e-01
3.539999999999999858e+01,1.291016393539359819e-01
3.543999999999999773e+01,1.175053941274937230e-01
3.547999999999999687e+01,1.524866435850582846e-01
3.552000000000000313e+01,1.247392243334195655e-01
3.556000000000000227e+01,1.531657703953303862e-01
3.560000000000000142e+01,1.425037366801014393e-01
3.564000000000000057e+01,1.695249023029231639e-01
3.567999999999999972e+01,1.808635167756265649e-01
3.571999999999999886e+01,2.090539615604617985e-01
3.575999999999999801e+01,2.227321548432089626e-01
3.579999999999999716e+01,2.453041261894794989e-01
3.584000000000000341e+01,2.650668594085828778e-01
3.588000000000000256e+01,3.246193290795757469e-01
3.592000000000000171e+01,3.593608900722723432e-01
3.596000000000000085e+01,3.966765971379983546e-01
3.600000000000000000e+01,4.250974943911052240e-01
3.603999999999999915e+01,4.673274304820784208e-01
3.607999999999999829e+01,4.931726251219081258e-01
3.611999999999999744e+01,5.236985048257858377e-01
3.615999999999999659e+01,5.605434907904157660e-01
3.620000000000000284e+01,6.069844263477959245e-01
3.624000000000000199e+01,6.309550487685807729e-01
3.628000000000000114e+01,6.331575380293064104e-01
3.632000000000000028e+01,6.412110091863405525e-01
3.635999999999999943e+01,5.970685056506739308e-01
3.639999999999999858e+01,5.709481179963207254e-01
3.643999999999999773e+01,5.977248307359509516e-01
3.647999999999999687e+01,5.170673339771953980e-01
3.652000000000000313e+01,4.682415082814623264e-01
3.656000000000000227e+01,4.053715329219271246e-01
3.660000000000000142e+01,4.094422725045366307e-01
3.664000000000000057e+01,3.428262667259969199e-01
3.667999999999999972e+01,2.844018374468765820e-01
3.671999999999999886e+01,2.791085622966524293e-01
3.675999999999999801e+01,2.340244992350552500e-01
3.679999999999999716e+01,2.317729350033256863e-01
3.684000000000000341e+01,2.093916466065722237e-01
3.688000000000000256e+01,1.741365025625075391e-01
3.692000000000000171e+01,1.756282866014485244e-01
3.696000000000000085e+01,1.605012482352262404e-01
3.700000000000000000e+01,1.416287033025613318e-01
3.703999999999999915e+01,1.302455455068808055e-01
3.707999999999999829e+01,1.127762762171577587e-01
3.711999999999999744e+01,1.100522616435415935e-01
3.715999999999999659e+01,1.103704855953416414e-01
3.720000000000000284e+01,9.641048456085912766e-02
3.724000000000000199e+01,9.040798658049534198e-02
3.728000000000000114e+01,1.040660059677611105e-01
3.732000000000000028e+01,9.338120443616784727e-02
3.735999999999999943e+01,9.673947107401605072e-02
3.739999999999999858e+01,9.518192023431257254e-02
3.743999999999999773e+01,1.008796868406522801e-01
3.747999999999999687e+01,1.082153226334369861e-01
3.752000000000000313e+01,1.398926762631519383e-01
3.756000000000000227e+01,1.551852537138970478e-01
3.760000000000000142e+01,1.669663708243930289e-01
3.764000000000000057e+01,2.136219166829402549e-01
3.767999999999999972e+01,2.307853064643951291e-01
3.771999999999999886e+01,2.828231231167214199e-01
3.775999999999999801e+01,2.960063696130950106e-01
3.779999999999999716e+01,3.325950861561014493e-01
3.784000000000000341e+01,3.314995321911854975e-01
3.788000000000000256e+01,3.243178479604288955e-01
3.792000000000000171e+01,3.115181531353259370e-01
3.796000000000000085e+01,2.739075017638414322e-01
3.800000000000000000e+01,2.271679333452004956e-01
3.803999999999999915e+01,1.893220904290483231e-01
3.807999999999999829e+01,1.828397613608280514e-01
3.811999999999999744e+01,1.330557078935477866e-01
3.815999999999999659e+01,1.181460709726498831e-01
3.820000000000000284e+01,9.644811536206614189e-02
3.824000000000000199e+01,6.725965920808056608e-02
3.828000000000000114e+01,6.873253129395147376e-02
3.832000000000000028e+01,6.692798644999703450e-02
3.835999999999999943e+01,5.599451611157701264e-02
3.839999999999999858e+01,5.091197886279028029e-02
3.843999999999999773e+01,3.318960966672791779e-02
3.847999999999999687e+01,4.121329761169022915e-02
3.852000000000000313e+01,3.870369447757520537e-02
3.856000000000000227e+01,4.110877945856584309e-02
3.860000000000000142e+01,2.666094324716505176e-02
3.864000000000000057e+01,3.655479859217711930e-02
3.867999999999999972e+01,4.223498733988663434e-02
3.871999999999999886e+01,3.410503604498115598e-02
3.875999999999999801e+01,4.984865288063479449e-02
3.879999999999999716e+01,2.650361485195625380e-02
3.884000000000000341e+01,2.913868582203512497e-02
3.888000000000000256e+01,3.739061831362654187e-02
3.892000000000000171e+01,3.230052667973731806e-02
3.896000000000000085e+01,1.550683211707176365e-02
3.900000000000000000e+01,3.616219774586280217e-02
3.903999999999999915e+01,2.217604867458031204e-02
3.907999999999999829e+01,2.129668619320518319e-02
3.911999999999999744e+01,3.843937576902976827e-02
3.915999999999999659e+01,2.562175392985143949e-02
3.920000000000000284e+01,1.795286549338218768e-02
3.924000000000000199e+01,2.783790568825901535e-02
3.928000000000000114e+01,3.210490337673253119e-02
3.932000000000000028e+01,3.309446067063302743e-02
3.935999999999999943e+01,3.665808425742095311e-02
3.939999999999999858e+01,1.564477781363277781e-02
3.943999999999999773e+01,3.371894337210626369e-02
3.947999999999999687e+01,1.668346329593329083e-02
3.952000000000000313e+01,5.967010638960308297e-03
3.956000000000000227e+01,2.076252947604247806e-02
3.960000000000000142e+01,3.391902348371641368e-02
3.964000000000000057e+01,3.045663220070327776e-02
3.967999999999999972e+01,2.278055085563986809e-02
3.971999999999999886e+01,2.516845711749914408e-02
3.975999999999999801e+01,1.538462106869997563e-02
3.979999999999999716e+01,2.175033868073588186e-02
3.984000000000000341e+01,4.590403115031128217e-02
3.988000000000000256e+01,2.043632968673624040e-02
3.992000000000000171e+01,1.486314394889892872e-02
3.996000000000000085e+01,1.350243256039450508e-02
4.000000000000000000e+01,7.928023601120624819e-03
4.003999999999999915e+01,3.605768554929349168e-02
4.007999999999999829e+01,2.931174808901322593e-02
4.011999999999999744e+01,2.818264305395841440e-02
4.015999999999999659e+01,2.190359547360641937e-02
4.020000000000000284e+01,2.639070515222421975e-02
4.024000000000000199e+01,2.830253376382720065e-02
4.028000000000000114e+01,1.687230633789278331e-02
4.032000000000000028e+01,2.767718830221719065e-02
4.035999999999999943e+01,3.426836424846284312e-02
4.039999999999999858e+01,2.962402408677968640e-02
4.043999999999999773e+01,2.123409663992199478e-02
4.047999999999999687e+01,8.162339749131913846e-03
4.052000000000000313e+01,1.334666236993682295e-02
4.056000000000000227e+01,3.140367654778058321e-02
4.060000000000000142e+01,2.979899894323336657e-02
4.064000000000000057e+01,1.555443776896556739e-02
4.067999999999999972e+01,2.518339967294162818e-02
4.071999999999999886e+01,1.725720972413499060e-02
4.075999999999999801e+01,2.945957609572013094e-02
4.079999999999999716e+01,2.387272843230082292e-02
4.084000000000000341e+01,3.841443521209333273e-02
4.088000000000000256e+01,2.533639326793716770e-02
4.092000000000000171e+01,2.302449168813245836e-02
4.096000000000000085e+01,2.984030739879528840e-02
4.100000000000000000e+01,2.752713566805862697e-02
4.103999999999999915e+01,4.300191063716427703e-02
4.107999999999999829e+01,2.734602761374134439e-02
4.111999999999999744e+01,4.937321534155194452e-02
4.115999999999999659e+01,1.873619513578895016e-02
4.120000000000000284e+01,2.788878654945787725e-02
4.124000000000000199e+01,2.018839482380146641e-02
4.128000000000000114e+01,4.431956246896859991e-02
4.132000000000000028e+01,3.685194587998380511e-02
4.135999999999999943e+01,5.232159519304617479e-02
4.139999999999999858e+01,3.244749351410457922e-02
4.143999999999999773e+01,4.042592226591271154e-02
4.147999999999999687e+01,4.746746298971305650e-02
4.152000000000000313e+01,4.116691857968885621e-02
4.156000000000000227e+01,3.720632853506520427e-02
4.160000000000000142e+01,6.460916974246187772e-02
4.164000000000000057e+01,5.713637493639910081e-02
4.167999999999999972e+01,7.470738126904249987e-02
4.171999999999999886e+01,9.859736339844098196e-02
4.175999999999999801e+01,1.175714257439880311e-01
4.179999999999999716e+01,1.229693360805393237e-01
4.184000000000000341e+01,1.683909033241259567e-01
4.188000000000000256e+01,2.084284273580074009e-01
4.192000000000000171e+01,2.573595858511565915e-01
4.196000000000000085e+01,2.894377443103622327e-01
4.200000000000000000e+01,3.086419269827485046e-01
4.203999999999999915e+01,2.829058711389696446e-01
4.207999999999999829e+01,2.878310543690061896e-01
4.211999999999999744e+01,2.506247208662021331e-01
4.215999999999999659e+01,2.248866795465884749e-01
4.220000000000000284e+01,1.818275119514076721e-01
4.224000000000000199e+01,1.469597903916493309e-01
4.228000000000000114e+01,1.284756246051940720e-01
4.232000000000000028e+01,1.025008625391665568e-01
4.235999999999999943e+01,8.986687040371604818e-02
4.239999999999999858e+01,6.763573736613541498e-02
4.243999999999999773e+01,7.372523190464082277e-02
4.247999999999999687e+01,8.964458898232335882e-02
4.252000000000000313e+01,6.179399780597200770e-02
4.256000000000000227e+01,8.145697640338220302e-02
4.260000000000000142e+01,7.396828652756159972e-02
4.264000000000000057e+01,7.794787757185256405e-02
4.267999999999999972e+01,7.794776846489236133e-02
4.271999999999999886e+01,8.754345596052780232e-02
4.275999999999999801e+01,1.050965169848749464e-01
4.279999999999999716e+01,1.167973926018650299e-01
4.284000000000000341e+01,1.174967551619839068e-01
4.288000000000000256e+01,1.413674082627755513e-01
4.292000000000000171e+01,1.947289792017845023e-01
4.296000000000000085e+01,2.462173861647910245e-01
4.300000000000000000e+01,3.590289105745488318e-01
4.303999999999999915e+01,4.287726554437300552e-01
4.307999999999999829e+01,4.577892228841649036e-01
4.311999999999999744e+01,4.374183806707089284e-01
4.315999999999999659e+01,4.638589132370398715e-01
4.320000000000000284e+01,4.746167181983499406e-01
4.324000000000000199e+01,5.127588907437801158e-01
4.328000000000000114e+01,5.537090979053287398e-01
4.332000000000000028e+01,6.618339226309598589e-01
4.335999999999999943e+01,7.591912824030931928e-01
4.339999999999999858e+01,8.322056785907013809e-01
4.343999999999999773e+01,9.761396544072946657e-01
4.347999999999999687e+01,1.000000000000000000e+00
4.352000000000000313e+01,9.744729265529155082e-01
4.356000000000000227e+01,9.585416299980383803e-01
4.360000000000000142e+01,8.709871835472003943e-01
4.364000000000000057e+01,7.352156167660131025e-01
4.367999999999999972e+01,6.137210301621037756e-01
4.371999999999999886e+01,5.050990609666308195e-01
4.375999999999999801e+01,4.025619593947856178e-01
4.379999999999999716e+01,3.423890717894905733e-01
4.384000000000000341e+01,2.595116324104760341e-01
4.388000000000000256e+01,2.194665257309156570e-01
4.392000000000000171e+01,1.674836394323885591e-01
4.396000000000000085e+01,1.426510435183210301e-01
4.400000000000000000e+01,1.199242844106277739e-01
4.403999999999999915e+01,1.191984870992899709e-01
4.407999999999999829e+01,9.132098658689491444e-02
4.411999999999999744e+01,8.591256660375946874e-02
4.415999999999999659e+01,8.869554760373109248e-02
4.420000000000000284e+01,6.573118441712781646e-02
4.424000000000000199e+01,6.944898443477064143e-02
4.428000000000000114e+01,5.888839333571745105e-02
4.432000000000000028e+01,5.394453610994948828e-02
4.435999999999999943e+01,5.297898968358270844e-02
4.439999999999999858e+01,5.341708976256499125e-02
4.443999999999999773e+01,6.579154913519712211e-02
4.447999999999999687e+01,4.258812493936050408e-02
4.452000000000000313e+01,4.372625432722062472e-02
4.456000000000000227e+01,4.462960433077611117e-02
4.460000000000000142e+01,3.102049540387425905e-02
4.464000000000000057e+01,3.917827388943725953e-02
4.467999999999999972e+01,3.680261675307736069e-02
4.471999999999999886e+01,4.097992532427164464e-02
4.475999999999999801e+01,3.836876127703549300e-02
4.479999999999999716e+01,3.692717404420731847e-02
4.484000000000000341e+01,3.361237872165116769e-02
4.488000000000000256e+01,4.363829419850789176e-02
4.492000000000000171e+01,3.610895927064188687e-02
4.496000000000000085e+01,4.332469509526113566e-02
4.500000000000000000e+01,5.545496792201105862e-02
4.503999999999999915e+01,3.598636922574777186e-02
4.507999999999999829e+01,3.875276822754440686e-02
4.511999999999999744e+01,2.841105792746696779e-02
4.515999999999999659e+01,2.509042362053881536e-02
4.520000000000000284e+01,2.879086436816990363e-02
4.524000000000000199e+01,4.630012807798893765e-02
4.528000000000000114e+01,3.829608256434748059e-02
4.532000000000000028e+01,4.550521996596616769e-02
4.535999999999999943e+01,4.592587067030570042e-02
4.539999999999999858e+01,3.440870702785202989e-02
4.543999999999999773e+01,3.318945707900631398e-02
4.547999999999999687e+01,1.581930541543136517e-02
4.552000000000000313e+01,4.385611132458661771e-02
4.556000000000000227e+01,4.708178235527824690e-02
4.560000000000000142e+01,2.058105116303405452e-02
4.564000000000000057e+01,3.761479228741423930e-02
4.567999999999999972e+01,2.983739571756111389e-02
4.571999999999999886e+01,2.978324291572453930e-02
4.575999999999999801e+01,3.066458409709624244e-02
4.579999999999999716e+01,4.301413204997690809e-02
4.584000000000000341e+01,3.406344312989477430e-02
4.588000000000000256e+01,3.821938123943596083e-02
4.592000000000000171e+01,4.518329201816187468e-02
4.596000000000000085e+01,4.020937530983586389e-02
4.600000000000000000e+01,3.429846451284251224e-02
4.603999999999999915e+01,2.557807624825589321e-02
4.607999999999999829e+01,2.504904391446079182e-02
4.611999999999999744e+01,2.756203986194289898e-02
4.615999999999999659e+01,2.492495247564182823e-02
4.620000000000000284e+01,3.399012277999282489e-02
4.624000000000000199e+01,2.947903689186823564e-02
4.628000000000000114e+01,2.192440759956906446e-02
4.632000000000000028e+01,3.285978202837042811e-02
4.635999999999999943e+01,2.600581195817038352e-02
4.639999999999999858e+01,3.225845671592485198e-02
4.643999999999999773e+01,4.178718255127936154e-02
4.647999999999999687e+01,4.054837022312311051e-02
4.652000000000000313e+01,4.024503404496699438e-02
4.656000000000000227e+01,4.672868070427133730e-02
4.660000000000000142e+01,3.261425357253069923e-02
4.664000000000000057e+01,5.313998370107030772e-02
4.667999999999999972e+01,4.885455267062893681e-02
4.671999999999999886e+01,5.322858316362450576e-02
4.675999999999999801e+01,4.496258648264389590e-02
4.679999999999999716e+01,5.050537615884482384e-02
4.684000000000000341e+01,4.808934288472999086e-02
4.688000000000000256e+01,5.175810402423040163e-02
4.692000000000000171e+01,5.214924643707555957e-02
4.696000000000000085e+01,3.334666844181863321e-02
4.700000000000000000e+01,5.246108353012105679e-02
4.703999999999999915e+01,5.284989694322560910e-02
4.707999999999999829e+01,5.908943977195380004e-02
4.711999999999999744e+01,7.047753016258975767e-02
4.715999999999999659e+01,7.320460917906469744e-02
4.720000000000000284e+01,7.710120869455329429e-02
4.724000000000000199e+01,7.093243312844903226e-02
4.728000000000000114e+01,6.640129679426262643e-02
4.732000000000000028e+01,7.146584912483271157e-02
4.735999999999999943e+01,9.502038077316578291e-02
4.739999999999999858e+01,7.340048782924434023e-02
4.743999999999999773e+01,9.367660283010748046e-02
4.747999999999999687e+01,8.235378905397304494e-02
4.752000000000000313e+01,7.711575467401537987e-02
4.756000000000000227e+01,8.123934302223261017e-02
4.760000000000000142e+01,8.606432187348049545e-02
4.764000000000000057e+01,7.450428802110206639e-02
4.767999999999999972e+01,8.166828628280937974e-02
4.771999999999999886e+01,9.023585314690360515e-02
4.775999999999999801e+01,7.820531900084556898e-02
4.779999999999999716e+01,9.683588971024637004e-02
4.784000000000000341e+01,8.620812624576050520e-02
4.788000000000000256e+01,8.634633983098251309e-02
4.792000000000000171e+01,8.461127305505362906e-02
4.796000000000000085e+01,6.766148759198935270e-02
4.800000000000000000e+01,7.201039008975371192e-02
4.803999999999999915e+01,7.331570788538747940e-02
4.807999999999999829e+01,5.870412326298997396e-02
4.811999999999999744e+01,6.749776653102958213e-02
4.815999999999999659e+01,4.586276659125329558e-02
4.820000000000000284e+01,5.114389724036454143e-02
4.824000000000000199e+01,5.759452398515187144e-02
4.828000000000000114e+01,4.602170087358028322e-02
4.832000000000000028e+01,3.959739716621922534e-02
4.835999999999999943e+01,4.627966229590720071e-02
4.839999999999999858e+01,4.874803275094540672e-02
4.843999999999999773e+01,4.981123125324801726e-02
4.847999999999999687e+01,5.063955838943517973e-02
4.852000000000000313e+01,5.053083230579103607e-02
4.856000000000000227e+01,5.954964518053220551e-02
4.860000000000000142e+01,3.720356330280041868e-02
4.864000000000000057e+01,3.639021467350084943e-02
4.867999999999999972e+01,3.557605029017834458e-02
4.871999999999999886e+01,3.710167226466313389e-02
4.875999999999999801e+01,3.698805447265110513e-02
4.879999999999999716e+01,2.868150743437592257e-02
4.884000000000000341e+01,4.471641261208763457e-02
4.888000000000000256e+01,4.413221568484388541e-02
4.892000000000000171e+01,3.933411188128155267e-02
4.896000000000000085e+01,3.453518575356692016e-02
4.900000000000000000e+01,4.214063253033684120e-02
4.903999999999999915e+01,4.787277266543857324e-02
4.907999999999999829e+01,3.581550447742523624e-02
4.911999999999999744e+01,1.860808349997573191e-02
4.915999999999999659e+01,3.299797668609622675e-02
4.920000000000000284e+01,3.451372513921425328e-02
4.924000000000000199e+01,3.860330805351287753e-02
4.928000000000000114e+01,2.466941764670486231e-02
4.932000000000000028e+01,3.250230483734271175e-02
4.935999999999999943e+01,3.331255116666877875e-02
4.939999999999999858e+01,3.950535186331992354e-02
4.943999999999999773e+01,4.522919836265591048e-02
4.947999999999999687e+01,3.246144623785173627e-02
4.952000000000000313e+01,2.531030596964493548e-02
4.956000000000000227e+01,3.945781705726056354e-02
4.960000000000000142e+01,2.879409846883187324e-02
4.964000000000000057e+01,4.270587362963399608e-02
4.967999999999999972e+01,1.331565313889298413e-02
4.971999999999999886e+01,2.816199014373205189e-02
4.975999999999999801e+01,3.270883263077212916e-02
4.979999999999999716e+01,2.906272240680138688e-02
4.984000000000000341e+01,2.003238219373415854e-02
4.988000000000000256e+01,2.738541942188770992e-02
4.992000000000000171e+01,2.888610417368091612e-02
4.996000000000000085e+01,3.483308893237244824e-02
5.000000000000000000e+01,3.188493537197761851e-02
5.003999999999999915e+01,2.963811506062908468e-02
5.007999999999999829e+01,4.330654688746780889e-02
5.011999999999999744e+01,3.403621927692966620e-02
5.015999999999999659e+01,3.342527247109654265e-02
5.020000000000000284e+01,1.947203685742927848e-02
5.024000000000000199e+01,2.751961755868203435e-02
5.028000000000000114e+01,3.439604343710547102e-02
5.032000000000000028e+01,4.033537385915180601e-02
5.035999999999999943e+01,3.503895446438247407e-02
5.039999999999999858e+01,2.365611102513190400e-02
5.043999999999999773e+01,3.404001890280976272e-02
5.047999999999999687e+01,3.108163140252417564e-02
5.052000000000000313e+01,3.093110863358410068e-02
5.056000000000000227e+01,2.305573593050904563e-02
5.060000000000000142e+01,3.203184438412051693e-02
5.064000000000000057e+01,4.147521170288767656e-02
5.067999999999999972e+01,3.664003773057373375e-02
5.071999999999999886e+01,3.250618105127776186e-02
5.075999999999999801e+01,3.375484682724999574e-02
5.079999999999999716e+01,3.500264710393419937e-02
5.084000000000000341e+01,1.658851531921149910e-02
5.088000000000000256e+01,1.736646117146604940e-02
5.092000000000000171e+01,3.359151884143583150e-02
5.096000000000000085e+01,3.460178743002715468e-02
5.100000000000000000e+01,2.367411026923827225e-02
5.103999999999999915e+01,2.070361234905041675e-02
5.107999999999999829e+01,2.545623242583175405e-02
5.111999999999999744e+01,3.020797949460581749e-02
5.115999999999999659e+01,2.348989766972411561e-02
5.120000000000000284e+01,3.455952414284840096e-02
5.124000000000000199e+01,3.392525954009506517e-02
5.128000000000000114e+01,2.720455024388256787e-02
5.132000000000000028e+01,3.522876246436013742e-02
5.135999999999999943e+01,1.141989455957722818e-02
5.139999999999999858e+01,2.365543405312782108e-02
5.143999999999999773e+01,1.622902740642281211e-02
5.147999999999999687e+01,3.080340797835072475e-02
5.152000000000000313e+01,3.414201151435569681e-02
5.156000000000000227e+01,2.203175158509153991e-02
5.160000000000000142e+01,2.513452721247225533e-02
5.164000000000000057e+01,2.238491000412654378e-02
5.167999999999999972e+01,2.642215549373334860e-02
5.171999999999999886e+01,2.460700627043402658e-02
5.175999999999999801e+01,3.121714000320142263e-02
5.179999999999999716e+01,2.425088707949646025e-02
5.184000000000000341e+01,2.102870913383816237e-02
5.188000000000000256e+01,2.763617315872898134e-02
5.192000000000000171e+01,2.511439350717590765e-02
5.196000000000000085e+01,2.352796235739564729e-02
5.200000000000000000e+01,3.785673829348717295e-02
5.203999999999999915e+01,2.643798607938209477e-02
5.207999999999999829e+01,2.812571541346485168e-02
5.211999999999999744e+01,2.723788491933060163e-02
5.215999999999999659e+01,2.073170969284318307e-02
5.220000000000000284e+01,2.124644526768148037e-02
5.224000000000000199e+01,3.369735711113792942e-02
5.228000000000000114e+01,3.725307713588333486e-02
5.232000000000000028e+01,2.933894104786563192e-02
5.235999999999999943e+01,2.704135017656194781e-02
5.239999999999999858e+01,2.778564022792027674e-02
5.243999999999999773e+01,2.759278507763638158e-02
5.247999999999999687e+01,3.137805019300263926e-02
5.252000000000000313e+01,2.954496212870669214e-02
5.256000000000000227e+01,3.239217336800715580e-02
5.260000000000000142e+01,2.564200436475127035e-02
5.264000000000000057e+01,2.848739919379433133e-02
5.267999999999999972e+01,3.390654776528594094e-02
5.271999999999999886e+01,2.411086595744318245e-02
5.275999999999999801e+01,3.093255431739003886e-02
5.279999999999999716e+01,3.447648597796546671e-02
5.284000000000000341e+01,3.521078061066346132e-02
5.288000000000000256e+01,3.594416093739836310e-02
5.292000000000000171e+01,3.433602296916017649e-02
5.296000000000000085e+01,2.710952149677070544e-02
5.300000000000000000e+01,3.392572120516924167e-02
5.303999999999999915e+01,3.816633949778291957e-02
5.307999999999999829e+01,2.648993804862701668e-02
5.311999999999999744e+01,2.511127008381716999e-02
5.315999999999999659e+01,2.045483697232677867e-02
5.320000000000000284e+01,3.592666827976707944e-02
5.324000000000000199e+01,4.367358676754874020e-02
5.328000000000000114e+01,3.035415410968700031e-02
5.332000000000000028e+01,2.733245024322184316e-02
5.335999999999999943e+01,4.326870551611774335e-02
5.339999999999999858e+01,3.345740072676027521e-02
5.343999999999999773e+01,3.136915855756750721e-02
5.347999999999999687e+01,2.764156586826889764e-02
5.352000000000000313e+01,4.076538581859368016e-02
5.356000000000000227e+01,3.329096866322982934e-02
5.360000000000000142e+01,2.862434396778861662e-02
5.364000000000000057e+01,2.419084743821818539e-02
5.367999999999999972e+01,3.075725216786110577e-02
5.371999999999999886e+01,2.561970762905230181e-02
5.375999999999999801e+01,4.575974107983984962e-02
5.379999999999999716e+01,2.798106922029025556e-02
5.384000000000000341e+01,3.360749103282122813e-02
5.388000000000000256e+01,2.823214073766673604e-02
5.392000000000000171e+01,3.292044485001816706e-02
5.396000000000000085e+01,3.058600016321867329e-02
5.400000000000000000e+01,3.222964007565288364e-02
5.403999999999999915e+01,2.404180565125216273e-02
5.407999999999999829e+01,3.387567225142616018e-02
5.411999999999999744e+01,2.943091684178721426e-02
5.415999999999999659e+01,2.615551861651818980e-02
5.420000000000000284e+01,3.247564761854167259e-02
5.424000000000000199e+01,2.498527240506655603e-02
5.428000000000000114e+01,1.866425156019159426e-02
5.432000000000000028e+01,1.725754902599920676e-02
5.435999999999999943e+01,3.410660125129424264e-02
5.439999999999999858e+01,3.410236154118474750e-02
5.443999999999999773e+01,3.339499000497976600e-02
5.447999999999999687e+01,1.934522923182069656e-02
5.452000000000000313e+01,3.525423471589006486e-02
5.456000000000000227e+01,3.267152237490118794e-02
5.460000000000000142e+01,2.938567445345722715e-02
5.464000000000000057e+01,1.743863964153983745e-02
5.467999999999999972e+01,3.428006580728112235e-02
5.471999999999999886e+01,2.677826276755430543e-02
5.475999999999999801e+01,3.238287839049149019e-02
5.479999999999999716e+01,3.798653465515008237e-02
5.484000000000000341e+01,2.954561232041938088e-02
5.488000000000000256e+01,3.631764857796111745e-02
5.492000000000000171e+01,3.700315473036214220e-02
5.496000000000000085e+01,4.470950692138535992e-02
5.500000000000000000e+01,4.515902560487804890e-02
5.503999999999999915e+01,3.881983045233431545e-02
5.507999999999999829e+01,3.996959913272701836e-02
5.511999999999999744e+01,4.275682308141599136e-02
5.515999999999999659e+01,4.109593342871897120e-02
5.520000000000000284e+01,3.615723076125609142e-02
5.524000000000000199e+01,4.011185000262211531e-02
5.528000000000000114e+01,4.149083526716854098e-02
5.532000000000000028e+01,4.169854744655749484e-02
5.535999999999999943e+01,3.605377950135880277e-02
5.539999999999999858e+01,3.087615872911694814e-02
5.543999999999999773e+01,4.535862920468715365e-02
5.547999999999999687e+01,4.720086789368156677e-02
5.552000000000000313e+01,3.663693416255233565e-02
5.556000000000000227e+01,4.737151099875959448e-02
5.560000000000000142e+01,3.703968225110886719e-02
5.564000000000000057e+01,3.747364846672407435e-02
5.567999999999999972e+01,3.790663467508286616e-02
5.571999999999999886e+01,5.776564525608223616e-02
5.575999999999999801e+01,4.321680911146922460e-02
5.579999999999999716e+01,5.886076949424974558e-02
5.584000000000000341e+01,4.548026829020445500e-02
5.588000000000000256e+01,5.550481289015438829e-02
5.592000000000000171e+01,6.459213063114030429e-02
5.596000000000000085e+01,5.799642135692543998e-02
5.600000000000000000e+01,6.474116195412950303e-02
5.603999999999999915e+01,6.891025074130570360e-02
5.607999999999999829e+01,7.378053105045244420e-02
5.611999999999999744e+01,8.613975078919801354e-02
5.615999999999999659e+01,7.977315485424710251e-02
5.620000000000000284e+01,8.464046135238757762e-02
5.624000000000000199e+01,9.208143805847490704e-02
5.628000000000000114e+01,1.013939031187932049e-01
5.632000000000000028e+01,1.025132624779459545e-01
5.635999999999999943e+01,1.057381686191919551e-01
5.639999999999999858e+01,1.340065304980584959e-01
5.643999999999999773e+01,1.358250800667127334e-01
5.647999999999999687e+01,1.544949728193372729e-01
5.652000000000000313e+01,1.605246093820485442e-01
5.656000000000000227e+01,1.681916674238193854e-01
5.660000000000000142e+01,1.564307185522787469e-01
5.664000000000000057e+01,1.650320136859789732e-01
5.667999999999999972e+01,1.745685465678430692e-01
5.671999999999999886e+01,1.672517330760880661e-01
5.675999999999999801e+01,1.753818943679219533e-01
5.679999999999999716e+01,1.701696119845871880e-01
5.684000000000000341e+01,1.574663926135440317e-01
5.688000000000000256e+01,1.588057833800680940e-01
5.692000000000000171e+01,1.432918230800235004e-01
5.696000000000000085e+01,1.450973153109542946e-01
5.700000000000000000e+01,1.373053240544391540e-01
5.703999999999999915e+01,1.264695369130644509e-01
5.707999999999999829e+01,1.219523651499208328e-01
5.711999999999999744e+01,1.054971040331413590e-01
5.715999999999999659e+01,9.910542129808547207e-02
5.720000000000000284e+01,1.002026526507009407e-01
5.724000000000000199e+01,8.936179183391083913e-02
5.728000000000000114e+01,9.186135085366274600e-02
5.732000000000000028e+01,8.125251430161914423e-02
5.735999999999999943e+01,7.321732167700507887e-02
5.739999999999999858e+01,7.313915905719702015e-02
5.743999999999999773e+01,6.276132171032788865e-02
5.747999999999999687e+01,7.719285445410985214e-02
5.752000000000000313e+01,7.149417778188649208e-02
5.756000000000000227e+01,9.645637694918464400e-02
5.760000000000000142e+01,8.981940987623900086e-02
5.764000000000000057e+01,9.043728626143383853e-02
5.767999999999999972e+01,9.479910059054900973e-02
5.771999999999999886e+01,1.162462893123893531e-01
5.775999999999999801e+01,1.046899462093741628e-01
5.779999999999999716e+01,1.240285336193831800e-01
5.784000000000000341e+01,1.201941201391213687e-01
5.788000000000000256e+01,1.189333383846202657e-01
5.792000000000000171e+01,9.941482026855090470e-02
5.796000000000000085e+01,9.908821365904536826e-02
5.800000000000000000e+01,1.027395977897829910e-01
5.803999999999999915e+01,9.234632823393869316e-02
5.807999999999999829e+01,8.499480632098976862e-02
5.811999999999999744e+01,8.302563416276627362e-02
5.815999999999999659e+01,6.537338336689714480e-02
5.820000000000000284e+01,5.567814380403583729e-02
5.824000000000000199e+01,5.674863819609660132e-02
5.828000000000000114e+01,5.360500608180061854e-02
5.832000000000000028e+01,4.109791981163382624e-02
5.835999999999999943e+01,4.356965017137554713e-02
5.839999999999999858e+01,4.299755273420093060e-02
5.843999999999999773e+01,5.459554638925091796e-02
5.847999999999999687e+01,3.833931803575136438e-02
5.852000000000000313e+01,3.284881706704449039e-02
5.856000000000000227e+01,4.982705779664110129e-02
5.860000000000000142e+01,4.058949583721260801e-02
5.864000000000000057e+01,4.492638210731119547e-02
5.867999999999999972e+01,4.153822790952378663e-02
5.871999999999999886e+01,3.440405749097479038e-02
5.875999999999999801e+01,3.452470425004882520e-02
5.879999999999999716e+01,3.909144358765190980e-02
5.884000000000000341e+01,3.897592266855556820e-02
5.888000000000000256e+01,3.371001994408591440e-02
5.892000000000000171e+01,3.991201613363593720e-02
5.896000000000000085e+01,3.487806070954040105e-02
5.900000000000000000e+01,4.435478628783101618e-02
5.903999999999999915e+01,3.253096525848968301e-02
5.907999999999999829e+01,2.866413481317819922e-02
5.911999999999999744e+01,3.252023370826478271e-02
5.915999999999999659e+01,3.637527093877289397e-02
5.920000000000000284e+01,2.197254177283558194e-02
5.924000000000000199e+01,3.378350322984568360e-02
5.928000000000000114e+01,4.723182234180171857e-02
5.932000000000000028e+01,2.065476387263539756e-02
5.935999999999999943e+01,2.754726266694909262e-02
5.939999999999999858e+01,3.748147813069116485e-02
5.943999999999999773e+01,3.056228339670048061e-02
5.947999999999999687e+01,2.949352711546247841e-02
5.952000000000000313e+01,3.638175109376545757e-02
5.956000000000000227e+01,3.437461242999440003e-02
5.960000000000000142e+01,3.892009031833237875e-02
5.964000000000000057e+01,3.293178155212252156e-02
5.967999999999999972e+01,3.209172563058970695e-02
5.971999999999999886e+01,2.142006209245525539e-02
5.975999999999999801e+01,2.876996629912881992e-02
5.979999999999999716e+01,2.699044192714703666e-02
5.984000000000000341e+01,3.714691549170107132e-02
5.988000000000000256e+01,3.419493341470571796e-02
5.992000000000000171e+01,3.217811306009175920e-02
5.996000000000000085e+01,2.430870464305092543e-02
