2.003999999999999915e+01,1.437633977363943216e-01
2.007999999999999829e+01,1.289341351106777223e-01
2.012000000000000099e+01,1.082434021312280031e-01
2.016000000000000014e+01,5.020034281346721222e-02
2.019999999999999929e+01,8.662714979422526940e-02
2.023999999999999844e+01,1.281776718373648649e-01
2.028000000000000114e+01,1.169966146158141623e-01
2.032000000000000028e+01,6.919558026332925382e-02
2.035999999999999943e+01,8.803528654573206103e-02
2.039999999999999858e+01,1.347014223832936619e-01
2.044000000000000128e+01,1.366917832586785064e-01
2.048000000000000043e+01,1.013298251914843823e-01
2.051999999999999957e+01,1.142999737192194054e-01
2.055999999999999872e+01,6.648274884889025793e-02
2.060000000000000142e+01,1.197265091073707877e-01
2.064000000000000057e+01,1.605177014445895445e-01
2.067999999999999972e+01,1.734770710852386877e-01
2.071999999999999886e+01,1.842367117867439730e-01
2.076000000000000156e+01,1.752203322452576539e-01
2.080000000000000071e+01,8.271387405760301237e-02
2.083999999999999986e+01,7.808618737432616863e-02
2.087999999999999901e+01,5.880890178805085050e-02
2.092000000000000171e+01,1.171575524219031494e-01
2.096000000000000085e+01,1.191129119594431796e-01
2.100000000000000000e+01,1.122774394434922496e-01
2.103999999999999915e+01,6.149855134188649680e-02
2.107999999999999829e+01,1.322863337290671459e-01
2.112000000000000099e+01,2.096625425359359141e-01
2.116000000000000014e+01,1.010203096849987131e-01
2.119999999999999929e+01,9.636845786793436786e-02
2.123999999999999844e+01,1.730042772143006724e-01
2.128000000000000114e+01,1.046330062090010671e-01
2.132000000000000028e+01,9.118496987359325789e-02
2.135999999999999943e+01,1.648833715511245912e-01
2.139999999999999858e+01,1.162773964452982478e-01
2.144000000000000128e+01,8.451269228808239165e-02
2.148000000000000043e+01,9.961542589398351966e-02
2.151999999999999957e+01,1.000685753883634455e-01
2.155999999999999872e+01,5.584597580565021924e-02
2.160000000000000142e+01,9.364340121608710765e-02
2.164000000000000057e+01,1.131295177408386948e-01
2.167999999999999972e+01,1.062485256997275779e-01
2.171999999999999886e+01,8.032388111235320982e-02
2.176000000000000156e+01,1.342222286874587278e-01
2.180000000000000071e+01,1.200097764278532236e-01
2.183999999999999986e+01,1.219062588520176404e-01
2.187999999999999901e+01,1.164766205799980109e-01
2.192000000000000171e+01,1.029885170267483413e-01
2.196000000000000085e+01,1.751821743344199045e-01
2.200000000000000000e+01,1.294655417828227961e-01
2.203999999999999915e+01,1.020548850658712231e-01
2.207999999999999829e+01,1.112588428458611417e-01
2.212000000000000099e+01,1.146013764954973285e-01
2.216000000000000014e+01,4.836842761160174697e-02
2.219999999999999929e+01,8.612588287326006231e-02
2.223999999999999844e+01,9.971327904013736754e-02
2.228000000000000114e+01,7.594839786546407623e-02
2.232000000000000028e+01,1.144302295674963638e-01
2.235999999999999943e+01,7.674547377271495607e-02
2.239999999999999858e+01,1.459805087838771387e-01
2.244000000000000128e+01,9.803760961442296862e-02
2.248000000000000043e+01,1.247913006812679665e-01
2.251999999999999957e+01,5.926680673987862885e-02
2.255999999999999872e+01,1.790706472731482674e-02
2.260000000000000142e+01,1.178873570901485535e-01
2.264000000000000057e+01,1.131395935564269012e-01
2.267999999999999972e+01,1.545269500103269300e-01
2.271999999999999886e+01,1.461121656300926885e-01
2.276000000000000156e+01,4.981327484550669704e-02
2.280000000000000071e+01,8.972800449206309870e-02
2.283999999999999986e+01,1.215842901201370230e-01
2.287999999999999901e+01,7.214758170287946526e-02
2.292000000000000171e+01,4.467859700611362395e-02
2.296000000000000085e+01,1.285234891149116543e-01
2.300000000000000000e+01,1.113020611949247785e-01
2.303999999999999915e+01,1.043308316166210031e-01
2.307999999999999829e+01,6.147203420513775579e-02
2.312000000000000099e+01,1.013656424260744870e-01
2.316000000000000014e+01,1.002452660961747066e-01
2.319999999999999929e+01,9.033410855848478249e-02
2.323999999999999844e+01,6.650575217087992264e-02
2.328000000000000114e+01,1.334856057182081945e-01
2.332000000000000028e+01,1.008638376515163526e-01
2.335999999999999943e+01,9.753325856958754148e-02
2.339999999999999858e+01,1.542523807964419624e-01
2.344000000000000128e+01,1.377343225251518588e-01
2.348000000000000043e+01,6.409068588947394729e-02
2.351999999999999957e+01,6.367897250721718527e-02
2.355999999999999872e+01,1.145288180174541259e-01
2.360000000000000142e+01,1.580525825836005260e-01
2.364000000000000057e+01,9.538362334584647717e-02
2.367999999999999972e+01,1.389021389874749157e-01
2.371999999999999886e+01,9.160718837391428060e-02
2.376000000000000156e+01,1.409792228649996704e-01
2.380000000000000071e+01,1.075935935544746619e-01
2.383999999999999986e+01,1.503692769311624211e-01
2.387999999999999901e+01,8.768458756026627221e-02
2.392000000000000171e+01,5.722048215472793492e-02
2.396000000000000085e+01,1.505201503281591302e-01
2.400000000000000000e+01,1.339653754703292177e-01
2.403999999999999915e+01,9.104354659020644225e-02
2.407999999999999829e+01,1.850677132336914221e-01
2.412000000000000099e+01,1.223673270104757987e-01
2.416000000000000014e+01,1.607280081936578175e-01
2.419999999999999929e+01,1.441601641814023727e-01
2.423999999999999844e+01,1.129427989214009803e-01
2.428000000000000114e+01,1.908423044458436024e-01
2.432000000000000028e+01,6.587949462659270505e-02
2.435999999999999943e+01,1.020300886161555898e-01
2.439999999999999858e+01,6.494352429478791877e-02
2.444000000000000128e+01,8.424495777078658265e-02
2.448000000000000043e+01,9.768502166000034292e-02
2.451999999999999957e+01,8.988446118712006827e-02
2.455999999999999872e+01,8.867240663811364054e-02
2.460000000000000142e+01,8.819009486134192499e-02
2.464000000000000057e+01,1.616720777325887093e-01
2.467999999999999972e+01,7.696482966065056053e-02
2.471999999999999886e+01,1.167537182420725766e-01
2.476000000000000156e+01,1.631311173697045369e-01
2.480000000000000071e+01,1.523829686403690431e-01
2.483999999999999986e+01,1.713348610332201746e-02
2.487999999999999901e+01,8.547345894492648644e-02
2.492000000000000171e+01,5.128246511314884376e-02
2.496000000000000085e+01,9.325280985366726783e-02
2.500000000000000000e+01,1.491351257823305410e-01
2.503999999999999915e+01,6.879858437340914679e-02
2.507999999999999829e+01,1.019730052953558841e-01
2.512000000000000099e+01,1.373418720266391946e-01
2.516000000000000014e+01,8.995310638819983828e-02
2.519999999999999929e+01,1.685251795157547694e-01
2.523999999999999844e+01,1.284546921563769484e-01
2.528000000000000114e+01,1.140137106086250435e-01
2.532000000000000028e+01,8.272619624520384518e-02
2.535999999999999943e+01,8.585633565650131749e-02
2.539999999999999858e+01,6.847821655349796421e-02
2.544000000000000128e+01,9.503824469781937956e-02
2.548000000000000043e+01,1.018223616862875547e-01
2.551999999999999957e+01,1.049421696526591785e-01
2.555999999999999872e+01,1.563942006968365994e-01
2.560000000000000142e+01,8.188022447915459245e-02
2.564000000000000057e+01,1.054979678351066208e-01
2.567999999999999972e+01,8.590474835312107704e-02
2.571999999999999886e+01,6.557660650942868930e-02
2.576000000000000156e+01,6.208983545681167476e-02
2.580000000000000071e+01,9.814714691464540564e-02
2.583999999999999986e+01,1.239490471605029231e-01
2.587999999999999901e+01,1.446219556854428101e-01
2.592000000000000171e+01,9.864885061482825401e-02
2.596000000000000085e+01,6.585539341005976210e-02
2.600000000000000000e+01,9.604107964249915252e-02
2.603999999999999915e+01,1.086479041901673021e-01
2.607999999999999829e+01,1.102669775631496540e-01
2.612000000000000099e+01,9.943360966688646885e-02
2.616000000000000014e+01,4.905101757385842143e-02
2.619999999999999929e+01,1.312203969441253781e-01
2.623999999999999844e+01,8.376205629644380146e-02
2.628000000000000114e+01,4.435695234375476581e-02
2.632000000000000028e+01,1.331097495706831946e-01
2.635999999999999943e+01,1.347108691048280182e-01
2.639999999999999858e+01,1.802501580735119402e-01
2.644000000000000128e+01,1.723256646359521416e-01
2.648000000000000043e+01,1.453576286637345283e-01
2.651999999999999957e+01,1.052048151574311169e-01
2.655999999999999872e+01,9.361091908375958337e-02
2.660000000000000142e+01,1.237581605384236588e-01
2.664000000000000057e+01,1.707467931224435631e-01
2.667999999999999972e+01,1.181338817476945691e-01
2.671999999999999886e+01,1.343588945266701862e-01
2.676000000000000156e+01,1.198228430900480368e-01
2.680000000000000071e+01,8.990498406207211857e-02
2.683999999999999986e+01,1.874126927222746763e-01
2.687999999999999901e+01,1.626161512511374307e-01
2.692000000000000171e+01,1.795607547040737884e-01
2.696000000000000085e+01,1.071566578026958566e-01
2.700000000000000000e+01,1.387430759829456628e-01
2.703999999999999915e+01,3.337833753946086585e-02
2.707999999999999829e+01,7.814188312586599350e-02
2.712000000000000099e+01,1.280293027830237684e-01
2.716000000000000014e+01,1.002855548604151548e-01
2.719999999999999929e+01,3.592198881524327064e-02
2.723999999999999844e+01,1.209543649883179084e-01
2.728000000000000114e+01,2.037871638348822678e-01
2.732000000000000028e+01,1.262337562245625100e-01
2.735999999999999943e+01,1.167859420499299528e-01
2.739999999999999858e+01,1.139266994363477420e-01
2.744000000000000128e+01,5.833604303771644517e-02
2.748000000000000043e+01,1.440855337994906560e-01
2.751999999999999957e+01,1.214453539021503187e-01
2.755999999999999872e+01,7.683227439271640702e-02
2.760000000000000142e+01,7.176331899476061371e-02
2.764000000000000057e+01,8.866219640443422090e-02
2.767999999999999972e+01,1.238671799986389432e-01
2.771999999999999886e+01,1.100024838266323579e-01
2.776000000000000156e+01,1.327525334259202217e-01
2.780000000000000071e+01,9.032130389864066744e-02
2.783999999999999986e+01,7.425198485840686646e-02
2.787999999999999901e+01,9.186803232481614845e-02
2.792000000000000171e+01,7.872304238517971453e-02
2.796000000000000085e+01,6.923725491108198571e-02
2.800000000000000000e+01,6.926943490309546425e-02
2.803999999999999915e+01,1.007899485710826437e-01
2.807999999999999829e+01,1.052111560784579763e-01
2.812000000000000099e+01,1.433177356392808799e-01
2.816000000000000014e+01,1.074548982795846819e-01
2.819999999999999929e+01,5.181621262781013759e-02
2.823999999999999844e+01,1.140826353968977941e-01
2.828000000000000114e+01,1.214206272662100294e-01
2.832000000000000028e+01,9.726524546463546916e-02
2.835999999999999943e+01,8.336018495889094271e-02
2.839999999999999858e+01,7.677606463539120296e-02
2.844000000000000128e+01,1.353681806701429180e-01
2.848000000000000043e+01,1.068086680088768253e-01
2.851999999999999957e+01,6.579676954640195641e-02
2.855999999999999872e+01,8.337000062996226257e-02
2.860000000000000142e+01,9.581430285637984601e-02
2.864000000000000057e+01,1.353528795687010677e-01
2.867999999999999972e+01,6.137539386486710186e-02
2.871999999999999886e+01,6.355933363325307062e-02
2.876000000000000156e+01,1.389753177602734424e-01
2.880000000000000071e+01,1.279720260965270806e-01
2.883999999999999986e+01,1.067133925558501478e-01
2.887999999999999901e+01,9.936681987664335025e-02
2.892000000000000171e+01,8.982070777408512896e-02
2.896000000000000085e+01,5.244296433968179127e-02
2.900000000000000000e+01,8.024147020607169667e-02
2.903999999999999915e+01,6.116736334220939514e-02
2.907999999999999829e+01,1.314369094420092809e-01
2.912000000000000099e+01,5.377016434767535602e-02
2.916000000000000014e+01,1.306258244126092261e-01
2.919999999999999929e+01,6.247457717039660990e-02
2.923999999999999844e+01,1.232136441034255153e-01
2.928000000000000114e+01,7.556308105390062424e-02
2.932000000000000028e+01,7.770951900113073907e-02
2.935999999999999943e+01,1.040208660366229998e-01
2.939999999999999858e+01,1.112887380235686036e-01
2.944000000000000128e+01,5.923413286321039389e-02
2.948000000000000043e+01,1.214229372346345565e-01
2.951999999999999957e+01,5.837817045150570094e-02
2.955999999999999872e+01,7.149484855440918496e-02
2.960000000000000142e+01,7.875027540233942025e-02
2.964000000000000057e+01,1.577730759281572304e-01
2.967999999999999972e+01,1.467148934539230787e-01
2.971999999999999886e+01,1.532305188025377962e-01
2.976000000000000156e+01,1.238587307040082547e-01
2.980000000000000071e+01,1.149901343153152122e-01
2.983999999999999986e+01,9.733091018039946585e-02
2.987999999999999901e+01,1.917180682933990188e-01
2.992000000000000171e+01,1.037487147544919192e-01
2.996000000000000085e+01,8.827908779872459255e-02
3.000000000000000000e+01,1.240711685746823251e-01
3.003999999999999915e+01,7.344400221835904741e-02
3.007999999999999829e+01,1.480454419035244773e-01
3.012000000000000099e+01,1.186513440770274458e-01
3.016000000000000014e+01,9.364884507128286295e-02
3.019999999999999929e+01,7.523498233929720724e-02
3.023999999999999844e+01,1.373766532663665552e-01
3.028000000000000114e+01,1.226195742316296966e-01
3.032000000000000028e+01,9.980422405379051065e-02
3.035999999999999943e+01,1.260535533993425716e-01
3.039999999999999858e+01,1.347241218270556484e-01
3.044000000000000128e+01,1.228865482233447437e-01
3.048000000000000043e+01,1.234963814407689237e-01
3.051999999999999957e+01,1.680444793128611503e-01
3.055999999999999872e+01,1.342291426753919048e-01
3.060000000000000142e+01,1.048054150278148466e-01
3.064000000000000057e+01,1.310374829605180924e-01
3.067999999999999972e+01,1.506759790893510698e-01
3.071999999999999886e+01,1.373564659963070200e-01
3.076000000000000156e+01,9.547301766293232739e-02
3.080000000000000071e+01,1.451302985738519014e-01
3.083999999999999986e+01,1.347327891843095871e-01
3.087999999999999901e+01,1.609500976745094902e-01
3.092000000000000171e+01,1.542094015651687966e-01
3.096000000000000085e+01,1.276929209519915565e-01
3.100000000000000000e+01,1.341295334443925458e-01
3.103999999999999915e+01,1.259167818484837054e-01
3.107999999999999829e+01,1.323484874692585633e-01
3.112000000000000099e+01,1.014281200557504287e-01
3.116000000000000014e+01,8.515221170786052562e-02
3.119999999999999929e+01,1.494318592062402473e-01
3.123999999999999844e+01,1.507273436107783027e-01
3.128000000000000114e+01,1.739907449494682290e-01
3.132000000000000028e+01,1.298759119861718769e-01
3.135999999999999943e+01,1.765050013584322508e-02
3.139999999999999858e+01,7.166507336716032572e-02
3.144000000000000128e+01,1.205507833785110366e-01
3.148000000000000043e+01,1.079170268618502293e-01
3.151999999999999957e+01,9.015440897415800958e-02
3.155999999999999872e+01,1.448915546482962002e-01
3.160000000000000142e+01,1.022243066016794572e-01
3.164000000000000057e+01,8.079263829990707135e-02
3.167999999999999972e+01,9.817284289576157230e-02
3.171999999999999886e+01,1.111565362524340184e-01
3.176000000000000156e+01,7.360595219506310682e-02
3.180000000000000071e+01,1.290608115126946620e-01
3.183999999999999986e+01,1.090816479417698465e-01
3.187999999999999901e+01,1.052116510959007073e-01
3.192000000000000171e+01,1.167184763900410566e-01
3.196000000000000085e+01,9.819670315884274081e-02
3.200000000000000000e+01,8.333422576437805873e-02
3.203999999999999915e+01,1.094806661162855688e-01
3.207999999999999829e+01,1.297659125301900973e-01
3.211999999999999744e+01,6.656134192216466017e-02
3.215999999999999659e+01,1.725261559987151805e-01
3.220000000000000284e+01,8.221994643724428453e-02
3.224000000000000199e+01,8.711622694845515269e-02
3.228000000000000114e+01,5.685749776347347878e-02
3.232000000000000028e+01,1.269276790667004107e-01
3.235999999999999943e+01,8.201719198573503844e-02
3.239999999999999858e+01,1.264504345992156498e-01
3.243999999999999773e+01,3.320029988253063447e-02
3.247999999999999687e+01,4.760253444705481174e-02
3.252000000000000313e+01,8.690209664226884734e-02
3.256000000000000227e+01,1.357197316928637765e-01
3.260000000000000142e+01,1.266796536480963575e-01
3.264000000000000057e+01,1.066519760412758810e-01
3.267999999999999972e+01,5.073695247342228237e-02
3.271999999999999886e+01,6.951875580548967648e-02
3.275999999999999801e+01,9.708629110576080801e-02
3.279999999999999716e+01,6.899315446154570541e-02
3.284000000000000341e+01,6.213562529619275077e-02
3.288000000000000256e+01,8.456950513881401899e-02
3.292000000000000171e+01,7.111604456720596601e-02
3.296000000000000085e+01,9.574214096666452956e-02
3.300000000000000000e+01,1.591801407711701810e-01
3.303999999999999915e+01,3.097648485330585788e-01
3.307999999999999829e+01,1.879146200058368632e-01
3.311999999999999744e+01,1.158614802997615656e-01
3.315999999999999659e+01,4.234124467337862380e-02
3.320000000000000284e+01,9.624672372547134203e-02
3.324000000000000199e+01,6.519772062169142124e-02
3.328000000000000114e+01,3.561100640905838499e-02
3.332000000000000028e+01,7.046829583017104326e-02
3.335999999999999943e+01,9.873207538672058858e-02
3.339999999999999858e+01,7.572926992287175307e-02
3.343999999999999773e+01,1.303526900374073483e-01
3.347999999999999687e+01,5.388386644354510591e-02
3.352000000000000313e+01,5.650596129602779988e-02
3.356000000000000227e+01,9.793997249609973088e-02
3.360000000000000142e+01,9.030443982664906888e-02
3.364000000000000057e+01,1.207484798442085838e-01
3.367999999999999972e+01,1.175022335409564023e-01
3.371999999999999886e+01,1.105918677313991461e-01
3.375999999999999801e+01,1.000173833400042345e-01
3.379999999999999716e+01,6.454076151535709238e-02
3.384000000000000341e+01,1.103521020613330711e-01
3.388000000000000256e+01,9.903810460441256347e-02
3.392000000000000171e+01,1.060303575489179584e-01
3.396000000000000085e+01,4.198270965871160609e-02
3.400000000000000000e+01,1.244017781836684877e-01
3.403999999999999915e+01,7.133454288569007762e-02
3.407999999999999829e+01,5.854392697240162757e-02
3.411999999999999744e+01,1.938649000257279195e-02
3.415999999999999659e+01,0.000000000000000000e+00
3.420000000000000284e+01,8.826591903072941725e-02
3.424000000000000199e+01,8.645096045067589274e-02
3.428000000000000114e+01,4.948103839779308816e-02
3.432000000000000028e+01,1.399368569084695757e-01
3.435999999999999943e+01,7.806243227314671462e-02
3.439999999999999858e+01,1.018700560080674083e-01
3.443999999999999773e+01,1.322664140102785546e-01
3.447999999999999687e+01,8.210239157218088279e-02
3.452000000000000313e+01,1.322673304679921613e-01
3.456000000000000227e+01,7.623979793946920880e-02
3.460000000000000142e+01,8.758568066569735744e-02
3.464000000000000057e+01,3.301809683974965548e-02
3.467999999999999972e+01,5.754145826969808697e-02
3.471999999999999886e+01,9.963874308090482634e-02
3.475999999999999801e+01,8.680774675603458723e-02
3.479999999999999716e+01,1.018035127945416951e-01
3.484000000000000341e+01,1.109381486832878017e-01
3.488000000000000256e+01,9.736770862793761583e-02
3.492000000000000171e+01,1.343267445042744812e-01
3.496000000000000085e+01,5.191109902971274837e-02
3.500000000000000000e+01,1.152298475724830573e-01
3.503999999999999915e+01,8.773539148430249679e-02
3.507999999999999829e+01,5.877388385024370082e-02
3.511999999999999744e+01,7.741247473215541464e-02
3.515999999999999659e+01,5.723439493195243977e-02
3.520000000000000284e+01,6.122135919223358619e-02
3.524000000000000199e+01,2.419461809079515371e-02
3.528000000000000114e+01,4.868254388394613330e-02
3.532000000000000028e+01,6.950638714948315089e-02
3.535999999999999943e+01,7.128689311209707169e-02
3.539999999999999858e+01,7.013566390554459851e-02
3.543999999999999773e+01,1.231756501963194583e-01
3.547999999999999687e+01,1.037110797631121961e-01
3.552000000000000313e+01,5.714737512020667820e-02
3.556000000000000227e+01,1.087156193188191927e-01
3.560000000000000142e+01,7.532943590512840293e-02
3.564000000000000057e+01,8.295225343986402378e-02
3.567999999999999972e+01,9.203741533378326234e-02
3.571999999999999886e+01,1.164994871921033043e-01
3.575999999999999801e+01,1.080036663114228163e-01
3.579999999999999716e+01,7.533809973036743879e-02
3.584000000000000341e+01,6.464055547273277191e-02
3.588000000000000256e+01,7.005227038688130459e-02
3.592000000000000171e+01,7.619398969750372508e-02
3.596000000000000085e+01,1.072331161430017249e-01
3.600000000000000000e+01,8.187929909188181032e-02
3.603999999999999915e+01,9.314041917678249349e-02
3.607999999999999829e+01,9.927278327992097862e-02
3.611999999999999744e+01,8.123540907842238812e-02
3.615999999999999659e+01,5.074582564896467501e-02
3.620000000000000284e+01,5.394180101534392507e-02
3.624000000000000199e+01,9.887913670667221322e-02
3.628000000000000114e+01,8.449415333460102984e-02
3.632000000000000028e+01,7.450091115124242436e-02
3.635999999999999943e+01,5.059077334323446029e-02
3.639999999999999858e+01,9.918051095759730651e-02
3.643999999999999773e+01,1.148123715489036828e-01
3.647999999999999687e+01,1.238507943840940206e-01
3.652000000000000313e+01,1.087194881593201018e-01
3.656000000000000227e+01,1.287384400696152120e-01
3.660000000000000142e+01,9.822322642640674006e-02
3.664000000000000057e+01,9.992889072914898363e-02
3.667999999999999972e+01,7.966186619833552640e-02
3.671999999999999886e+01,8.063053881970985715e-02
3.675999999999999801e+01,9.551145442260795815e-02
3.679999999999999716e+01,9.647548456999691102e-02
3.684000000000000341e+01,1.032959589431991787e-01
3.688000000000000256e+01,1.071847323525244172e-01
3.692000000000000171e+01,9.788896858925517919e-02
3.696000000000000085e+01,1.017731069203330480e-01
3.700000000000000000e+01,8.734629136115908132e-02
3.703999999999999915e+01,6.339666895035860061e-02
3.707999999999999829e+01,7.752669873075400397e-02
3.711999999999999744e+01,1.253423085697337458e-01
3.715999999999999659e+01,9.040056337917296014e-02
3.720000000000000284e+01,1.008619282483417118e-01
3.724000000000000199e+01,6.664790643158877148e-02
3.728000000000000114e+01,1.071308169040258579e-01
3.732000000000000028e+01,1.402879635246468693e-01
3.735999999999999943e+01,1.258403441946953083e-01
3.739999999999999858e+01,8.649067063354641538e-02
3.743999999999999773e+01,8.229127554574633407e-02
3.747999999999999687e+01,1.154391963843017233e-01
3.752000000000000313e+01,1.178263016889565667e-01
3.756000000000000227e+01,1.341256684644801800e-01
3.760000000000000142e+01,1.086790389123401396e-01
3.764000000000000057e+01,9.787701818951707877e-02
3.767999999999999972e+01,1.090430623156095069e-01
3.771999999999999886e+01,8.358953145403254237e-02
3.775999999999999801e+01,1.211154158230422356e-01
3.779999999999999716e+01,6.782815934934319224e-02
3.784000000000000341e+01,4.383242651756054376e-02
3.788000000000000256e+01,6.157809191388512182e-02
3.792000000000000171e+01,8.298318996809982140e-02
3.796000000000000085e+01,1.014566120190540377e-01
3.800000000000000000e+01,9.722503023435920266e-02
3.803999999999999915e+01,5.564153534821972280e-02
3.807999999999999829e+01,9.021968225964253907e-02
3.811999999999999744e+01,7.353135323780497778e-02
3.815999999999999659e+01,1.015138109533981897e-01
3.820000000000000284e+01,8.189152213223188648e-02
3.824000000000000199e+01,1.347691512589304919e-01
3.828000000000000114e+01,1.378449991692647092e-01
3.832000000000000028e+01,1.057659769779647485e-01
3.835999999999999943e+01,1.344693473557212748e-01
3.839999999999999858e+01,8.993588298609392351e-02
3.843999999999999773e+01,1.171699956771549977e-01
3.847999999999999687e+01,1.502605904971878736e-01
3.852000000000000313e+01,1.240289180239887296e-01
3.856000000000000227e+01,9.706261994307704977e-02
3.860000000000000142e+01,1.133024277497102356e-01
3.864000000000000057e+01,1.537073591210127432e-01
3.867999999999999972e+01,1.084255885544790354e-01
3.871999999999999886e+01,5.581808649248346660e-02
3.875999999999999801e+01,7.863989643448035527e-02
3.879999999999999716e+01,1.131769599772926294e-01
3.884000000000000341e+01,8.106830852747927418e-02
3.888000000000000256e+01,8.850404188891548840e-02
3.892000000000000171e+01,1.179078687577528733e-01
3.896000000000000085e+01,1.465770792635507358e-01
3.900000000000000000e+01,1.137269970411844827e-01
3.903999999999999915e+01,1.365329045372262462e-01
3.907999999999999829e+01,1.498160523294726487e-01
3.911999999999999744e+01,1.403942221711537985e-01
3.915999999999999659e+01,1.697844377858423459e-01
3.920000000000000284e+01,1.669491856752293168e-01
3.924000000000000199e+01,1.362825398208610539e-01
3.928000000000000114e+01,1.620042347412175843e-01
3.932000000000000028e+01,1.884560126377665956e-01
3.935999999999999943e+01,2.002586187351986791e-01
3.939999999999999858e+01,2.179177282243499603e-01
3.943999999999999773e+01,2.158012491967267465e-01
3.947999999999999687e+01,1.961062191053361825e-01
3.952000000000000313e+01,2.027733694454345037e-01
3.956000000000000227e+01,2.101706083085291832e-01
3.960000000000000142e+01,2.263537372237315881e-01
3.964000000000000057e+01,2.520551026250225646e-01
3.967999999999999972e+01,2.338134832424084153e-01
3.971999999999999886e+01,3.503211843215672250e-01
3.975999999999999801e+01,3.291456772480716997e-01
3.979999999999999716e+01,3.702172870434808361e-01
3.984000000000000341e+01,4.171454103997491725e-01
3.988000000000000256e+01,4.201305535944490077e-01
3.992000000000000171e+01,4.465485044272580750e-01
3.996000000000000085e+01,5.205666656365778300e-01
4.000000000000000000e+01,5.543035770052969768e-01
4.003999999999999915e+01,5.982910796142902887e-01
4.007999999999999829e+01,6.862170678256303002e-01
4.011999999999999744e+01,6.408539292616004523e-01
4.015999999999999659e+01,6.760465536245098273e-01
4.020000000000000284e+01,6.497199129932732520e-01
4.024000000000000199e+01,6.739228712478707584e-01
4.028000000000000114e+01,6.966588981373357248e-01
4.032000000000000028e+01,6.739872640153460326e-01
4.035999999999999943e+01,5.890640230875663352e-01
4.039999999999999858e+01,6.330313542613977829e-01
4.043999999999999773e+01,5.964384427405446942e-01
4.047999999999999687e+01,5.429993487771194172e-01
4.052000000000000313e+01,5.129930763188123022e-01
4.056000000000000227e+01,5.232635730088935899e-01
4.060000000000000142e+01,5.869930589430670809e-01
4.064000000000000057e+01,5.240245397055637300e-01
4.067999999999999972e+01,5.430764864321004914e-01
4.071999999999999886e+01,5.533380568675129174e-01
4.075999999999999801e+01,5.606680160123740375e-01
4.079999999999999716e+01,4.991552689349663674e-01
4.084000000000000341e+01,5.387039747668103118e-01
4.088000000000000256e+01,5.482242882295176312e-01
4.092000000000000171e+01,6.163300168986474148e-01
4.096000000000000085e+01,5.635965118679437946e-01
4.100000000000000000e+01,6.587945760532024631e-01
4.103999999999999915e+01,7.298230156432989890e-01
4.107999999999999829e+01,8.411282363998583422e-01
4.111999999999999744e+01,8.228060810402952896e-01
4.115999999999999659e+01,9.026160039476693875e-01
4.120000000000000284e+01,1.000000000000000000e+00
4.124000000000000199e+01,9.970504430901366844e-01
4.128000000000000114e+01,9.743253401889936383e-01
4.132000000000000028e+01,9.442745658827615962e-01
4.135999999999999943e+01,9.552329247237766330e-01
4.139999999999999858e+01,9.200513020044404078e-01
4.143999999999999773e+01,8.204210609113911090e-01
4.147999999999999687e+01,7.910937761195164786e-01
4.152000000000000313e+01,7.090354029550740567e-01
4.156000000000000227e+01,6.723802406172938451e-01
4.160000000000000142e+01,6.562285427071957722e-01
4.164000000000000057e+01,5.302228094559053861e-01
4.167999999999999972e+01,5.353047144177180972e-01
4.171999999999999886e+01,5.030347913290758033e-01
4.175999999999999801e+01,4.934653728945240792e-01
4.179999999999999716e+01,4.633880749772540941e-01
4.184000000000000341e+01,4.281821542015094018e-01
4.188000000000000256e+01,4.596174714240467973e-01
4.192000000000000171e+01,3.599607400007812097e-01
4.196000000000000085e+01,4.038415269236133587e-01
4.200000000000000000e+01,4.103704922672611888e-01
4.203999999999999915e+01,3.509861620851787989e-01
4.207999999999999829e+01,3.560460379951752019e-01
4.211999999999999744e+01,2.688281818859021288e-01
4.215999999999999659e+01,3.126979750833397964e-01
4.220000000000000284e+01,3.214129878524689121e-01
4.224000000000000199e+01,3.484344433122171236e-01
4.228000000000000114e+01,3.271189010213543247e-01
4.232000000000000028e+01,3.036041290036768370e-01
4.235999999999999943e+01,2.881429653168362526e-01
4.239999999999999858e+01,2.367946803145100643e-01
4.243999999999999773e+01,2.703962839908366500e-01
4.247999999999999687e+01,2.476050939342441526e-01
4.252000000000000313e+01,2.013766589972915688e-01
4.256000000000000227e+01,2.576744077407094879e-01
4.260000000000000142e+01,2.282855451440835848e-01
4.264000000000000057e+01,2.208648620303153010e-01
4.267999999999999972e+01,2.676355617424508448e-01
4.271999999999999886e+01,2.711956924397075919e-01
4.275999999999999801e+01,2.381363646321712768e-01
4.279999999999999716e+01,2.600007679334537802e-01
4.284000000000000341e+01,2.130225121602987715e-01
4.288000000000000256e+01,1.719008402075154762e-01
4.292000000000000171e+01,2.640638716548608378e-01
4.296000000000000085e+01,2.324583335876835577e-01
4.300000000000000000e+01,2.499177671755563879e-01
4.303999999999999915e+01,2.468693499391964030e-01
4.307999999999999829e+01,2.379599929933339519e-01
4.311999999999999744e+01,2.422306805097787508e-01
4.315999999999999659e+01,2.325846295610111414e-01
4.320000000000000284e+01,2.353862794139719994e-01
4.324000000000000199e+01,2.154830465364968584e-01
4.328000000000000114e+01,2.497712103519346416e-01
4.332000000000000028e+01,2.100903076199500397e-01
4.335999999999999943e+01,1.469721794214184640e-01
4.339999999999999858e+01,1.585511249555700830e-01
4.343999999999999773e+01,2.133362882378063430e-01
4.347999999999999687e+01,2.058699168226999221e-01
4.352000000000000313e+01,2.130482901335996881e-01
4.356000000000000227e+01,2.385331366425384458e-01
4.360000000000000142e+01,2.244691620224444351e-01
4.364000000000000057e+01,2.235852438827318767e-01
4.367999999999999972e+01,1.765613968773023512e-01
4.371999999999999886e+01,2.518370891186495486e-01
4.375999999999999801e+01,2.677906351719777645e-01
4.379999999999999716e+01,2.698274575515696716e-01
4.384000000000000341e+01,2.974942146956033873e-01
4.388000000000000256e+01,2.416714266110856213e-01
4.392000000000000171e+01,2.664044883534307240e-01
4.396000000000000085e+01,2.523210827964615377e-01
4.400000000000000000e+01,2.602058881542373969e-01
4.403999999999999915e+01,2.812707592370674026e-01
4.407999999999999829e+01,2.788984214937614281e-01
4.411999999999999744e+01,2.933678788720101016e-01
4.415999999999999659e+01,3.276085143343333006e-01
4.420000000000000284e+01,2.768949209448169912e-01
4.424000000000000199e+01,2.349673248456124186e-01
4.428000000000000114e+01,2.157402916419369487e-01
4.432000000000000028e+01,2.206785132772839664e-01
4.435999999999999943e+01,2.300086619192658610e-01
4.439999999999999858e+01,1.792843336551915301e-01
4.443999999999999773e+01,2.164393223311867065e-01
4.447999999999999687e+01,1.832869988168761011e-01
4.452000000000000313e+01,1.603853700831746609e-01
4.456000000000000227e+01,1.272287627881811822e-01
4.460000000000000142e+01,1.760927120550204450e-01
4.464000000000000057e+01,1.612404624150417798e-01
4.467999999999999972e+01,1.581036022725675616e-01
4.471999999999999886e+01,1.483734948142362009e-01
4.475999999999999801e+01,1.715967984782252598e-01
4.479999999999999716e+01,1.186540332715417950e-01
4.484000000000000341e+01,1.631110858732711111e-01
4.488000000000000256e+01,1.328667624722890406e-01
4.492000000000000171e+01,1.216612892107461485e-01
4.496000000000000085e+01,1.500003412794789492e-01
4.500000000000000000e+01,1.116938207235463887e-01
4.503999999999999915e+01,1.363668836512449134e-01
4.507999999999999829e+01,1.141677045600679036e-01
4.511999999999999744e+01,1.564128018204826165e-01
4.515999999999999659e+01,1.429975127967987591e-01
4.520000000000000284e+01,1.229889875508647368e-01
4.524000000000000199e+01,1.139635192354639115e-01
4.528000000000000114e+01,9.761247103723474927e-02
4.532000000000000028e+01,6.954177082356521877e-02
4.535999999999999943e+01,9.346547884656754290e-02
4.539999999999999858e+01,8.516386243669574196e-02
4.543999999999999773e+01,1.032245632794696194e-01
4.547999999999999687e+01,1.264095625234752385e-01
4.552000000000000313e+01,1.115104760319032551e-01
4.556000000000000227e+01,1.237060550758919131e-01
4.560000000000000142e+01,9.415582268567206092e-02
4.564000000000000057e+01,1.004884037941052577e-01
4.567999999999999972e+01,1.141423244546458382e-01
4.571999999999999886e+01,1.343852400822479753e-01
4.575999999999999801e+01,1.311909857113393030e-01
4.579999999999999716e+01,1.375151101944795118e-01
4.584000000000000341e+01,1.416400863039248559e-01
4.588000000000000256e+01,1.091456760170246426e-01
4.592000000000000171e+01,1.227869228332326701e-01
4.596000000000000085e+01,1.151880408018059188e-01
4.600000000000000000e+01,1.031929775660141990e-01
4.603999999999999915e+01,1.322071556401403503e-01
4.607999999999999829e+01,1.333900980544153181e-01
4.611999999999999744e+01,1.528795728326350079e-01
4.615999999999999659e+01,1.394113952333455309e-01
4.620000000000000284e+01,1.003090212761459515e-01
4.624000000000000199e+01,1.966884639783980371e-01
4.628000000000000114e+01,1.832139785776615570e-01
4.632000000000000028e+01,1.550904822351140966e-01
4.635999999999999943e+01,1.928759819216700755e-01
4.639999999999999858e+01,1.735364329635866454e-01
4.643999999999999773e+01,1.856856429364229788e-01
4.647999999999999687e+01,1.685389354750541635e-01
4.652000000000000313e+01,1.623753145271714382e-01
4.656000000000000227e+01,1.891651463026365054e-01
4.660000000000000142e+01,2.049677011551274131e-01
4.664000000000000057e+01,2.112476710281374626e-01
4.667999999999999972e+01,2.175255484698052910e-01
4.671999999999999886e+01,1.688754211911111525e-01
4.675999999999999801e+01,2.029782459049959686e-01
4.679999999999999716e+01,2.282908348467824755e-01
4.684000000000000341e+01,1.789020930847535218e-01
4.688000000000000256e+01,2.108016150696791491e-01
4.692000000000000171e+01,1.863084459375530244e-01
4.696000000000000085e+01,1.845159016402632135e-01
4.700000000000000000e+01,1.512304153983034805e-01
4.703999999999999915e+01,1.428425923686543475e-01
4.707999999999999829e+01,1.783934167231248091e-01
4.711999999999999744e+01,1.121461329930642653e-01
4.715999999999999659e+01,1.476927937475975006e-01
4.720000000000000284e+01,1.034117135519287967e-01
4.724000000000000199e+01,1.221102676855910923e-01
4.728000000000000114e+01,1.525242714071305128e-01
4.732000000000000028e+01,1.741480513746462011e-01
4.735999999999999943e+01,1.401114959037631502e-01
4.739999999999999858e+01,1.170580472846461523e-01
4.743999999999999773e+01,1.189022711225124346e-01
4.747999999999999687e+01,1.053651653186053333e-01
4.752000000000000313e+01,1.167257338206162537e-01
4.756000000000000227e+01,1.456605224578803870e-01
4.760000000000000142e+01,7.133252308519436036e-02
4.764000000000000057e+01,6.511058585310423863e-02
4.767999999999999972e+01,7.499818051064301161e-02
4.771999999999999886e+01,1.017276534917912340e-01
4.775999999999999801e+01,1.064846937168187208e-01
4.779999999999999716e+01,1.500539793997849591e-01
4.784000000000000341e+01,1.101338113764598892e-01
4.788000000000000256e+01,1.104905816790342360e-01
4.792000000000000171e+01,8.228381333773868156e-02
4.796000000000000085e+01,7.018658335734281883e-02
4.800000000000000000e+01,7.053716511474854289e-02
4.803999999999999915e+01,1.140940709339754583e-01
4.807999999999999829e+01,1.224963322215830569e-01
4.811999999999999744e+01,1.045320960161966184e-01
4.815999999999999659e+01,9.169222015134885495e-02
4.820000000000000284e+01,1.044823798178758228e-01
4.824000000000000199e+01,8.138555314113947448e-02
4.828000000000000114e+01,7.146889018298843710e-02
4.832000000000000028e+01,7.473239186789019939e-02
4.835999999999999943e+01,6.993803934443029724e-02
4.839999999999999858e+01,6.001521557512884408e-02
4.843999999999999773e+01,1.101426718311240421e-01
4.847999999999999687e+01,7.897772570084370114e-02
4.852000000000000313e+01,8.516035064988679293e-02
4.856000000000000227e+01,4.373846849919409835e-02
4.860000000000000142e+01,9.092834494268010881e-02
4.864000000000000057e+01,9.417544368293088997e-02
4.867999999999999972e+01,8.350593153445295957e-02
4.871999999999999886e+01,7.649610165002952711e-02
4.875999999999999801e+01,1.061015028822199363e-01
4.879999999999999716e+01,6.979376482364929579e-02
4.884000000000000341e+01,6.204545912598232599e-02
4.888000000000000256e+01,9.091238731833087283e-02
4.892000000000000171e+01,7.730123529774131363e-02
4.896000000000000085e+01,8.199668127827297592e-02
4.900000000000000000e+01,7.204317825630110472e-02
4.903999999999999915e+01,8.991676670805601179e-02
4.907999999999999829e+01,9.533844453478126924e-02
4.911999999999999744e+01,9.123759469899692109e-02
4.915999999999999659e+01,9.079643729640714256e-02
4.920000000000000284e+01,9.547966427050516569e-02
4.924000000000000199e+01,9.430209390306137918e-02
4.928000000000000114e+01,9.165780017562154269e-02
4.932000000000000028e+01,4.214136242283755135e-02
4.935999999999999943e+01,7.903966430057103587e-02
4.939999999999999858e+01,5.222187728309222315e-02
4.943999999999999773e+01,6.568106464573661429e-02
4.947999999999999687e+01,8.719402489439243009e-02
4.952000000000000313e+01,5.524373615442224050e-02
4.956000000000000227e+01,7.602029822970050865e-02
4.960000000000000142e+01,7.995088864094483661e-02
4.964000000000000057e+01,9.852636522168839450e-02
4.967999999999999972e+01,6.730032405924034344e-02
4.971999999999999886e+01,5.950731702938393680e-02
4.975999999999999801e+01,8.100610913269158664e-02
4.979999999999999716e+01,1.017705354035909199e-01
4.984000000000000341e+01,6.394530151501032211e-02
4.988000000000000256e+01,8.763507195157421714e-02
4.992000000000000171e+01,7.104382181542152896e-02
4.996000000000000085e+01,6.104166463986142321e-02
5.000000000000000000e+01,6.788143848254520052e-02
5.003999999999999915e+01,6.959277898254562222e-02
5.007999999999999829e+01,5.811988645968520911e-02
5.011999999999999744e+01,8.912102056143110518e-02
5.015999999999999659e+01,9.961446839411915166e-02
5.020000000000000284e+01,2.442148053554559634e-02
5.024000000000000199e+01,9.423089340682232196e-02
5.028000000000000114e+01,5.931288918842975849e-02
5.032000000000000028e+01,5.808077010282209490e-02
5.035999999999999943e+01,6.490244424150606872e-02
5.039999999999999858e+01,5.121643765793578579e-02
5.043999999999999773e+01,2.214916984317067891e-02
5.047999999999999687e+01,8.608777712962516204e-02
5.052000000000000313e+01,8.191624834887213658e-02
5.056000000000000227e+01,1.077688827001417188e-01
5.060000000000000142e+01,9.407285770415127479e-02
5.064000000000000057e+01,5.913681202319723273e-02
5.067999999999999972e+01,6.521011489036492026e-02
5.071999999999999886e+01,5.883154503566147969e-02
5.075999999999999801e+01,1.117709633158432830e-01
5.079999999999999716e+01,5.339186693881210755e-02
5.084000000000000341e+01,7.630112583099564472e-02
5.088000000000000256e+01,3.183260248569007994e-02
5.092000000000000171e+01,8.110230992025749264e-02
5.096000000000000085e+01,1.010762034609545557e-01
5.100000000000000000e+01,5.806639059464328845e-02
5.103999999999999915e+01,5.826297112519887578e-02
5.107999999999999829e+01,5.699286989678610527e-02
5.111999999999999744e+01,5.425608783387198680e-02
5.115999999999999659e+01,7.714940971291084360e-02
5.120000000000000284e+01,8.612617894465925128e-02
5.124000000000000199e+01,6.580714075380832140e-02
5.128000000000000114e+01,7.477993682587805169e-02
5.132000000000000028e+01,3.614828958645384394e-02
5.135999999999999943e+01,5.829933536795058741e-02
5.139999999999999858e+01,7.092790618157214511e-02
5.143999999999999773e+01,7.256931193275963088e-02
5.147999999999999687e+01,9.471441045504631895e-02
5.152000000000000313e+01,8.976074455454387258e-02
5.156000000000000227e+01,8.846682655527232653e-02
5.160000000000000142e+01,1.084089496100147931e-01
5.164000000000000057e+01,7.708490920143584724e-02
5.167999999999999972e+01,9.409369554779224709e-02
5.171999999999999886e+01,8.473606760320932796e-02
5.175999999999999801e+01,8.269991972975926364e-02
5.179999999999999716e+01,8.212648877580452922e-02
5.184000000000000341e+01,1.064508319702330980e-01
5.188000000000000256e+01,9.781765498597276565e-02
5.192000000000000171e+01,1.052941078848725898e-01
5.196000000000000085e+01,7.395427837791282433e-02
5.200000000000000000e+01,1.136499938165347057e-01
5.203999999999999915e+01,1.145294286982314058e-01
5.207999999999999829e+01,6.414271028574683453e-02
5.211999999999999744e+01,6.794759287344302734e-02
5.215999999999999659e+01,1.047060576099053397e-01
5.220000000000000284e+01,9.239540835412775321e-02
5.224000000000000199e+01,8.667390475357733548e-02
5.228000000000000114e+01,7.435932856148468051e-02
5.232000000000000028e+01,1.228274675775272023e-01
5.235999999999999943e+01,1.251558783372514749e-01
5.239999999999999858e+01,9.086505338879592719e-02
5.243999999999999773e+01,8.733078053183794542e-02
5.247999999999999687e+01,1.145530606908450738e-01
5.252000000000000313e+01,1.190706725958240592e-01
5.256000000000000227e+01,8.037794290487366988e-02
5.260000000000000142e+01,7.830053307939539853e-02
5.264000000000000057e+01,9.306511528700141256e-02
5.267999999999999972e+01,9.391317905260618271e-02
5.271999999999999886e+01,6.839485163895327180e-02
5.275999999999999801e+01,3.848049925590482645e-02
5.279999999999999716e+01,8.179874683632287757e-02
5.284000000000000341e+01,5.773925747814824538e-02
5.288000000000000256e+01,1.149681705370191875e-01
5.292000000000000171e+01,6.893441854008755532e-02
5.296000000000000085e+01,6.244537676688600297e-02
5.300000000000000000e+01,1.218654844843555379e-01
5.303999999999999915e+01,9.926094969530598056e-02
5.307999999999999829e+01,1.052159452606908768e-01
5.311999999999999744e+01,9.798677806272784729e-02
5.315999999999999659e+01,7.977048555442367572e-02
5.320000000000000284e+01,5.129941416975852125e-02
5.324000000000000199e+01,7.482293314181803767e-02
5.328000000000000114e+01,8.076821999131998664e-02
5.332000000000000028e+01,9.257033194715233448e-02
5.335999999999999943e+01,8.606186811984814500e-02
5.339999999999999858e+01,6.856628452900638548e-02
5.343999999999999773e+01,8.622134919842323886e-02
5.347999999999999687e+01,9.948040553885528769e-02
5.352000000000000313e+01,7.978197960375686681e-02
5.356000000000000227e+01,7.619322145497696430e-02
5.360000000000000142e+01,1.026286966977324050e-01
5.364000000000000057e+01,8.072743673858281954e-02
5.367999999999999972e+01,9.763855813406130402e-02
5.371999999999999886e+01,9.916849410466151149e-02
5.375999999999999801e+01,9.703477372706106885e-02
5.379999999999999716e+01,1.014902350589114988e-01
5.384000000000000341e+01,9.495858679636441646e-02
5.388000000000000256e+01,1.038042682063606975e-01
5.392000000000000171e+01,8.848062269965698001e-02
5.396000000000000085e+01,1.112370195093391467e-01
5.400000000000000000e+01,9.957125411807161985e-02
5.403999999999999915e+01,1.032828220972165922e-01
5.407999999999999829e+01,1.011337045953596692e-01
5.411999999999999744e+01,8.360341091329738517e-02
5.415999999999999659e+01,1.092795827365490025e-01
5.420000000000000284e+01,8.442199577189828108e-02
5.424000000000000199e+01,8.739162046172006815e-02
5.428000000000000114e+01,6.106550798845514910e-02
5.432000000000000028e+01,7.135475513275514603e-02
5.435999999999999943e+01,8.896554243856115429e-02
5.439999999999999858e+01,8.240701392127447455e-02
5.443999999999999773e+01,1.139285388139807675e-01
5.447999999999999687e+01,6.635483651904229563e-02
5.452000000000000313e+01,1.044636476013867804e-01
5.456000000000000227e+01,9.350339923506038875e-02
5.460000000000000142e+01,8.180889597239876521e-02
5.464000000000000057e+01,9.867395911839563216e-02
5.467999999999999972e+01,9.796082249818914567e-02
5.471999999999999886e+01,1.023721978311544351e-01
5.475999999999999801e+01,8.774068422782513310e-02
5.479999999999999716e+01,9.434528563589140993e-02
5.484000000000000341e+01,1.038773652419918286e-01
5.488000000000000256e+01,1.251250700847519326e-01
5.492000000000000171e+01,1.126829794988227912e-01
5.496000000000000085e+01,9.730960580822459183e-02
5.500000000000000000e+01,1.017076607323321585e-01
5.503999999999999915e+01,9.585097930557376356e-02
5.507999999999999829e+01,9.731585468073210288e-02
5.511999999999999744e+01,1.017082147251955754e-01
5.515999999999999659e+01,1.156191699490499991e-01
5.520000000000000284e+01,8.631984459181528402e-02
5.524000000000000199e+01,1.163386109098004939e-01
5.528000000000000114e+01,1.046117895146576188e-01
5.532000000000000028e+01,1.441472610390243658e-01
5.535999999999999943e+01,1.324166550755263849e-01
5.539999999999999858e+01,1.162900851574729527e-01
5.543999999999999773e+01,1.243290270803446285e-01
5.547999999999999687e+01,1.030722595741479647e-01
5.552000000000000313e+01,8.327829496290260758e-02
5.556000000000000227e+01,1.271965024796949395e-01
5.560000000000000142e+01,9.641358175100475658e-02
5.564000000000000057e+01,8.466975891898373408e-02
5.567999999999999972e+01,1.271176193647310104e-01
5.571999999999999886e+01,1.080465735096346191e-01
5.575999999999999801e+01,1.299849936100038461e-01
5.579999999999999716e+01,8.308105416333257109e-02
5.584000000000000341e+01,9.036880169229852267e-02
5.588000000000000256e+01,1.079075065505793046e-01
5.592000000000000171e+01,1.129944588677344597e-01
5.596000000000000085e+01,1.166148422109286875e-01
5.600000000000000000e+01,1.063187838429053705e-01
5.603999999999999915e+01,8.210628468813195580e-02
5.607999999999999829e+01,1.018326409226152918e-01
5.611999999999999744e+01,1.259511959571117667e-01
5.615999999999999659e+01,1.024654195406546481e-01
5.620000000000000284e+01,1.053422090585405674e-01
5.624000000000000199e+01,1.140758911688676130e-01
5.628000000000000114e+01,7.740228113018235434e-02
5.632000000000000028e+01,1.198201164841889016e-01
5.635999999999999943e+01,1.278158441808153190e-01
5.639999999999999858e+01,1.094452657491731956e-01
5.643999999999999773e+01,1.130431857415984120e-01
5.647999999999999687e+01,1.027246751164135885e-01
5.652000000000000313e+01,1.055865186500726249e-01
5.656000000000000227e+01,1.069818070767798723e-01
5.660000000000000142e+01,1.200927604922394226e-01
5.664000000000000057e+01,9.292284864548408518e-02
5.667999999999999972e+01,9.211551382667877708e-02
5.671999999999999886e+01,7.519471740852744224e-02
5.675999999999999801e+01,7.951008130066869461e-02
5.679999999999999716e+01,1.101880249941614154e-01
5.684000000000000341e+01,1.005851080477758036e-01
5.688000000000000256e+01,9.390971644725575052e-02
5.692000000000000171e+01,1.194556714975942430e-01
5.696000000000000085e+01,1.076501507195087998e-01
5.700000000000000000e+01,1.148837592699802068e-01
5.703999999999999915e+01,9.428638546463306847e-02
5.707999999999999829e+01,1.322748003504876368e-01
5.711999999999999744e+01,9.263274008256373870e-02
5.715999999999999659e+01,1.320821446211446482e-01
5.720000000000000284e+01,9.463342136439456542e-02
5.724000000000000199e+01,1.113764174396362633e-01
5.728000000000000114e+01,1.054148552724554905e-01
5.732000000000000028e+01,8.260749986342459661e-02
5.735999999999999943e+01,8.176866414120834148e-02
5.739999999999999858e+01,8.458971129244530207e-02
5.743999999999999773e+01,9.912644284624695656e-02
5.747999999999999687e+01,1.217171321795151584e-01
5.752000000000000313e+01,1.098857406649542123e-01
5.756000000000000227e+01,1.046436177597676737e-01
5.760000000000000142e+01,1.067231098979363052e-01
5.764000000000000057e+01,1.219829820800326647e-01
5.767999999999999972e+01,1.182000328119451743e-01
5.771999999999999886e+01,1.180769738130487134e-01
5.775999999999999801e+01,1.164873874412184207e-01
5.779999999999999716e+01,1.046431285067641603e-01
5.784000000000000341e+01,1.001204901624685450e-01
5.788000000000000256e+01,1.065812008803647126e-01
5.792000000000000171e+01,1.262222981134595856e-01
5.796000000000000085e+01,1.187647797629964724e-01
5.800000000000000000e+01,1.237553042671534348e-01
5.803999999999999915e+01,8.407092280837133447e-02
5.807999999999999829e+01,1.308014825139728887e-01
5.811999999999999744e+01,1.248013375009250775e-01
5.815999999999999659e+01,8.950554499811626263e-02
5.820000000000000284e+01,1.113308760525666408e-01
5.824000000000000199e+01,1.346190728657430669e-01
5.828000000000000114e+01,9.126200397738935821e-02
5.832000000000000028e+01,1.182082805909334955e-01
5.835999999999999943e+01,6.679176519967142123e-02
5.839999999999999858e+01,8.494625164972827158e-02
5.843999999999999773e+01,1.045636084808477528e-01
5.847999999999999687e+01,8.682952461329997151e-02
5.852000000000000313e+01,1.218224986416702738e-01
5.856000000000000227e+01,9.895835955393923744e-02
5.860000000000000142e+01,1.178360975683638984e-01
5.864000000000000057e+01,1.066858536771214810e-01
5.867999999999999972e+01,1.072513228469296198e-01
5.871999999999999886e+01,7.925350297903190067e-02
5.875999999999999801e+01,1.047150920633691529e-01
5.879999999999999716e+01,1.265131412823823909e-01
5.884000000000000341e+01,1.219449407656309908e-01
5.888000000000000256e+01,1.671744244269507684e-01
5.892000000000000171e+01,9.742385355034832717e-02
5.896000000000000085e+01,9.797664296711980358e-02
5.900000000000000000e+01,9.193651510285130724e-02
5.903999999999999915e+01,1.107943277910753699e-01
5.907999999999999829e+01,9.742713221423335290e-02
5.911999999999999744e+01,9.064924130098978017e-02
5.915999999999999659e+01,9.924880208996970932e-02
5.920000000000000284e+01,1.093112508248903075e-01
5.924000000000000199e+01,1.105837512970350434e-01
5.928000000000000114e+01,8.915173975012083418e-02
5.932000000000000028e+01,1.233761866265230267e-01
5.935999999999999943e+01,1.195168676330246316e-01
5.939999999999999858e+01,1.134587136602377838e-01
5.943999999999999773e+01,1.403543100892610251e-01
5.947999999999999687e+01,1.064634326268776437e-01
5.952000000000000313e+01,1.150467990389103246e-01
5.956000000000000227e+01,1.170372611124445017e-01
5.960000000000000142e+01,9.559087305314491190e-02
5.964000000000000057e+01,7.707207412795269441e-02
5.967999999999999972e+01,1.259272700984924165e-01
5.971999999999999886e+01,1.096019246673503589e-01
5.975999999999999801e+01,1.189068819386251696e-01
5.979999999999999716e+01,8.646635596157381531e-02
5.984000000000000341e+01,1.389761208064395070e-01
5.988000000000000256e+01,9.627918205745319979e-02
5.992000000000000171e+01,9.239476887998950005e-02
5.996000000000000085e+01,7.679104204210811246e-02
