2.003999999999999915e+01,6.144695042573136701e-02
2.007999999999999829e+01,5.490424969309452147e-02
2.012000000000000099e+01,5.733603572449310487e-02
2.016000000000000014e+01,6.091867694235193059e-02
2.019999999999999929e+01,6.312099724839533021e-02
2.023999999999999844e+01,6.371288814404015011e-02
2.028000000000000114e+01,3.991377865370233230e-02
2.032000000000000028e+01,4.257726099200579567e-02
2.035999999999999943e+01,4.132924110437641296e-02
2.039999999999999858e+01,7.206637180742708759e-02
2.044000000000000128e+01,6.391576929196918222e-02
2.048000000000000043e+01,8.153743137079055847e-02
2.051999999999999957e+01,3.703057399696709634e-02
2.055999999999999872e+01,5.672380665508597319e-02
2.060000000000000142e+01,4.535292897920206040e-02
2.064000000000000057e+01,6.711772526216455703e-02
2.067999999999999972e+01,5.045499141487670702e-02
2.071999999999999886e+01,5.634301709061594748e-02
2.076000000000000156e+01,5.670877583450210230e-02
2.080000000000000071e+01,3.866628734963525882e-02
2.083999999999999986e+01,5.076807625094528764e-02
2.087999999999999901e+01,5.366588484505170620e-02
2.092000000000000171e+01,7.405209554979109987e-02
2.096000000000000085e+01,4.174414483588326924e-02
2.100000000000000000e+01,4.165142539342309852e-02
2.103999999999999915e+01,4.823208512719393687e-02
2.107999999999999829e+01,4.675928966054089531e-02
2.112000000000000099e+01,4.758784145347328548e-02
2.116000000000000014e+01,6.222307676584772074e-02
2.119999999999999929e+01,6.121132858296775975e-02
2.123999999999999844e+01,5.789878724444470770e-02
2.128000000000000114e+01,5.067470369187977025e-02
2.132000000000000028e+01,5.311537502485393081e-02
2.135999999999999943e+01,4.543161814738532617e-02
2.139999999999999858e+01,6.812222107547497019e-02
2.144000000000000128e+01,3.397672004210657709e-02
2.148000000000000043e+01,6.150009469290826369e-02
2.151999999999999957e+01,4.254216610364806861e-02
2.155999999999999872e+01,5.211773628573723727e-02
2.160000000000000142e+01,6.238388554426476523e-02
2.164000000000000057e+01,7.080943778095394325e-02
2.167999999999999972e+01,5.024179358080189256e-02
2.171999999999999886e+01,5.843774795751489892e-02
2.176000000000000156e+01,3.764050242015982983e-02
2.180000000000000071e+01,4.054450326311601766e-02
2.183999999999999986e+01,4.298853895098295186e-02
2.187999999999999901e+01,3.185652242689147179e-02
2.192000000000000171e+01,6.168375406497599023e-02
2.196000000000000085e+01,5.170275937736322491e-02
2.200000000000000000e+01,4.678435481947324642e-02
2.203999999999999915e+01,4.232640345330446890e-02
2.207999999999999829e+01,4.062997113993737502e-02
2.212000000000000099e+01,5.642188877880022213e-02
2.216000000000000014e+01,2.734322267957207953e-02
2.219999999999999929e+01,3.140016273326597107e-02
2.223999999999999844e+01,4.305085684466544715e-02
2.228000000000000114e+01,2.432768788020578388e-02
2.232000000000000028e+01,3.620894549316461264e-02
2.235999999999999943e+01,4.763021534905925725e-02
2.239999999999999858e+01,5.375925374991928629e-02
2.244000000000000128e+01,4.240040067875290586e-02
2.248000000000000043e+01,3.380304927425370476e-02
2.251999999999999957e+01,5.419936843432010543e-02
2.255999999999999872e+01,3.961967714884515740e-02
2.260000000000000142e+01,5.380354619073959843e-02
2.264000000000000057e+01,6.384570714576556782e-02
2.267999999999999972e+01,4.650537551840015771e-02
2.271999999999999886e+01,4.573294072418532252e-02
2.276000000000000156e+01,4.956284950609907147e-02
2.280000000000000071e+01,6.075638124516043181e-02
2.283999999999999986e+01,4.364698640749922753e-02
2.287999999999999901e+01,6.772690476526080361e-02
2.292000000000000171e+01,3.566097511277533522e-02
2.296000000000000085e+01,4.432414165854694360e-02
2.300000000000000000e+01,4.585419659032675260e-02
2.303999999999999915e+01,3.656943000999128557e-02
2.307999999999999829e+01,4.891489333461222083e-02
2.312000000000000099e+01,3.042624355255306445e-02
2.316000000000000014e+01,3.724952835773387427e-02
2.319999999999999929e+01,4.407300241490726828e-02
2.323999999999999844e+01,4.215260710662260824e-02
2.328000000000000114e+01,5.472912345117575406e-02
2.332000000000000028e+01,5.603059259338067505e-02
2.335999999999999943e+01,3.639252887590882501e-02
2.339999999999999858e+01,3.309222567518976810e-02
2.344000000000000128e+01,3.048242157469089816e-02
2.348000000000000043e+01,4.835229619316724209e-02
2.351999999999999957e+01,3.009558483953254579e-02
2.355999999999999872e+01,4.451420700602442410e-02
2.360000000000000142e+01,3.569221828146505043e-02
2.364000000000000057e+01,3.170264164350766745e-02
2.367999999999999972e+01,2.656269959433463917e-02
2.371999999999999886e+01,3.430890275346590995e-02
2.376000000000000156e+01,4.182516406403209708e-02
2.380000000000000071e+01,2.840187339017382837e-02
2.383999999999999986e+01,4.167112830694337522e-02
2.387999999999999901e+01,3.929328324135796663e-02
2.392000000000000171e+01,5.831552480987728382e-02
2.396000000000000085e+01,5.133585872019161278e-02
2.400000000000000000e+01,4.320581331038262501e-02
2.403999999999999915e+01,3.898773556116381933e-02
2.407999999999999829e+01,2.372468433591061118e-02
2.412000000000000099e+01,3.515416653099132094e-02
2.416000000000000014e+01,6.775326776635746083e-03
2.419999999999999929e+01,6.009444005264540610e-03
2.423999999999999844e+01,2.917480831875423133e-02
2.428000000000000114e+01,4.497689862265287497e-02
2.432000000000000028e+01,4.098994813999912862e-02
2.435999999999999943e+01,1.330214021270002475e-02
2.439999999999999858e+01,3.301646193268663321e-02
2.444000000000000128e+01,4.536750268862831115e-02
2.448000000000000043e+01,4.184131062304378978e-02
2.451999999999999957e+01,2.704001919670771456e-02
2.455999999999999872e+01,2.627537026764071790e-02
2.460000000000000142e+01,4.875163249600525384e-02
2.464000000000000057e+01,4.154424935022566628e-02
2.467999999999999972e+01,2.720368156869000520e-02
2.471999999999999886e+01,4.829967800712385573e-02
2.476000000000000156e+01,5.029693481416586121e-02
2.480000000000000071e+01,4.953303020902980608e-02
2.483999999999999986e+01,6.119500861108289474e-02
2.487999999999999901e+01,2.614543096957576765e-02
2.492000000000000171e+01,3.619689277368576957e-02
2.496000000000000085e+01,2.346789809382615610e-02
2.500000000000000000e+01,4.341417434400915432e-02
2.503999999999999915e+01,2.861443911458707440e-02
2.507999999999999829e+01,5.891573637632824267e-02
2.512000000000000099e+01,4.204525364288970446e-02
2.516000000000000014e+01,4.542426984669242079e-02
2.519999999999999929e+01,4.489157345233558971e-02
2.523999999999999844e+01,3.929662892135925983e-02
2.528000000000000114e+01,3.738349139398682713e-02
2.532000000000000028e+01,6.699507708790246319e-02
2.535999999999999943e+01,2.159195439866044494e-02
2.539999999999999858e+01,3.141454773032772291e-02
2.544000000000000128e+01,2.996200171313410238e-02
2.548000000000000043e+01,2.252677008776266324e-02
2.551999999999999957e+01,2.636685811330468851e-02
2.555999999999999872e+01,1.640062721448238073e-02
2.560000000000000142e+01,2.599355584824501395e-02
2.564000000000000057e+01,3.535646091861102680e-02
2.567999999999999972e+01,3.114314860874167062e-02
2.571999999999999886e+01,2.094714025901356011e-02
2.576000000000000156e+01,4.871882528496874337e-02
2.580000000000000071e+01,2.103485740041750873e-02
2.583999999999999986e+01,5.018733373181352014e-02
2.587999999999999901e+01,3.746045251367071532e-02
2.592000000000000171e+01,3.992068847978685192e-02
2.596000000000000085e+01,3.708853825427193412e-02
2.600000000000000000e+01,2.505218517903271339e-02
2.603999999999999915e+01,2.544166295257921026e-02
2.607999999999999829e+01,2.376024395822610297e-02
2.612000000000000099e+01,3.519497261534010324e-02
2.616000000000000014e+01,3.489431710861257835e-02
2.619999999999999929e+01,2.078731485970538098e-02
2.623999999999999844e+01,3.268243360471161096e-02
2.628000000000000114e+01,4.825931588798575839e-02
2.632000000000000028e+01,3.760408117489244528e-02
2.635999999999999943e+01,2.211665640397242685e-02
2.639999999999999858e+01,3.217113215257319525e-02
2.644000000000000128e+01,3.877405492593665598e-02
2.648000000000000043e+01,4.123510270554132245e-02
2.651999999999999957e+01,4.116502107255955167e-02
2.655999999999999872e+01,6.364544512504259621e-02
2.660000000000000142e+01,7.416035912896676296e-02
2.664000000000000057e+01,6.695709234648379582e-02
2.667999999999999972e+01,6.412589199604247503e-02
2.671999999999999886e+01,6.198504817951921292e-02
2.676000000000000156e+01,6.720765519741302152e-02
2.680000000000000071e+01,5.816367587398695721e-02
2.683999999999999986e+01,5.763367770759810632e-02
2.687999999999999901e+01,5.503274800104052122e-02
2.692000000000000171e+01,6.439739737383434748e-02
2.696000000000000085e+01,6.340726837033418273e-02
2.700000000000000000e+01,6.080641613076393642e-02
2.703999999999999915e+01,5.199270371712200883e-02
2.707999999999999829e+01,4.133815783021367596e-02
2.712000000000000099e+01,4.472014316931417766e-02
2.716000000000000014e+01,3.590648735929832802e-02
2.719999999999999929e+01,3.215519565925752110e-02
2.723999999999999844e+01,3.484690689039503936e-02
2.728000000000000114e+01,3.132574751578046796e-02
2.732000000000000028e+01,4.506260531367892175e-02
2.735999999999999943e+01,2.497377783227018241e-02
2.739999999999999858e+01,3.249776824477072779e-02
2.744000000000000128e+01,3.933144333633090128e-02
2.748000000000000043e+01,2.844690113060155054e-02
2.751999999999999957e+01,4.425474456306357357e-02
2.755999999999999872e+01,3.751212526165183941e-02
2.760000000000000142e+01,2.846843636506012423e-02
2.764000000000000057e+01,7.459192215960233976e-03
2.767999999999999972e+01,3.017022698833341995e-02
2.771999999999999886e+01,2.664908391286880882e-02
2.776000000000000156e+01,2.657953328700541837e-02
2.780000000000000071e+01,2.029708945341490364e-02
2.783999999999999986e+01,3.932637678929194053e-02
2.787999999999999901e+01,2.314931568407070650e-02
2.792000000000000171e+01,2.561088623197739153e-02
2.796000000000000085e+01,1.863806197813161133e-02
2.800000000000000000e+01,2.593183746076837756e-02
2.803999999999999915e+01,3.023420394356905391e-02
2.807999999999999829e+01,7.383949891133237409e-03
2.812000000000000099e+01,1.628840411701399163e-02
2.816000000000000014e+01,3.876913084501518170e-02
2.819999999999999929e+01,3.018541690245978362e-02
2.823999999999999844e+01,2.689412862589955766e-02
2.828000000000000114e+01,4.270166987488506483e-02
2.832000000000000028e+01,2.307273679805493458e-02
2.835999999999999943e+01,3.335764748810554625e-02
2.839999999999999858e+01,4.524372215603324719e-03
2.844000000000000128e+01,1.089739271205108530e-02
2.848000000000000043e+01,1.105749044434336734e-02
2.851999999999999957e+01,1.973149631190843425e-02
2.855999999999999872e+01,1.459905285910078308e-02
2.860000000000000142e+01,2.350307630360458713e-02
2.864000000000000057e+01,1.238776443133520096e-02
2.867999999999999972e+01,2.382286609801806399e-02
2.871999999999999886e+01,2.214183176978281112e-02
2.876000000000000156e+01,2.759405458532325842e-02
2.880000000000000071e+01,3.051504888731101928e-02
2.883999999999999986e+01,1.065541805982552458e-02
2.887999999999999901e+01,0.000000000000000000e+00
2.892000000000000171e+01,1.672722700680343705e-02
2.896000000000000085e+01,3.184364558547815582e-02
2.900000000000000000e+01,3.177295515921617353e-02
2.903999999999999915e+01,2.180760946870001493e-02
2.907999999999999829e+01,2.403785573237880030e-02
2.912000000000000099e+01,2.833899477298538680e-02
2.916000000000000014e+01,2.274547333349767955e-02
2.919999999999999929e+01,2.313465611319066861e-02
2.923999999999999844e+01,3.571942389262487000e-02
2.928000000000000114e+01,3.679877865633848083e-02
2.932000000000000028e+01,3.557698906449420495e-02
2.935999999999999943e+01,2.123903565991682590e-02
2.939999999999999858e+01,1.863644678068782090e-02
2.944000000000000128e+01,1.281228129018311540e-02
2.948000000000000043e+01,3.460084328568860390e-02
2.951999999999999957e+01,1.750127739743434496e-02
2.955999999999999872e+01,9.375787960442171984e-03
2.960000000000000142e+01,2.817270051371170356e-02
2.964000000000000057e+01,2.510938020511676097e-02
2.967999999999999972e+01,2.480724861276970700e-02
2.971999999999999886e+01,1.852224711921989300e-02
2.976000000000000156e+01,2.627366210319172571e-02
2.980000000000000071e+01,2.827231046870328293e-02
2.983999999999999986e+01,2.866011215659035674e-02
2.987999999999999901e+01,2.490589106857609564e-02
2.992000000000000171e+01,3.748914710332364869e-02
2.996000000000000085e+01,3.626589296622825115e-02
3.000000000000000000e+01,3.918445419628962395e-02
3.003999999999999915e+01,2.070297869829086299e-02
3.007999999999999829e+01,2.039982744835538639e-02
3.012000000000000099e+01,1.043208075157233371e-02
3.016000000000000014e+01,1.887276158559509850e-02
3.019999999999999929e+01,2.524236657453358956e-02
3.023999999999999844e+01,2.309790470063112153e-02
3.028000000000000114e+01,2.992748798294880830e-02
3.032000000000000028e+01,4.296983356324038383e-02
3.035999999999999943e+01,3.967447722589095838e-02
3.039999999999999858e+01,4.075102562953337310e-02
3.044000000000000128e+01,3.676509987680870450e-02
3.048000000000000043e+01,3.346936722833847300e-02
3.051999999999999957e+01,6.468951966101105233e-02
3.055999999999999872e+01,6.323438152514827826e-02
3.060000000000000142e+01,4.774259863965793493e-02
3.064000000000000057e+01,7.067851053894988467e-02
3.067999999999999972e+01,7.773692013163237269e-02
3.071999999999999886e+01,9.722095715532806659e-02
3.076000000000000156e+01,9.668556671573799721e-02
3.080000000000000071e+01,9.591992843161745164e-02
3.083999999999999986e+01,1.163239692415068693e-01
3.087999999999999901e+01,1.054333461337697703e-01
3.092000000000000171e+01,1.113403702033973069e-01
3.096000000000000085e+01,9.469678375700849027e-02
3.100000000000000000e+01,6.976920417409279707e-02
3.103999999999999915e+01,8.119834115010049480e-02
3.107999999999999829e+01,6.708547451464935696e-02
3.112000000000000099e+01,6.700896524386285025e-02
3.116000000000000014e+01,8.741180087827080114e-02
3.119999999999999929e+01,4.407490553045907700e-02
3.123999999999999844e+01,7.161073204391350810e-02
3.128000000000000114e+01,5.657664601510636188e-02
3.132000000000000028e+01,7.490787649532633374e-02
3.135999999999999943e+01,1.003722511094480851e-01
3.139999999999999858e+01,7.705382544629425789e-02
3.144000000000000128e+01,9.469423415531727506e-02
3.148000000000000043e+01,9.323561114589029586e-02
3.151999999999999957e+01,8.878542787725784979e-02
3.155999999999999872e+01,9.538019496894008242e-02
3.160000000000000142e+01,1.042758538034861682e-01
3.164000000000000057e+01,1.106401606829252315e-01
3.167999999999999972e+01,1.167741814683379981e-01
3.171999999999999886e+01,1.371746402991831371e-01
3.176000000000000156e+01,1.389362687612229752e-01
3.180000000000000071e+01,1.337945098742835959e-01
3.183999999999999986e+01,1.383170486175481773e-01
3.187999999999999901e+01,1.133857340576054085e-01
3.192000000000000171e+01,1.107745854489567694e-01
3.196000000000000085e+01,1.079331385759877276e-01
3.200000000000000000e+01,1.106140606993197689e-01
3.203999999999999915e+01,1.144453216409207635e-01
3.207999999999999829e+01,1.035495532242888955e-01
3.211999999999999744e+01,9.449444042860738469e-02
3.215999999999999659e+01,9.740467895391625996e-02
3.220000000000000284e+01,9.594268710377497344e-02
3.224000000000000199e+01,8.964824961963101246e-02
3.228000000000000114e+01,9.324819740091282172e-02
3.232000000000000028e+01,7.728886343292346028e-02
3.235999999999999943e+01,9.216362641034822611e-02
3.239999999999999858e+01,7.735440672262143547e-02
3.243999999999999773e+01,6.093422734739651486e-02
3.247999999999999687e+01,5.141703666492785513e-02
3.252000000000000313e+01,5.317486137602048246e-02
3.256000000000000227e+01,6.206577806261186214e-02
3.260000000000000142e+01,3.390928707196368130e-02
3.264000000000000057e+01,5.292446081426299687e-02
3.267999999999999972e+01,4.087499916130016980e-02
3.271999999999999886e+01,3.342744816971903593e-02
3.275999999999999801e+01,4.968066717836618768e-02
3.279999999999999716e+01,4.453372949462570257e-02
3.284000000000000341e+01,3.501453361761990013e-02
3.288000000000000256e+01,3.631012396671574188e-02
3.292000000000000171e+01,3.875601488458483429e-02
3.296000000000000085e+01,6.881448202909488943e-02
3.300000000000000000e+01,8.897812178662029003e-02
3.303999999999999915e+01,8.175881866087295058e-02
3.307999999999999829e+01,2.690717603593233490e-02
3.311999999999999744e+01,4.361849383733441832e-02
3.315999999999999659e+01,4.859412321754269515e-02
3.320000000000000284e+01,4.528566383748493240e-02
3.324000000000000199e+01,4.680919927680331216e-02
3.328000000000000114e+01,3.314543967954659137e-02
3.332000000000000028e+01,6.365344146826079283e-03
3.335999999999999943e+01,3.135901725139909890e-02
3.339999999999999858e+01,3.725357518407687585e-02
3.343999999999999773e+01,2.542965676606248962e-02
3.347999999999999687e+01,3.914733113298976552e-02
3.352000000000000313e+01,4.918303803013124309e-02
3.356000000000000227e+01,3.206588620199484624e-02
3.360000000000000142e+01,6.787302637931832971e-02
3.364000000000000057e+01,6.226068523603411897e-02
3.367999999999999972e+01,5.388679670838813357e-02
3.371999999999999886e+01,6.599214181467626117e-02
3.375999999999999801e+01,6.360049130093621550e-02
3.379999999999999716e+01,6.604081126598422558e-02
3.384000000000000341e+01,5.766584029328767486e-02
3.388000000000000256e+01,5.711422420175440301e-02
3.392000000000000171e+01,6.553649505261807673e-02
3.396000000000000085e+01,8.224233082735706024e-02
3.400000000000000000e+01,7.915870507109104559e-02
3.403999999999999915e+01,7.699522444245261721e-02
3.407999999999999829e+01,8.587658464148191506e-02
3.411999999999999744e+01,9.567808649091197326e-02
3.415999999999999659e+01,8.937182801439362556e-02
3.420000000000000284e+01,7.984378603159990317e-02
3.424000000000000199e+01,9.378634296036782170e-02
3.428000000000000114e+01,9.208134786728582044e-02
3.432000000000000028e+01,9.451798037110895057e-02
3.435999999999999943e+01,8.775004665499848422e-02
3.439999999999999858e+01,1.033021710961488926e-01
3.443999999999999773e+01,9.607342700194425322e-02
3.447999999999999687e+01,1.031110009888445422e-01
3.452000000000000313e+01,1.085375248803477910e-01
3.456000000000000227e+01,1.130433172177485873e-01
3.460000000000000142e+01,7.635969326778861699e-02
3.464000000000000057e+01,1.068669352374418680e-01
3.467999999999999972e+01,9.273315604296636372e-02
3.471999999999999886e+01,1.009194210968442640e-01
3.475999999999999801e+01,6.561519530921344767e-02
3.479999999999999716e+01,8.001371472906772253e-02
3.484000000000000341e+01,8.313668622590261736e-02
3.488000000000000256e+01,8.441848521984994524e-02
3.492000000000000171e+01,8.477953701217399995e-02
3.496000000000000085e+01,5.568660162805564445e-02
3.500000000000000000e+01,8.020821767783489764e-02
3.503999999999999915e+01,7.826723095354713722e-02
3.507999999999999829e+01,8.184847935232547611e-02
3.511999999999999744e+01,6.955203245840227422e-02
3.515999999999999659e+01,7.405304844881897830e-02
3.520000000000000284e+01,5.347209527053117806e-02
3.524000000000000199e+01,6.579607469721443502e-02
3.528000000000000114e+01,5.372840175787445965e-02
3.532000000000000028e+01,7.709683230594202574e-02
3.535999999999999943e+01,7.791446109051483604e-02
3.539999999999999858e+01,7.505004069047016557e-02
3.543999999999999773e+01,7.701751948606251619e-02
3.547999999999999687e+01,8.013518757916793245e-02
3.552000000000000313e+01,7.934069451184620758e-02
3.556000000000000227e+01,6.819104926634073083e-02
3.560000000000000142e+01,9.431834941770385339e-02
3.564000000000000057e+01,8.777013819662439487e-02
3.567999999999999972e+01,9.295701853858330532e-02
3.571999999999999886e+01,8.525756538824125208e-02
3.575999999999999801e+01,1.077017411212626563e-01
3.579999999999999716e+01,1.096660568057660073e-01
3.584000000000000341e+01,1.275073787783031487e-01
3.588000000000000256e+01,1.322322535441161628e-01
3.592000000000000171e+01,1.512233838009502118e-01
3.596000000000000085e+01,1.389196293362505996e-01
3.600000000000000000e+01,1.277660415670893168e-01
3.603999999999999915e+01,1.370915865922826549e-01
3.607999999999999829e+01,1.298490743181436591e-01
3.611999999999999744e+01,1.539007090796940536e-01
3.615999999999999659e+01,1.558617208254197417e-01
3.620000000000000284e+01,1.601234243734635798e-01
3.624000000000000199e+01,1.303289499100468429e-01
3.628000000000000114e+01,1.414930994465805614e-01
3.632000000000000028e+01,1.496654800902961213e-01
3.635999999999999943e+01,1.472525670235894646e-01
3.639999999999999858e+01,1.602564223843896962e-01
3.643999999999999773e+01,1.341417423213353277e-01
3.647999999999999687e+01,1.319577773274286936e-01
3.652000000000000313e+01,1.212594725083708663e-01
3.656000000000000227e+01,1.220661142428862145e-01
3.660000000000000142e+01,9.986168679695130168e-02
3.664000000000000057e+01,1.022782877456185346e-01
3.667999999999999972e+01,1.141288691922940635e-01
3.671999999999999886e+01,9.905656132319913543e-02
3.675999999999999801e+01,7.869139783684402090e-02
3.679999999999999716e+01,8.985045858971928145e-02
3.684000000000000341e+01,1.033101833270976128e-01
3.688000000000000256e+01,7.995242111556760678e-02
3.692000000000000171e+01,8.029524808846794093e-02
3.696000000000000085e+01,6.890222147189772883e-02
3.700000000000000000e+01,7.177540340378563144e-02
3.703999999999999915e+01,6.084176742925150733e-02
3.707999999999999829e+01,4.323462136873307271e-02
3.711999999999999744e+01,5.876243295832343783e-02
3.715999999999999659e+01,6.393502282519228364e-02
3.720000000000000284e+01,5.253950671155242780e-02
3.724000000000000199e+01,4.666613183585283792e-02
3.728000000000000114e+01,5.413852629843979997e-02
3.732000000000000028e+01,3.077619044657480679e-02
3.735999999999999943e+01,2.444132861527989128e-02
3.739999999999999858e+01,4.640917030444208224e-02
3.743999999999999773e+01,3.777238322328162201e-02
3.747999999999999687e+01,4.547274466694250367e-02
3.752000000000000313e+01,3.614477270124839825e-02
3.756000000000000227e+01,4.016255790354665567e-02
3.760000000000000142e+01,4.141862533736587193e-02
3.764000000000000057e+01,4.543553550335809044e-02
3.767999999999999972e+01,3.150367826566398410e-02
3.771999999999999886e+01,4.403365655976430870e-02
3.775999999999999801e+01,2.296760429503209161e-02
3.779999999999999716e+01,2.514188944529580430e-02
3.784000000000000341e+01,4.595437507255402398e-02
3.788000000000000256e+01,4.191488180397665020e-02
3.792000000000000171e+01,3.327280277825746257e-02
3.796000000000000085e+01,2.923240665555900883e-02
3.800000000000000000e+01,1.966899425861429185e-02
3.803999999999999915e+01,1.608790184727982436e-02
3.807999999999999829e+01,2.631275752190174316e-02
3.811999999999999744e+01,3.055437818649828913e-02
3.815999999999999659e+01,2.421062690306792844e-02
3.820000000000000284e+01,3.673516720908050898e-02
3.824000000000000199e+01,3.936465236974756587e-02
3.828000000000000114e+01,9.778724929423757498e-03
3.832000000000000028e+01,1.631909086040753479e-02
3.835999999999999943e+01,3.045251018787986999e-02
3.839999999999999858e+01,2.640702405665448088e-02
3.843999999999999773e+01,2.719330672505800017e-02
3.847999999999999687e+01,1.348238861704726017e-02
3.852000000000000313e+01,1.633868058987788391e-02
3.856000000000000227e+01,3.438154034512005269e-02
3.860000000000000142e+01,3.125409806899510923e-02
3.864000000000000057e+01,3.019713477979900709e-02
3.867999999999999972e+01,2.614830001959152217e-02
3.871999999999999886e+01,1.358502981049356483e-02
3.875999999999999801e+01,3.001472428890397670e-02
3.879999999999999716e+01,7.095674005297354300e-03
3.884000000000000341e+01,3.272865952937132478e-02
3.888000000000000256e+01,2.085375089395657966e-02
3.892000000000000171e+01,2.761699579297341792e-02
3.896000000000000085e+01,3.990230716955256440e-02
3.900000000000000000e+01,1.537003945071095494e-02
3.903999999999999915e+01,3.179627576749249201e-02
3.907999999999999829e+01,3.418549874859695692e-02
3.911999999999999744e+01,2.230759989544150307e-02
3.915999999999999659e+01,4.172371594335400752e-02
3.920000000000000284e+01,3.950929036075893908e-02
3.924000000000000199e+01,1.658474844892052560e-02
3.928000000000000114e+01,4.152190294010649207e-02
3.932000000000000028e+01,2.572964950748440546e-02
3.935999999999999943e+01,2.121211416552520532e-02
3.939999999999999858e+01,3.786388585429971421e-02
3.943999999999999773e+01,3.288510548088602325e-02
3.947999999999999687e+01,3.411868926296809934e-02
3.952000000000000313e+01,2.752812310379905078e-02
3.956000000000000227e+01,3.520365422182796661e-02
3.960000000000000142e+01,3.068300348196034699e-02
3.964000000000000057e+01,3.306503022304287803e-02
3.967999999999999972e+01,4.396048002624802081e-02
3.971999999999999886e+01,4.081888867596105558e-02
3.975999999999999801e+01,3.583591271194681849e-02
3.979999999999999716e+01,3.614485995464321311e-02
3.984000000000000341e+01,4.427690302510021297e-02
3.988000000000000256e+01,5.010734274605072730e-02
3.992000000000000171e+01,3.775881094099286378e-02
3.996000000000000085e+01,5.946554038436679263e-02
4.000000000000000000e+01,4.527507430686164569e-02
4.003999999999999915e+01,5.685602264166298575e-02
4.007999999999999829e+01,6.038268993465579354e-02
4.011999999999999744e+01,5.608518120719586247e-02
4.015999999999999659e+01,6.260214227819120569e-02
4.020000000000000284e+01,8.775720124798799815e-02
4.024000000000000199e+01,7.954622862488842927e-02
4.028000000000000114e+01,8.330025438425073259e-02
4.032000000000000028e+01,8.636340498914459041e-02
4.035999999999999943e+01,7.953140830218045909e-02
4.039999999999999858e+01,7.292896002339860351e-02
4.043999999999999773e+01,8.243342485207413861e-02
4.047999999999999687e+01,7.767070873363279837e-02
4.052000000000000313e+01,1.030514146035553802e-01
4.056000000000000227e+01,1.019692777707560255e-01
4.060000000000000142e+01,1.151531930112050933e-01
4.064000000000000057e+01,1.271860056683393470e-01
4.067999999999999972e+01,1.288634436047692844e-01
4.071999999999999886e+01,1.482585297981484085e-01
4.075999999999999801e+01,1.648917608725865847e-01
4.079999999999999716e+01,1.856663378885523019e-01
4.084000000000000341e+01,2.167951416266061249e-01
4.088000000000000256e+01,2.658716934271246335e-01
4.092000000000000171e+01,2.981498707961149908e-01
4.096000000000000085e+01,3.536682482296393815e-01
4.100000000000000000e+01,4.183903116309511394e-01
4.103999999999999915e+01,5.111848135789274217e-01
4.107999999999999829e+01,6.288302576953832546e-01
4.111999999999999744e+01,7.200128347685289532e-01
4.115999999999999659e+01,8.468613682514891661e-01
4.120000000000000284e+01,9.433352162944326214e-01
4.124000000000000199e+01,1.000000000000000000e+00
4.128000000000000114e+01,9.680730845160656628e-01
4.132000000000000028e+01,9.237198056538874491e-01
4.135999999999999943e+01,8.515230087569019002e-01
4.139999999999999858e+01,7.399773540880258960e-01
4.143999999999999773e+01,6.426977149815158441e-01
4.147999999999999687e+01,5.362132001818797900e-01
4.152000000000000313e+01,4.308786121491273713e-01
4.156000000000000227e+01,3.595992158202689359e-01
4.160000000000000142e+01,3.348007744950391440e-01
4.164000000000000057e+01,2.704233582062685604e-01
4.167999999999999972e+01,2.281355768871431711e-01
4.171999999999999886e+01,2.157610586380090123e-01
4.175999999999999801e+01,2.091385919234657331e-01
4.179999999999999716e+01,1.799650435286636041e-01
4.184000000000000341e+01,1.650574933100932284e-01
4.188000000000000256e+01,1.565923096901815914e-01
4.192000000000000171e+01,1.552598112102234473e-01
4.196000000000000085e+01,1.240128077765317860e-01
4.200000000000000000e+01,1.424682365999058453e-01
4.203999999999999915e+01,1.149016837944615149e-01
4.207999999999999829e+01,1.032118660533541538e-01
4.211999999999999744e+01,1.172933723166544318e-01
4.215999999999999659e+01,1.115850623718077361e-01
4.220000000000000284e+01,1.252050836749986351e-01
4.224000000000000199e+01,1.006267444952636120e-01
4.228000000000000114e+01,1.013595088455437471e-01
4.232000000000000028e+01,9.933035027095865610e-02
4.235999999999999943e+01,7.912211411494519953e-02
4.239999999999999858e+01,7.985294783368786231e-02
4.243999999999999773e+01,7.506057229209232851e-02
4.247999999999999687e+01,8.614491442869919025e-02
4.252000000000000313e+01,8.687380186838358775e-02
4.256000000000000227e+01,8.369022215167511158e-02
4.260000000000000142e+01,6.715979638121502560e-02
4.264000000000000057e+01,6.811682865428944633e-02
4.267999999999999972e+01,8.794195779210139952e-02
4.271999999999999886e+01,8.245468414191250983e-02
4.275999999999999801e+01,7.627642928183529791e-02
4.279999999999999716e+01,7.377921991267472057e-02
4.284000000000000341e+01,7.404262725593994954e-02
4.288000000000000256e+01,6.832259269418020087e-02
4.292000000000000171e+01,7.663840260611988475e-02
4.296000000000000085e+01,8.288258205528761802e-02
4.300000000000000000e+01,8.682502254310042744e-02
4.303999999999999915e+01,7.926145193216900531e-02
4.307999999999999829e+01,7.814019576149293378e-02
4.311999999999999744e+01,7.356666161377478641e-02
4.315999999999999659e+01,7.865693306865680079e-02
4.320000000000000284e+01,8.535727178859654762e-02
4.324000000000000199e+01,8.239244479647997443e-02
4.328000000000000114e+01,7.160330443344886664e-02
4.332000000000000028e+01,7.761127227761557834e-02
4.335999999999999943e+01,7.694545707348786345e-02
4.339999999999999858e+01,8.640365056021849510e-02
4.343999999999999773e+01,8.895795076145840419e-02
4.347999999999999687e+01,9.174166549764560530e-02
4.352000000000000313e+01,8.439998883154353759e-02
4.356000000000000227e+01,1.030596803397347133e-01
4.360000000000000142e+01,9.249511589094962238e-02
4.364000000000000057e+01,1.157555459781903634e-01
4.367999999999999972e+01,1.038089408720235668e-01
4.371999999999999886e+01,1.217755119051760204e-01
4.375999999999999801e+01,1.323779622239913412e-01
4.379999999999999716e+01,1.455108807685404904e-01
4.384000000000000341e+01,1.524302089213726841e-01
4.388000000000000256e+01,1.848906778196516554e-01
4.392000000000000171e+01,1.957203999310370701e-01
4.396000000000000085e+01,2.228869889118664793e-01
4.400000000000000000e+01,2.617883078241384776e-01
4.403999999999999915e+01,2.815900490933397338e-01
4.407999999999999829e+01,3.007007517784092698e-01
4.411999999999999744e+01,3.221118020203353471e-01
4.415999999999999659e+01,3.439823440007497291e-01
4.420000000000000284e+01,3.536565041827217648e-01
4.424000000000000199e+01,3.198397614717995996e-01
4.428000000000000114e+01,2.876330390833722883e-01
4.432000000000000028e+01,2.706126341170209670e-01
4.435999999999999943e+01,2.554323527559069773e-01
4.439999999999999858e+01,1.914687060681488362e-01
4.443999999999999773e+01,1.693837557430768470e-01
4.447999999999999687e+01,1.369432655290236389e-01
4.452000000000000313e+01,1.277428206429081781e-01
4.456000000000000227e+01,9.806213495193111251e-02
4.460000000000000142e+01,8.540860859249115034e-02
4.464000000000000057e+01,7.114359226845343165e-02
4.467999999999999972e+01,7.896808051805273565e-02
4.471999999999999886e+01,7.206499000757159157e-02
4.475999999999999801e+01,4.905367843858019633e-02
4.479999999999999716e+01,4.675122566756912540e-02
4.484000000000000341e+01,4.283727423889303193e-02
4.488000000000000256e+01,4.674619957268398573e-02
4.492000000000000171e+01,5.019415657143010134e-02
4.496000000000000085e+01,4.190591225801735403e-02
4.500000000000000000e+01,5.248566396976247356e-02
4.503999999999999915e+01,3.061960249487584093e-02
4.507999999999999829e+01,3.751612424660442924e-02
4.511999999999999744e+01,3.359686477159792156e-02
4.515999999999999659e+01,3.312844144934578433e-02
4.520000000000000284e+01,3.473021198141808957e-02
4.524000000000000199e+01,3.886238814914032280e-02
4.528000000000000114e+01,2.826696121619384078e-02
4.532000000000000028e+01,2.480407164105832840e-02
4.535999999999999943e+01,2.847371768512036230e-02
4.539999999999999858e+01,3.352322861053143310e-02
4.543999999999999773e+01,3.719132155904536496e-02
4.547999999999999687e+01,1.669742555507803747e-02
4.552000000000000313e+01,3.601121813150937045e-02
4.556000000000000227e+01,3.369419263789587976e-02
4.560000000000000142e+01,3.850969233179932921e-02
4.564000000000000057e+01,3.527066931662572319e-02
4.567999999999999972e+01,3.433192605238478273e-02
4.571999999999999886e+01,3.040100532116675816e-02
4.575999999999999801e+01,2.508865270414402035e-02
4.579999999999999716e+01,2.851956390135675090e-02
4.584000000000000341e+01,3.217978705532371225e-02
4.588000000000000256e+01,2.226291482926739604e-02
4.592000000000000171e+01,6.132361803595282566e-03
4.596000000000000085e+01,3.096001203342082023e-02
4.600000000000000000e+01,3.346650478854563265e-02
4.603999999999999915e+01,1.871418704968299748e-02
4.607999999999999829e+01,2.628141979295641958e-02
4.611999999999999744e+01,2.441346840397512485e-02
4.615999999999999659e+01,2.622641646238154864e-02
4.620000000000000284e+01,2.964930138983756097e-02
4.624000000000000199e+01,3.606276200754619798e-02
4.628000000000000114e+01,2.498729493961739795e-02
4.632000000000000028e+01,3.300987328257236342e-02
4.635999999999999943e+01,2.538437454241817409e-02
4.639999999999999858e+01,2.765264733714479020e-02
4.643999999999999773e+01,2.554807081003605818e-02
4.647999999999999687e+01,3.793939753996929815e-02
4.652000000000000313e+01,3.560306727221720230e-02
4.656000000000000227e+01,3.050462978657517490e-02
4.660000000000000142e+01,2.839675234366480921e-02
4.664000000000000057e+01,4.791808076239404551e-02
4.667999999999999972e+01,3.361288415152401815e-02
4.671999999999999886e+01,2.966165868656608223e-02
4.675999999999999801e+01,3.307301474930460228e-02
4.679999999999999716e+01,4.062545596155461153e-02
4.684000000000000341e+01,3.114915866751778034e-02
4.688000000000000256e+01,3.501821344454148638e-02
4.692000000000000171e+01,3.175311691673568526e-02
4.696000000000000085e+01,3.239899182401812655e-02
4.700000000000000000e+01,3.810637022762245613e-02
4.703999999999999915e+01,3.322799071101590479e-02
4.707999999999999829e+01,5.918306833007717233e-02
4.711999999999999744e+01,4.210733139601524622e-02
4.715999999999999659e+01,5.241344672085317125e-02
4.720000000000000284e+01,3.303493609356636385e-02
4.724000000000000199e+01,4.218880804779948784e-02
4.728000000000000114e+01,2.672039929200777791e-02
4.732000000000000028e+01,2.896935192194735609e-02
4.735999999999999943e+01,3.098733692139156101e-02
4.739999999999999858e+01,3.438509987151280173e-02
4.743999999999999773e+01,4.974754999229000912e-02
4.747999999999999687e+01,4.831134054893471835e-02
4.752000000000000313e+01,2.915604276295587910e-02
4.756000000000000227e+01,3.462129873010974523e-02
4.760000000000000142e+01,2.581906427695418102e-02
4.764000000000000057e+01,3.105246914111200324e-02
4.767999999999999972e+01,4.295809526494892561e-02
4.771999999999999886e+01,5.026070967135093381e-02
4.775999999999999801e+01,4.145497262323456777e-02
4.779999999999999716e+01,3.725049077923243274e-02
4.784000000000000341e+01,4.293971788002719919e-02
4.788000000000000256e+01,3.321090859037148513e-02
4.792000000000000171e+01,3.337580476828587439e-02
4.796000000000000085e+01,4.067312355552406972e-02
4.800000000000000000e+01,4.635880633463548145e-02
4.803999999999999915e+01,3.846729984859783430e-02
4.807999999999999829e+01,3.264586203671686337e-02
4.811999999999999744e+01,3.832886831912459685e-02
4.815999999999999659e+01,4.078948431916590289e-02
4.820000000000000284e+01,3.197397169929842159e-02
4.824000000000000199e+01,3.857471287735909221e-02
4.828000000000000114e+01,3.159825435859005271e-02
4.832000000000000028e+01,4.026815292049169825e-02
4.835999999999999943e+01,3.950276998778592258e-02
4.839999999999999858e+01,3.873648098060474693e-02
4.843999999999999773e+01,2.508330560204826212e-02
4.847999999999999687e+01,3.259904258897430851e-02
4.852000000000000313e+01,3.367087900644141762e-02
4.856000000000000227e+01,2.921924015571372713e-02
4.860000000000000142e+01,3.351074341628060976e-02
4.864000000000000057e+01,2.215407049277221679e-02
4.867999999999999972e+01,3.104587420180149673e-02
4.871999999999999886e+01,3.027227400873304733e-02
4.875999999999999801e+01,2.949775209366821416e-02
4.879999999999999716e+01,3.217390811753453872e-02
4.884000000000000341e+01,1.897177250428894527e-02
4.888000000000000256e+01,4.120515098849428931e-02
4.892000000000000171e+01,4.157745859915644437e-02
4.896000000000000085e+01,3.205424511607075921e-02
4.900000000000000000e+01,2.206988595936928976e-02
4.903999999999999915e+01,2.405014442878612019e-02
4.907999999999999829e+01,3.385309710625861168e-02
4.911999999999999744e+01,3.122934737586618298e-02
4.915999999999999659e+01,3.297668697676151700e-02
4.920000000000000284e+01,3.449297897094318749e-02
4.924000000000000199e+01,3.692875541964480562e-02
4.928000000000000114e+01,3.269049150526264630e-02
4.932000000000000028e+01,2.822117476832653252e-02
4.935999999999999943e+01,3.203475358909081694e-02
4.939999999999999858e+01,3.653770314995182650e-02
4.943999999999999773e+01,3.574724595309174136e-02
4.947999999999999687e+01,3.472572897922391461e-02
4.952000000000000313e+01,2.311834629111196235e-02
4.956000000000000227e+01,3.014865466625614443e-02
4.960000000000000142e+01,2.751352088980688060e-02
4.964000000000000057e+01,3.546233810045791579e-02
4.967999999999999972e+01,2.937368124287000754e-02
4.971999999999999886e+01,2.719587585604292188e-02
4.975999999999999801e+01,2.777838640151618008e-02
4.979999999999999716e+01,4.446740321890159386e-02
4.984000000000000341e+01,3.469317397524666891e-02
4.988000000000000256e+01,3.090075008762341660e-02
4.992000000000000171e+01,2.135468505897895539e-02
4.996000000000000085e+01,2.331298414840490829e-02
5.000000000000000000e+01,3.792617941713474772e-02
5.003999999999999915e+01,2.837718753145108616e-02
5.007999999999999829e+01,3.355404918756904609e-02
5.011999999999999744e+01,3.205683396972107413e-02
5.015999999999999659e+01,3.424034433791656173e-02
5.020000000000000284e+01,2.675838647531704473e-02
5.024000000000000199e+01,3.584312927982059860e-02
5.028000000000000114e+01,4.032474909562898391e-02
5.032000000000000028e+01,3.652153602461834236e-02
5.035999999999999943e+01,3.064637084734907896e-02
5.039999999999999858e+01,3.075298842413670686e-02
5.043999999999999773e+01,3.546074645655145074e-02
5.047999999999999687e+01,1.646651172974356037e-02
5.052000000000000313e+01,3.820017529653171873e-02
5.056000000000000227e+01,3.116949390754361615e-02
5.060000000000000142e+01,3.679368261865783446e-02
5.064000000000000057e+01,2.147715273572846362e-02
5.067999999999999972e+01,3.515306943350195862e-02
5.071999999999999886e+01,3.502157361905646610e-02
5.075999999999999801e+01,2.867618663276864585e-02
5.079999999999999716e+01,3.360502049369957361e-02
5.084000000000000341e+01,2.334579606675473568e-02
5.088000000000000256e+01,2.344036196992409921e-02
5.092000000000000171e+01,3.227796914480848822e-02
5.096000000000000085e+01,3.191028857518121709e-02
5.100000000000000000e+01,3.062116188132720657e-02
5.103999999999999915e+01,3.600411040362325177e-02
5.107999999999999829e+01,2.780973752614874367e-02
5.111999999999999744e+01,2.490679582778096771e-02
5.115999999999999659e+01,3.811030128846835952e-02
5.120000000000000284e+01,3.037306381452398868e-02
5.124000000000000199e+01,3.851216326243848964e-02
5.128000000000000114e+01,3.790617457687264075e-02
5.132000000000000028e+01,2.625402841951885932e-02
5.135999999999999943e+01,4.888675476573572931e-02
5.139999999999999858e+01,2.710783996737475485e-02
5.143999999999999773e+01,3.570197927587767661e-02
5.147999999999999687e+01,4.958753411596642652e-02
5.152000000000000313e+01,3.954094423291371063e-02
5.156000000000000227e+01,4.537067736281229918e-02
5.160000000000000142e+01,3.302093129157757101e-02
5.164000000000000057e+01,3.102494251680166723e-02
5.167999999999999972e+01,2.764726454143174444e-02
5.171999999999999886e+01,3.462334038529385483e-02
5.175999999999999801e+01,3.791665595164098873e-02
5.179999999999999716e+01,2.993368642286964657e-02
5.184000000000000341e+01,3.115393169764294617e-02
5.188000000000000256e+01,3.467418723826537486e-02
5.192000000000000171e+01,3.520199582682737721e-02
5.196000000000000085e+01,3.987066528376687763e-02
5.200000000000000000e+01,3.924581671172507752e-02
5.203999999999999915e+01,3.723926329156823645e-02
5.207999999999999829e+01,2.970908160523377806e-02
5.211999999999999744e+01,4.656914871013035501e-02
5.215999999999999659e+01,4.041747031394795492e-02
5.220000000000000284e+01,4.139803023406460336e-02
5.224000000000000199e+01,5.572370925104071920e-02
5.228000000000000114e+01,6.498596482871081548e-02
5.232000000000000028e+01,5.399774907048095207e-02
5.235999999999999943e+01,5.221272551382101501e-02
5.239999999999999858e+01,4.766534090170879839e-02
5.243999999999999773e+01,5.623295993341932003e-02
5.247999999999999687e+01,4.984255615407243850e-02
5.252000000000000313e+01,4.414138750297387503e-02
5.256000000000000227e+01,4.027998604135718530e-02
5.260000000000000142e+01,4.286048522999695576e-02
5.264000000000000057e+01,4.774096165083056148e-02
5.267999999999999972e+01,5.906333524469370433e-02
5.271999999999999886e+01,4.484276463722632750e-02
5.275999999999999801e+01,3.430280660592881919e-02
5.279999999999999716e+01,4.447135964992350587e-02
5.284000000000000341e+01,3.692059311570684149e-02
5.288000000000000256e+01,3.788267590117715133e-02
5.292000000000000171e+01,4.206515078842484878e-02
5.296000000000000085e+01,3.612182396061112272e-02
5.300000000000000000e+01,4.375368995597087030e-02
5.303999999999999915e+01,3.458665471992981855e-02
5.307999999999999829e+01,2.887011139118169506e-02
5.311999999999999744e+01,4.455238550872631792e-02
5.315999999999999659e+01,3.929383149958059346e-02
5.320000000000000284e+01,4.438896698096948118e-02
5.324000000000000199e+01,3.245508577792090982e-02
5.328000000000000114e+01,3.616734606747636777e-02
5.332000000000000028e+01,3.596667151362330228e-02
5.335999999999999943e+01,4.657989301578991520e-02
5.339999999999999858e+01,3.211035428013626902e-02
5.343999999999999773e+01,2.546332024367330138e-02
5.347999999999999687e+01,4.228604884570661554e-02
5.352000000000000313e+01,3.241526467429358543e-02
5.356000000000000227e+01,2.461431098699590203e-02
5.360000000000000142e+01,3.821215388262956536e-02
5.364000000000000057e+01,3.547128298759961301e-02
5.367999999999999972e+01,3.503034412081396792e-02
5.371999999999999886e+01,3.113666654442432888e-02
5.375999999999999801e+01,4.127836227749145243e-02
5.379999999999999716e+01,5.717158622250360922e-02
5.384000000000000341e+01,3.555626576660007171e-02
5.388000000000000256e+01,3.741069056305849211e-02
5.392000000000000171e+01,2.545756375822258097e-02
5.396000000000000085e+01,3.421289760888894527e-02
5.400000000000000000e+01,4.135633465941229714e-02
5.403999999999999915e+01,4.481691233145462805e-02
5.407999999999999829e+01,3.493014496768759303e-02
5.411999999999999744e+01,2.918414458717234761e-02
5.415999999999999659e+01,4.230574208933686464e-02
5.420000000000000284e+01,4.161977581991298941e-02
5.424000000000000199e+01,3.886168879872673593e-02
5.428000000000000114e+01,5.082927276493075935e-02
5.432000000000000028e+01,3.748394974523598655e-02
5.435999999999999943e+01,4.185568211530692889e-02
5.439999999999999858e+01,4.047357861965118764e-02
5.443999999999999773e+01,3.011614288008382725e-02
5.447999999999999687e+01,4.230799927379914893e-02
5.452000000000000313e+01,4.253313206677378222e-02
5.456000000000000227e+01,5.380221551733423146e-02
5.460000000000000142e+01,4.965297049038604194e-02
5.464000000000000057e+01,4.987457660468420928e-02
5.467999999999999972e+01,4.181116032329823540e-02
5.471999999999999886e+01,5.836798658323900241e-02
5.475999999999999801e+01,6.525914641045238440e-02
5.479999999999999716e+01,6.685666650574342840e-02
5.484000000000000341e+01,5.809819641117205946e-02
5.488000000000000256e+01,6.383526446482004624e-02
5.492000000000000171e+01,7.532381204923661866e-02
5.496000000000000085e+01,6.241985186981699463e-02
5.500000000000000000e+01,7.390601530146052867e-02
5.503999999999999915e+01,7.641682040999085712e-02
5.507999999999999829e+01,7.455440065618242074e-02
5.511999999999999744e+01,7.936387877995304541e-02
5.515999999999999659e+01,7.841948800434171696e-02
5.520000000000000284e+01,7.494272123030652766e-02
5.524000000000000199e+01,7.974859443779581947e-02
5.528000000000000114e+01,7.695973945030765151e-02
5.532000000000000028e+01,6.634604776925905056e-02
5.535999999999999943e+01,7.966225053181388849e-02
5.539999999999999858e+01,6.398379120639666184e-02
5.543999999999999773e+01,6.072988484888600103e-02
5.547999999999999687e+01,6.437796748140277303e-02
5.552000000000000313e+01,5.697971008772032692e-02
5.556000000000000227e+01,5.556301116696096137e-02
5.560000000000000142e+01,5.621605406103132030e-02
5.564000000000000057e+01,5.295606127211357345e-02
5.567999999999999972e+01,6.442167861911578253e-02
5.571999999999999886e+01,5.310550248841211518e-02
5.575999999999999801e+01,5.674503977637087443e-02
5.579999999999999716e+01,4.933822486783631667e-02
5.584000000000000341e+01,6.402042945978875244e-02
5.588000000000000256e+01,5.500040657970398789e-02
5.592000000000000171e+01,5.426299412471526085e-02
5.596000000000000085e+01,6.387915119593376434e-02
5.600000000000000000e+01,6.797150961685734238e-02
5.603999999999999915e+01,5.733579725009661787e-02
5.607999999999999829e+01,5.728375595367218853e-02
5.611999999999999744e+01,6.551431638927657231e-02
5.615999999999999659e+01,6.085765490111147424e-02
5.620000000000000284e+01,6.379327138784020301e-02
5.624000000000000199e+01,5.177070163384792090e-02
5.628000000000000114e+01,6.574894717507454023e-02
5.632000000000000028e+01,8.041626267627255409e-02
5.635999999999999943e+01,5.941577832366334855e-02
5.639999999999999858e+01,6.740749193003485462e-02
5.643999999999999773e+01,6.458293228206742065e-02
5.647999999999999687e+01,5.968615451998489363e-02
5.652000000000000313e+01,6.813430982312351780e-02
5.656000000000000227e+01,7.543067057479771464e-02
5.660000000000000142e+01,7.973438095663884506e-02
5.664000000000000057e+01,6.286700519245082275e-02
5.667999999999999972e+01,8.465629913566428966e-02
5.671999999999999886e+01,6.571542885822269364e-02
5.675999999999999801e+01,6.679257725343430707e-02
5.679999999999999716e+01,7.339101670461338489e-02
5.684000000000000341e+01,7.216455339492137966e-02
5.688000000000000256e+01,5.828094362638737425e-02
5.692000000000000171e+01,5.912289009675655849e-02
5.696000000000000085e+01,6.341515982891487990e-02
5.700000000000000000e+01,7.368892544391236754e-02
5.703999999999999915e+01,7.107543088564466371e-02
5.707999999999999829e+01,5.419403385568195147e-02
5.711999999999999744e+01,5.917149393060665286e-02
5.715999999999999659e+01,5.931542521535496104e-02
5.720000000000000284e+01,5.876774765076250157e-02
5.724000000000000199e+01,5.476717837858311594e-02
5.728000000000000114e+01,5.973948069855098547e-02
5.732000000000000028e+01,4.423098759596937046e-02
5.735999999999999943e+01,6.231678592503389624e-02
5.739999999999999858e+01,5.531965015493416765e-02
5.743999999999999773e+01,4.417929370427203101e-02
5.747999999999999687e+01,4.155158663275114461e-02
5.752000000000000313e+01,4.214407172246182470e-02
5.756000000000000227e+01,4.526642695488244938e-02
5.760000000000000142e+01,3.297032331378629832e-02
5.764000000000000057e+01,3.839113249615368900e-02
5.767999999999999972e+01,3.782785648652284283e-02
5.771999999999999886e+01,4.669764646423017057e-02
5.775999999999999801e+01,4.498121257332438061e-02
5.779999999999999716e+01,4.418389107366212792e-02
5.784000000000000341e+01,4.039386530715006335e-02
5.788000000000000256e+01,4.534657829361420783e-02
5.792000000000000171e+01,3.280985765792952119e-02
5.796000000000000085e+01,3.223736693756572985e-02
5.800000000000000000e+01,3.948718271446024358e-02
5.803999999999999915e+01,3.638086921241693444e-02
5.807999999999999829e+01,4.938070208930353533e-02
5.811999999999999744e+01,4.166959801140240893e-02
5.815999999999999659e+01,4.247111375621399204e-02
5.820000000000000284e+01,3.383692030751166147e-02
5.824000000000000199e+01,3.693683784386676133e-02
5.828000000000000114e+01,4.049563338816521835e-02
5.832000000000000028e+01,4.014127676237508324e-02
5.835999999999999943e+01,4.599846366653640578e-02
5.839999999999999858e+01,3.528662312506516269e-02
5.843999999999999773e+01,4.804432963402359424e-02
5.847999999999999687e+01,3.272766722165258713e-02
5.852000000000000313e+01,4.065044162251492399e-02
5.856000000000000227e+01,4.120845202206695201e-02
5.860000000000000142e+01,4.314575356053247657e-02
5.864000000000000057e+01,2.989465778150113273e-02
5.867999999999999972e+01,3.459053638195323105e-02
5.871999999999999886e+01,3.261196430654943884e-02
5.875999999999999801e+01,4.029651977450375566e-02
5.879999999999999716e+01,4.245715488922228997e-02
5.884000000000000341e+01,4.300568283157144012e-02
5.888000000000000256e+01,4.240231538287660834e-02
5.892000000000000171e+01,3.719544940498320518e-02
5.896000000000000085e+01,2.715497639930854884e-02
5.900000000000000000e+01,3.828295850378134885e-02
5.903999999999999915e+01,3.238167182486770962e-02
5.907999999999999829e+01,4.074563397979267393e-02
5.911999999999999744e+01,3.714267259343118077e-02
5.915999999999999659e+01,3.330823068560910538e-02
5.920000000000000284e+01,3.200358763734588441e-02
5.924000000000000199e+01,3.575991606969147751e-02
5.928000000000000114e+01,2.570845992654157558e-02
5.932000000000000028e+01,3.084266922542727024e-02
5.935999999999999943e+01,3.459485550993817576e-02
5.939999999999999858e+01,3.121234804222593889e-02
5.943999999999999773e+01,3.726283180147386964e-02
5.947999999999999687e+01,2.697434793249576732e-02
5.952000000000000313e+01,2.634895857322039694e-02
5.956000000000000227e+01,3.331570114530967713e-02
5.960000000000000142e+01,3.590902239174136035e-02
5.964000000000000057e+01,3.205795973417747274e-02
5.967999999999999972e+01,2.958614127296406437e-02
5.971999999999999886e+01,4.437093170737639591e-02
5.975999999999999801e+01,3.338236518452315088e-02
5.979999999999999716e+01,3.320741480092558734e-02
5.984000000000000341e+01,3.832351657870455147e-02
5.988000000000000256e+01,3.239308882141928025e-02
5.992000000000000171e+01,2.485050694920173248e-02
5.996000000000000085e+01,2.881185454169415613e-02
