2.003999999999999915e+01,3.711334258302594752e-02
2.007999999999999829e+01,4.112035546711615558e-02
2.012000000000000099e+01,2.512556508308681075e-02
2.016000000000000014e+01,5.406815939592498482e-02
2.019999999999999929e+01,2.508446340979573683e-02
2.023999999999999844e+01,1.817955681062213488e-02
2.028000000000000114e+01,3.776930392581676066e-02
2.032000000000000028e+01,5.216338030329766007e-02
2.035999999999999943e+01,3.668489384383414459e-02
2.039999999999999858e+01,5.211692445146034330e-02
2.044000000000000128e+01,4.884593166125143771e-02
2.048000000000000043e+01,4.401586073727647985e-02
2.051999999999999957e+01,3.321084637743131757e-02
2.055999999999999872e+01,5.227732012005596035e-02
2.060000000000000142e+01,4.354928213213682398e-02
2.064000000000000057e+01,4.650975850534377898e-02
2.067999999999999972e+01,5.206726236900543342e-02
2.071999999999999886e+01,5.736446894387335627e-02
2.076000000000000156e+01,5.746599942022540680e-02
2.080000000000000071e+01,5.159258304928743266e-02
2.083999999999999986e+01,4.364057065085390208e-02
2.087999999999999901e+01,2.581725912329927916e-02
2.092000000000000171e+01,5.241180952542476290e-02
2.096000000000000085e+01,3.354838455186229945e-02
2.100000000000000000e+01,4.299790179711086846e-02
2.103999999999999915e+01,3.062730728862740961e-02
2.107999999999999829e+01,2.708789748856541696e-02
2.112000000000000099e+01,4.251018530814233004e-02
2.116000000000000014e+01,4.286603551099238407e-02
2.119999999999999929e+01,5.672869052879444401e-02
2.123999999999999844e+01,4.773220434089873315e-02
2.128000000000000114e+01,3.743638702613295149e-02
2.132000000000000028e+01,5.233642698570122043e-02
2.135999999999999943e+01,4.100048647801348561e-02
2.139999999999999858e+01,5.667869954663393856e-02
2.144000000000000128e+01,3.001601243712976805e-02
2.148000000000000043e+01,1.737964023877646563e-02
2.151999999999999957e+01,6.007090631990923829e-02
2.155999999999999872e+01,4.821270333184268092e-02
2.160000000000000142e+01,3.895151662528023584e-02
2.164000000000000057e+01,1.955926477621983475e-02
2.167999999999999972e+01,4.614340612012731574e-02
2.171999999999999886e+01,5.168669768685438259e-02
2.176000000000000156e+01,1.592811219192877270e-02
2.180000000000000071e+01,4.251059391792091219e-02
2.183999999999999986e+01,2.753144085375975811e-02
2.187999999999999901e+01,3.437130044157194614e-02
2.192000000000000171e+01,2.406665912261518256e-02
2.196000000000000085e+01,1.609927294524174726e-02
2.200000000000000000e+01,2.787284392733066496e-02
2.203999999999999915e+01,4.250318258393037674e-02
2.207999999999999829e+01,6.258785596578823884e-02
2.212000000000000099e+01,3.279867502417516817e-02
2.216000000000000014e+01,9.243098094556886565e-03
2.219999999999999929e+01,3.685904309859941441e-02
2.223999999999999844e+01,6.109759124900070171e-02
2.228000000000000114e+01,3.052690480417139668e-02
2.232000000000000028e+01,4.047771192478365893e-02
2.235999999999999943e+01,4.055720188448504876e-02
2.239999999999999858e+01,3.855807681020942401e-02
2.244000000000000128e+01,1.136198512558192486e-02
2.248000000000000043e+01,5.300087122222863628e-02
2.251999999999999957e+01,5.125981696718022451e-02
2.255999999999999872e+01,5.263528080495830791e-02
2.260000000000000142e+01,3.193085712871374104e-02
2.264000000000000057e+01,5.304670688819195651e-02
2.267999999999999972e+01,2.844480356230871809e-02
2.271999999999999886e+01,3.423387552984700349e-02
2.276000000000000156e+01,2.495649038683137033e-02
2.280000000000000071e+01,4.944691736206733440e-02
2.283999999999999986e+01,3.263545411731701845e-02
2.287999999999999901e+01,3.140882924947506483e-02
2.292000000000000171e+01,3.329871808834831970e-02
2.296000000000000085e+01,3.155144454754919836e-02
2.300000000000000000e+01,5.370122404351906908e-02
2.303999999999999915e+01,3.454911088277463210e-02
2.307999999999999829e+01,3.435867146173110509e-02
2.312000000000000099e+01,2.325787860497128060e-02
2.316000000000000014e+01,2.436508291417904468e-02
2.319999999999999929e+01,8.587527475365286378e-03
2.323999999999999844e+01,5.644980548207141624e-02
2.328000000000000114e+01,3.313816121991799979e-02
2.332000000000000028e+01,2.826867426577269610e-02
2.335999999999999943e+01,4.288037114752715762e-02
2.339999999999999858e+01,4.865976521262047050e-02
2.344000000000000128e+01,1.963118059277540670e-02
2.348000000000000043e+01,2.618869708297045726e-02
2.351999999999999957e+01,3.118709840112809592e-02
2.355999999999999872e+01,3.410687055228402847e-02
2.360000000000000142e+01,4.040290487908821532e-02
2.364000000000000057e+01,1.760560666803037688e-02
2.367999999999999972e+01,5.013592041979246516e-02
2.371999999999999886e+01,2.863625229330707053e-02
2.376000000000000156e+01,5.623003306352650915e-02
2.380000000000000071e+01,4.304142542508216512e-02
2.383999999999999986e+01,5.738645514247835838e-02
2.387999999999999901e+01,3.640398730651523557e-02
2.392000000000000171e+01,4.503320988217536514e-02
2.396000000000000085e+01,5.573990647832616913e-02
2.400000000000000000e+01,2.202761767575458357e-02
2.403999999999999915e+01,3.065509875942578483e-02
2.407999999999999829e+01,3.616491732536409459e-02
2.412000000000000099e+01,1.621799205862307566e-02
2.416000000000000014e+01,1.912907868038922141e-02
2.419999999999999929e+01,4.411890644188918437e-02
2.423999999999999844e+01,5.326298879961701566e-02
2.428000000000000114e+01,3.383324432957109107e-02
2.432000000000000028e+01,4.479445565911962385e-02
2.435999999999999943e+01,6.874291979569330246e-02
2.439999999999999858e+01,2.905039387819842445e-02
2.444000000000000128e+01,3.143787621968040236e-02
2.448000000000000043e+01,2.940890740092617223e-02
2.451999999999999957e+01,1.439151405888292219e-02
2.455999999999999872e+01,3.573947892997427628e-02
2.460000000000000142e+01,2.643555904405192961e-02
2.464000000000000057e+01,2.804083452326015455e-02
2.467999999999999972e+01,2.574916991312259373e-02
2.471999999999999886e+01,2.995083487866607996e-02
2.476000000000000156e+01,3.700923437921443959e-02
2.480000000000000071e+01,2.640358437648612430e-02
2.483999999999999986e+01,4.229253253071905971e-02
2.487999999999999901e+01,2.597105199366252573e-02
2.492000000000000171e+01,3.432587136221057489e-02
2.496000000000000085e+01,2.683493655476450884e-02
2.500000000000000000e+01,1.700559828206304677e-02
2.503999999999999915e+01,3.367085572959445383e-02
2.507999999999999829e+01,3.942573586147168907e-02
2.512000000000000099e+01,3.401048143653975092e-02
2.516000000000000014e+01,4.366052410219369712e-02
2.519999999999999929e+01,3.616602589873300216e-02
2.523999999999999844e+01,1.136716186439498894e-03
2.528000000000000114e+01,2.455207998885028040e-02
2.532000000000000028e+01,3.004363119868128096e-02
2.535999999999999943e+01,2.956018000381539085e-02
2.539999999999999858e+01,3.115418528499587850e-02
2.544000000000000128e+01,2.157805211060163236e-02
2.548000000000000043e+01,2.395013108231618809e-02
2.551999999999999957e+01,3.775090820517525148e-02
2.555999999999999872e+01,2.973151850424080034e-02
2.560000000000000142e+01,3.989450157880163744e-02
2.564000000000000057e+01,2.174339800964480984e-02
2.567999999999999972e+01,2.385272027176644702e-02
2.571999999999999886e+01,2.310411678879191466e-02
2.576000000000000156e+01,3.586226256336218221e-02
2.580000000000000071e+01,3.745026549624690115e-02
2.583999999999999986e+01,1.046442259487618230e-02
2.587999999999999901e+01,2.893540820755907336e-02
2.592000000000000171e+01,1.883254701129530653e-02
2.596000000000000085e+01,2.691205420441566271e-02
2.600000000000000000e+01,4.044584836291806318e-02
2.603999999999999915e+01,2.722409152710198593e-02
2.607999999999999829e+01,2.465175575816301590e-02
2.612000000000000099e+01,3.896300266017884567e-02
2.616000000000000014e+01,3.353212945869064876e-02
2.619999999999999929e+01,2.991894623252577476e-02
2.623999999999999844e+01,4.189056044623222508e-02
2.628000000000000114e+01,3.671762063249067731e-02
2.632000000000000028e+01,4.842826105297554778e-02
2.635999999999999943e+01,4.403337348655856492e-02
2.639999999999999858e+01,2.846833576827077772e-02
2.644000000000000128e+01,2.770882279169784718e-02
2.648000000000000043e+01,5.318413123710420687e-02
2.651999999999999957e+01,5.242339634766232659e-02
2.655999999999999872e+01,5.763645510838198011e-02
2.660000000000000142e+01,7.297941509286601236e-02
2.664000000000000057e+01,5.039727635904610314e-02
2.667999999999999972e+01,6.651828079332383625e-02
2.671999999999999886e+01,8.965210394361734780e-02
2.676000000000000156e+01,7.667912419023509285e-02
2.680000000000000071e+01,6.578358385580020118e-02
2.683999999999999986e+01,4.865326633106911020e-02
2.687999999999999901e+01,6.944681927627940898e-02
2.692000000000000171e+01,4.867867553843550216e-02
2.696000000000000085e+01,4.323556371443131735e-02
2.700000000000000000e+01,5.051991577882827822e-02
2.703999999999999915e+01,4.637435314001427111e-02
2.707999999999999829e+01,2.638301049588538325e-02
2.712000000000000099e+01,4.041918409048404076e-02
2.716000000000000014e+01,4.796081984221190614e-02
2.719999999999999929e+01,1.446026900708441594e-02
2.723999999999999844e+01,3.836534079148572196e-02
2.728000000000000114e+01,3.889168427337369449e-02
2.732000000000000028e+01,2.175394754920756749e-02
2.735999999999999943e+01,1.214853525114515179e-02
2.739999999999999858e+01,3.059623044277632112e-02
2.744000000000000128e+01,2.930178993584182587e-02
2.748000000000000043e+01,2.852624004012236855e-02
2.751999999999999957e+01,2.099639116161167510e-02
2.755999999999999872e+01,3.736353976246299669e-02
2.760000000000000142e+01,4.359955060631057894e-02
2.764000000000000057e+01,2.411901797724963145e-02
2.767999999999999972e+01,3.139280565741624923e-02
2.771999999999999886e+01,1.191102187474610274e-02
2.776000000000000156e+01,2.905431407136594216e-02
2.780000000000000071e+01,3.528719581282557111e-02
2.783999999999999986e+01,1.528401813702983704e-02
2.787999999999999901e+01,1.787905027278425749e-02
2.792000000000000171e+01,2.333077844323514297e-02
2.796000000000000085e+01,3.371725619151127312e-02
2.800000000000000000e+01,3.890796963170400913e-02
2.803999999999999915e+01,2.513581032457378947e-02
2.807999999999999829e+01,1.967523693275292918e-02
2.812000000000000099e+01,2.927992456793781714e-02
2.816000000000000014e+01,1.888271097852572272e-02
2.819999999999999929e+01,3.420078434760989022e-02
2.823999999999999844e+01,1.964619887265175655e-02
2.828000000000000114e+01,3.002762912007057861e-02
2.832000000000000028e+01,4.222672351349184006e-02
2.835999999999999943e+01,2.715072513892689485e-02
2.839999999999999858e+01,2.220460605757104341e-02
2.844000000000000128e+01,2.479079824398553941e-02
2.848000000000000043e+01,2.763611210416399427e-02
2.851999999999999957e+01,2.710395259743027946e-02
2.855999999999999872e+01,2.319431923643873808e-02
2.860000000000000142e+01,1.434867101098764690e-02
2.864000000000000057e+01,3.901100699750996437e-02
2.867999999999999972e+01,2.730675993395456982e-02
2.871999999999999886e+01,2.677141528008026086e-02
2.876000000000000156e+01,0.000000000000000000e+00
2.880000000000000071e+01,2.933540456392071463e-02
2.883999999999999986e+01,1.762860255981340066e-02
2.887999999999999901e+01,2.410413336885578600e-02
2.892000000000000171e+01,2.148753735372439452e-02
2.896000000000000085e+01,2.874105705515338574e-02
2.900000000000000000e+01,2.872074623438232097e-02
2.903999999999999915e+01,2.895955026453578274e-02
2.907999999999999829e+01,1.802817149065811739e-02
2.912000000000000099e+01,1.203152816158118560e-02
2.916000000000000014e+01,3.123064658708574540e-02
2.919999999999999929e+01,3.458395917795464847e-02
2.923999999999999844e+01,1.403900607875335944e-02
2.928000000000000114e+01,2.388494834828284313e-02
2.932000000000000028e+01,2.905462373494008960e-02
2.935999999999999943e+01,3.188584253566322663e-02
2.939999999999999858e+01,4.536644195357222853e-02
2.944000000000000128e+01,3.806585429039441998e-02
2.948000000000000043e+01,1.959507894972889810e-02
2.951999999999999957e+01,2.398225019324990576e-02
2.955999999999999872e+01,3.927855685838346073e-02
2.960000000000000142e+01,3.717051229256865957e-02
2.964000000000000057e+01,3.480206175987442946e-02
2.967999999999999972e+01,2.827685346581554349e-02
2.971999999999999886e+01,3.993396775064716325e-02
2.976000000000000156e+01,3.418672885514781323e-02
2.980000000000000071e+01,3.545227115004711410e-02
2.983999999999999986e+01,1.126099992183529977e-02
2.987999999999999901e+01,2.109721130549944632e-02
2.992000000000000171e+01,3.249131058752973561e-02
2.996000000000000085e+01,2.752008126773787880e-02
3.000000000000000000e+01,5.423852231350113212e-02
3.003999999999999915e+01,3.212203955658652493e-02
3.007999999999999829e+01,2.610982096197703509e-02
3.012000000000000099e+01,1.360302846091648865e-02
3.016000000000000014e+01,3.018833683793531453e-02
3.019999999999999929e+01,2.365463809001566373e-02
3.023999999999999844e+01,2.205566114121777083e-02
3.028000000000000114e+01,2.435237848895877716e-02
3.032000000000000028e+01,4.041554629064682963e-02
3.035999999999999943e+01,3.595727255610699918e-02
3.039999999999999858e+01,3.331663762559444047e-02
3.044000000000000128e+01,3.431193828842872551e-02
3.048000000000000043e+01,3.582609301155235265e-02
3.051999999999999957e+01,5.162620925951332679e-02
3.055999999999999872e+01,5.184025985689497129e-02
3.060000000000000142e+01,4.971583876062642821e-02
3.064000000000000057e+01,5.746151291239992576e-02
3.067999999999999972e+01,8.235047093153054221e-02
3.071999999999999886e+01,5.658619958644163506e-02
3.076000000000000156e+01,8.822750797446207716e-02
3.080000000000000071e+01,1.146730179402017658e-01
3.083999999999999986e+01,1.057909455544343152e-01
3.087999999999999901e+01,1.096362897845372802e-01
3.092000000000000171e+01,1.121821854374619454e-01
3.096000000000000085e+01,8.381636209160096829e-02
3.100000000000000000e+01,6.661941337671752061e-02
3.103999999999999915e+01,6.189012257451237398e-02
3.107999999999999829e+01,5.040648941575075204e-02
3.112000000000000099e+01,5.242954021021330180e-02
3.116000000000000014e+01,3.964578830533933840e-02
3.119999999999999929e+01,3.257601676471879454e-02
3.123999999999999844e+01,4.264952226861588175e-02
3.128000000000000114e+01,3.583816958066483177e-02
3.132000000000000028e+01,4.720911997777739455e-02
3.135999999999999943e+01,4.715010303834588773e-02
3.139999999999999858e+01,5.722092884119789336e-02
3.144000000000000128e+01,6.287521868566606220e-02
3.148000000000000043e+01,3.865681021109212967e-02
3.151999999999999957e+01,3.651705369199299139e-02
3.155999999999999872e+01,2.736319221437982438e-02
3.160000000000000142e+01,5.249654914658800908e-02
3.164000000000000057e+01,3.970474644228244587e-02
3.167999999999999972e+01,4.093913437598037386e-02
3.171999999999999886e+01,6.243387455175958972e-02
3.176000000000000156e+01,5.431566975088611415e-02
3.180000000000000071e+01,5.346997852693691211e-02
3.183999999999999986e+01,3.288209799639754682e-02
3.187999999999999901e+01,5.930951340091617646e-02
3.192000000000000171e+01,6.989108983129301012e-02
3.196000000000000085e+01,4.098896220353499820e-02
3.200000000000000000e+01,7.131069647783554177e-02
3.203999999999999915e+01,5.487553661264901045e-02
3.207999999999999829e+01,5.116777874296248724e-02
3.211999999999999744e+01,5.992766562762118915e-02
3.215999999999999659e+01,5.258195386025469459e-02
3.220000000000000284e+01,3.718310232160627199e-02
3.224000000000000199e+01,4.879827228858736599e-02
3.228000000000000114e+01,4.222978811103193092e-02
3.232000000000000028e+01,5.670091912680055163e-02
3.235999999999999943e+01,4.000055733287550402e-02
3.239999999999999858e+01,3.992394494282481415e-02
3.243999999999999773e+01,4.036616273312541858e-02
3.247999999999999687e+01,3.613207514024525946e-02
3.252000000000000313e+01,1.267530346351720787e-02
3.256000000000000227e+01,4.038992749791957271e-02
3.260000000000000142e+01,3.667329904474488089e-02
3.264000000000000057e+01,2.438401195186708226e-02
3.267999999999999972e+01,2.404284928287633502e-02
3.271999999999999886e+01,2.707783767471959660e-02
3.275999999999999801e+01,2.933286857910200052e-02
3.279999999999999716e+01,3.340550904677119098e-02
3.284000000000000341e+01,2.267132634658541868e-02
3.288000000000000256e+01,1.505353600404159102e-02
3.292000000000000171e+01,2.613754276035281515e-02
3.296000000000000085e+01,4.761113000627549552e-02
3.300000000000000000e+01,6.830475684066333875e-02
3.303999999999999915e+01,6.951593650190017459e-02
3.307999999999999829e+01,2.422996610647158364e-02
3.311999999999999744e+01,3.816784396742280844e-02
3.315999999999999659e+01,3.184400293175789626e-02
3.320000000000000284e+01,4.240365830686321225e-02
3.324000000000000199e+01,3.348086407208909071e-02
3.328000000000000114e+01,2.377810601436046445e-02
3.332000000000000028e+01,2.004905924537382991e-02
3.335999999999999943e+01,1.034491260255497071e-02
3.339999999999999858e+01,2.739501657853188332e-02
3.343999999999999773e+01,3.093707384551516379e-02
3.347999999999999687e+01,1.343813805568918815e-02
3.352000000000000313e+01,3.178493780594771750e-02
3.356000000000000227e+01,2.779195975565912358e-02
3.360000000000000142e+01,2.535682476793438278e-02
3.364000000000000057e+01,2.889539717018613924e-02
3.367999999999999972e+01,2.074421721603544530e-02
3.371999999999999886e+01,3.908752722810580199e-02
3.375999999999999801e+01,4.314351637098917669e-02
3.379999999999999716e+01,3.836707598733552632e-02
3.384000000000000341e+01,3.047285417360408658e-02
3.388000000000000256e+01,3.011087734863104187e-02
3.392000000000000171e+01,4.715190166982459463e-02
3.396000000000000085e+01,3.224214342606949307e-02
3.400000000000000000e+01,1.785119635618422768e-02
3.403999999999999915e+01,4.554014058231346807e-02
3.407999999999999829e+01,4.491489533478734003e-02
3.411999999999999744e+01,4.350967603004751022e-02
3.415999999999999659e+01,6.158550897787479217e-02
3.420000000000000284e+01,4.874958345191663517e-02
3.424000000000000199e+01,4.630322282050818722e-02
3.428000000000000114e+01,4.333664293631260545e-02
3.432000000000000028e+01,4.218765409626808183e-02
3.435999999999999943e+01,5.610385025730397351e-02
3.439999999999999858e+01,4.923879890638920009e-02
3.443999999999999773e+01,3.432058049283460976e-02
3.447999999999999687e+01,4.823465357021688993e-02
3.452000000000000313e+01,4.136747767361155514e-02
3.456000000000000227e+01,3.034348455946897852e-02
3.460000000000000142e+01,2.918953844614644022e-02
3.464000000000000057e+01,3.764588209248899420e-02
3.467999999999999972e+01,1.674900193975377774e-02
3.471999999999999886e+01,1.611243747817416028e-02
3.475999999999999801e+01,4.976305292610737341e-02
3.479999999999999716e+01,4.289090269912534947e-02
3.484000000000000341e+01,5.705833696268978322e-02
3.488000000000000256e+01,3.433959912997810310e-02
3.492000000000000171e+01,4.279095821168470842e-02
3.496000000000000085e+01,2.136957657527525922e-02
3.500000000000000000e+01,3.267683140144876652e-02
3.503999999999999915e+01,2.917723625575497151e-02
3.507999999999999829e+01,2.957327692511887637e-02
3.511999999999999744e+01,3.074787187648310091e-02
3.515999999999999659e+01,2.932418282298081269e-02
3.520000000000000284e+01,3.958883073677870595e-02
3.524000000000000199e+01,2.076000478246861972e-02
3.528000000000000114e+01,4.401105501645701662e-02
3.532000000000000028e+01,2.492103596337119295e-02
3.535999999999999943e+01,4.817064887770174803e-02
3.539999999999999858e+01,2.674138074598300663e-02
3.543999999999999773e+01,5.102858140651030799e-02
3.547999999999999687e+01,3.245519732296215515e-02
3.552000000000000313e+01,2.868722735366039528e-02
3.556000000000000227e+01,5.712837351648341472e-02
3.560000000000000142e+01,3.439671735129588848e-02
3.564000000000000057e+01,4.179612231306723685e-02
3.567999999999999972e+01,3.464842625924988151e-02
3.571999999999999886e+01,4.204638512914124493e-02
3.575999999999999801e+01,4.424848514588786141e-02
3.579999999999999716e+01,5.424256351260971221e-02
3.584000000000000341e+01,5.826151179006757580e-02
3.588000000000000256e+01,5.968216729043661350e-02
3.592000000000000171e+01,5.434842146542242375e-02
3.596000000000000085e+01,5.161151696481440510e-02
3.600000000000000000e+01,3.224945351937778815e-02
3.603999999999999915e+01,4.795382464982027998e-02
3.607999999999999829e+01,5.534525198264082790e-02
3.611999999999999744e+01,5.546276204573096641e-02
3.615999999999999659e+01,6.934665141029947022e-02
3.620000000000000284e+01,6.478708211664582772e-02
3.624000000000000199e+01,5.425237786027132386e-02
3.628000000000000114e+01,5.462672715143565561e-02
3.632000000000000028e+01,5.915645390375112028e-02
3.635999999999999943e+01,5.875007124654591656e-02
3.639999999999999858e+01,5.262830843104653045e-02
3.643999999999999773e+01,3.767408392419547419e-02
3.647999999999999687e+01,4.739601848004853374e-02
3.652000000000000313e+01,4.438913906271891446e-02
3.656000000000000227e+01,4.501812067484763091e-02
3.660000000000000142e+01,5.032198984432621758e-02
3.664000000000000057e+01,4.419582734763172205e-02
3.667999999999999972e+01,2.845792997408353939e-02
3.671999999999999886e+01,3.635716172392817330e-02
3.675999999999999801e+01,3.490441437603706426e-02
3.679999999999999716e+01,2.383993068925532866e-02
3.684000000000000341e+01,5.277725015381610346e-02
3.688000000000000256e+01,4.197104886291450759e-02
3.692000000000000171e+01,2.596897458584341428e-02
3.696000000000000085e+01,2.529181038619316563e-02
3.700000000000000000e+01,3.240660991614779246e-02
3.703999999999999915e+01,2.627307562980727915e-02
3.707999999999999829e+01,2.013880148410101059e-02
3.711999999999999744e+01,3.192700300452583351e-02
3.715999999999999659e+01,3.696078809185128489e-02
3.720000000000000284e+01,3.056453469016417318e-02
3.724000000000000199e+01,2.572608000258440678e-02
3.728000000000000114e+01,1.543199118891487760e-02
3.732000000000000028e+01,3.526894303368578037e-02
3.735999999999999943e+01,2.705142219626530467e-02
3.739999999999999858e+01,2.610634670737436644e-02
3.743999999999999773e+01,3.061541880300212848e-02
3.747999999999999687e+01,2.837007056676514594e-02
3.752000000000000313e+01,3.313740946321135777e-02
3.756000000000000227e+01,3.426740809881326233e-02
3.760000000000000142e+01,3.176006598622519578e-02
3.764000000000000057e+01,4.834842333356376143e-03
3.767999999999999972e+01,1.946995212042675408e-02
3.771999999999999886e+01,2.215550357537205903e-02
3.775999999999999801e+01,1.730736102560493511e-02
3.779999999999999716e+01,3.116095611852044700e-02
3.784000000000000341e+01,3.670158597060416833e-02
3.788000000000000256e+01,2.042189889642629166e-02
3.792000000000000171e+01,9.856110312428245993e-03
3.796000000000000085e+01,2.630427354362816286e-02
3.800000000000000000e+01,3.755655063032539709e-02
3.803999999999999915e+01,3.867756276279740724e-02
3.807999999999999829e+01,2.680998516179592880e-02
3.811999999999999744e+01,2.429289816757641135e-02
3.815999999999999659e+01,1.528113931042495051e-02
3.820000000000000284e+01,2.756868076059244138e-02
3.824000000000000199e+01,4.271279251027201851e-02
3.828000000000000114e+01,1.941215021643696859e-02
3.832000000000000028e+01,2.909986068930308159e-02
3.835999999999999943e+01,2.424043749442011259e-02
3.839999999999999858e+01,1.782171783490814690e-02
3.843999999999999773e+01,2.361080917531506798e-02
3.847999999999999687e+01,1.381373837069871206e-02
3.852000000000000313e+01,2.895255852796632320e-02
3.856000000000000227e+01,2.227105347409573735e-02
3.860000000000000142e+01,2.727784396314269361e-02
3.864000000000000057e+01,3.150460532491457244e-02
3.867999999999999972e+01,3.183425602635394508e-02
3.871999999999999886e+01,3.424120091772916985e-02
3.875999999999999801e+01,3.379006118931774522e-02
3.879999999999999716e+01,1.151859332569414064e-02
3.884000000000000341e+01,3.158671503041306228e-02
3.888000000000000256e+01,3.658818322427045966e-02
3.892000000000000171e+01,3.769253783372129157e-02
3.896000000000000085e+01,2.528877848047520957e-02
3.900000000000000000e+01,6.130580276228761276e-03
3.903999999999999915e+01,2.853269894216843225e-02
3.907999999999999829e+01,2.677667527719240423e-02
3.911999999999999744e+01,3.800772458868664078e-02
3.915999999999999659e+01,4.170506283836987460e-02
3.920000000000000284e+01,2.098450054129090067e-02
3.924000000000000199e+01,3.403155006339041860e-02
3.928000000000000114e+01,3.149242769355312804e-02
3.932000000000000028e+01,3.206961921870390281e-02
3.935999999999999943e+01,2.615212426055243955e-02
3.939999999999999858e+01,2.594850976079084853e-02
3.943999999999999773e+01,3.951123460016216921e-02
3.947999999999999687e+01,4.086462291038935046e-02
3.952000000000000313e+01,3.754162006459679790e-02
3.956000000000000227e+01,3.707517143590897263e-02
3.960000000000000142e+01,3.556892522984048816e-02
3.964000000000000057e+01,2.600944860619415835e-02
3.967999999999999972e+01,4.424317310330964231e-02
3.971999999999999886e+01,5.078707165482550939e-02
3.975999999999999801e+01,4.771919780387065546e-02
3.979999999999999716e+01,4.257249692356949305e-02
3.984000000000000341e+01,5.197140077037244732e-02
3.988000000000000256e+01,3.565361201649017153e-02
3.992000000000000171e+01,4.686926470548631596e-02
3.996000000000000085e+01,5.470730464670689464e-02
4.000000000000000000e+01,6.644092045946692338e-02
4.003999999999999915e+01,5.141881470692190315e-02
4.007999999999999829e+01,7.120333755453327196e-02
4.011999999999999744e+01,6.059554330881776474e-02
4.015999999999999659e+01,5.959797156906394833e-02
4.020000000000000284e+01,6.769110834030757362e-02
4.024000000000000199e+01,5.786025073903434957e-02
4.028000000000000114e+01,6.621158705739307870e-02
4.032000000000000028e+01,6.131454959711128000e-02
4.035999999999999943e+01,5.719600257654610526e-02
4.039999999999999858e+01,7.022062099833870086e-02
4.043999999999999773e+01,5.674926973517867290e-02
4.047999999999999687e+01,8.198089350585810453e-02
4.052000000000000313e+01,6.305308735786023522e-02
4.056000000000000227e+01,8.049044448472658653e-02
4.060000000000000142e+01,7.506842453058809594e-02
4.064000000000000057e+01,7.613954018855136063e-02
4.067999999999999972e+01,8.370379097127080004e-02
4.071999999999999886e+01,8.373431168569778205e-02
4.075999999999999801e+01,1.281824526063494174e-01
4.079999999999999716e+01,1.323675115040436334e-01
4.084000000000000341e+01,1.560335412675770694e-01
4.088000000000000256e+01,1.617755688610627574e-01
4.092000000000000171e+01,2.101169174347251034e-01
4.096000000000000085e+01,2.387159655869833530e-01
4.100000000000000000e+01,2.886142799323631047e-01
4.103999999999999915e+01,3.764362922273148393e-01
4.107999999999999829e+01,4.834795157102224628e-01
4.111999999999999744e+01,6.206537335537314348e-01
4.115999999999999659e+01,7.560088645519501549e-01
4.120000000000000284e+01,9.043510431846644160e-01
4.124000000000000199e+01,9.973642427126782062e-01
4.128000000000000114e+01,9.890715172243983444e-01
4.132000000000000028e+01,1.000000000000000000e+00
4.135999999999999943e+01,8.898810434951082149e-01
4.139999999999999858e+01,7.384599706418366605e-01
4.143999999999999773e+01,6.106759694051684395e-01
4.147999999999999687e+01,4.335373914773401061e-01
4.152000000000000313e+01,4.127715853879829200e-01
4.156000000000000227e+01,2.844656887794881905e-01
4.160000000000000142e+01,2.486324015976819624e-01
4.164000000000000057e+01,2.257861566895684735e-01
4.167999999999999972e+01,1.774829540040236686e-01
4.171999999999999886e+01,1.639863599374626058e-01
4.175999999999999801e+01,1.416572393625749327e-01
4.179999999999999716e+01,1.169895106372478705e-01
4.184000000000000341e+01,1.097246865636434671e-01
4.188000000000000256e+01,1.076541992253784302e-01
4.192000000000000171e+01,8.688042678465016100e-02
4.196000000000000085e+01,8.844493585598454943e-02
4.200000000000000000e+01,8.065740198729960675e-02
4.203999999999999915e+01,7.520687861266873997e-02
4.207999999999999829e+01,5.806650053904353903e-02
4.211999999999999744e+01,6.014732098238650265e-02
4.215999999999999659e+01,5.287609653632743129e-02
4.220000000000000284e+01,6.846266418587552971e-02
4.224000000000000199e+01,5.573494294325049420e-02
4.228000000000000114e+01,5.963085073011775705e-02
4.232000000000000028e+01,6.014911701581458076e-02
4.235999999999999943e+01,5.261411974442747191e-02
4.239999999999999858e+01,5.728688522573741754e-02
4.243999999999999773e+01,4.793198083765802531e-02
4.247999999999999687e+01,4.403116262854208512e-02
4.252000000000000313e+01,5.623445701722577100e-02
4.256000000000000227e+01,5.986497190447863381e-02
4.260000000000000142e+01,5.258489601867120250e-02
4.264000000000000057e+01,4.764182331673279258e-02
4.267999999999999972e+01,4.036013174275003557e-02
4.271999999999999886e+01,3.645446939318217061e-02
4.275999999999999801e+01,5.332853828590765344e-02
4.279999999999999716e+01,4.968101407789975860e-02
4.284000000000000341e+01,3.616192318799472255e-02
4.288000000000000256e+01,4.498110260120180559e-02
4.292000000000000171e+01,5.094214671067186229e-02
4.296000000000000085e+01,4.599259566097058105e-02
4.300000000000000000e+01,5.221177303854384472e-02
4.303999999999999915e+01,6.206673249557589922e-02
4.307999999999999829e+01,5.140009544045486684e-02
4.311999999999999744e+01,5.709732042675777497e-02
4.315999999999999659e+01,4.668881274097456957e-02
4.320000000000000284e+01,5.809905795191946942e-02
4.324000000000000199e+01,4.431208313276097793e-02
4.328000000000000114e+01,4.818775217469006833e-02
4.332000000000000028e+01,6.089433496084463437e-02
4.335999999999999943e+01,5.333907457723568307e-02
4.339999999999999858e+01,5.383545670173280062e-02
4.343999999999999773e+01,6.160421058556233426e-02
4.347999999999999687e+01,6.287822778948508329e-02
4.352000000000000313e+01,5.661848081091794965e-02
4.356000000000000227e+01,6.983967155868403553e-02
4.360000000000000142e+01,7.318928636498510387e-02
4.364000000000000057e+01,7.523929761818294593e-02
4.367999999999999972e+01,7.417140755426654408e-02
4.371999999999999886e+01,8.375272363778391016e-02
4.375999999999999801e+01,1.073600831809104900e-01
4.379999999999999716e+01,9.953605377967070234e-02
4.384000000000000341e+01,1.106734451857257356e-01
4.388000000000000256e+01,1.363563920969714793e-01
4.392000000000000171e+01,1.386604079699025882e-01
4.396000000000000085e+01,1.713551403557012631e-01
4.400000000000000000e+01,1.835282650203963195e-01
4.403999999999999915e+01,2.219359971623185435e-01
4.407999999999999829e+01,2.551477690831954193e-01
4.411999999999999744e+01,3.096587691842310752e-01
4.415999999999999659e+01,3.407908353228780163e-01
4.420000000000000284e+01,3.238670753999057794e-01
4.424000000000000199e+01,3.383730555936185769e-01
4.428000000000000114e+01,3.157329924110119368e-01
4.432000000000000028e+01,2.871176958218579767e-01
4.435999999999999943e+01,2.356429763412054568e-01
4.439999999999999858e+01,2.046882113678641091e-01
4.443999999999999773e+01,1.828241032468785610e-01
4.447999999999999687e+01,1.419969220794971287e-01
4.452000000000000313e+01,1.159750453735849812e-01
4.456000000000000227e+01,8.683525662895381914e-02
4.460000000000000142e+01,7.899469021633338806e-02
4.464000000000000057e+01,6.128253519126041632e-02
4.467999999999999972e+01,6.149276372398575219e-02
4.471999999999999886e+01,5.884483502241873165e-02
4.475999999999999801e+01,4.113018117017578495e-02
4.479999999999999716e+01,4.367572019797799632e-02
4.484000000000000341e+01,5.011677612849284313e-02
4.488000000000000256e+01,4.071183518486697073e-02
4.492000000000000171e+01,4.299511278354176819e-02
4.496000000000000085e+01,3.982266268575695295e-02
4.500000000000000000e+01,4.288353832558596673e-02
4.503999999999999915e+01,2.100692875856547195e-02
4.507999999999999829e+01,2.484540049016595656e-02
4.511999999999999744e+01,2.400741283735203374e-02
4.515999999999999659e+01,3.277958677229030060e-02
4.520000000000000284e+01,2.908259773384340441e-02
4.524000000000000199e+01,1.681279654180542482e-02
4.528000000000000114e+01,3.155685798070655135e-02
4.532000000000000028e+01,3.461102524561344290e-02
4.535999999999999943e+01,2.649481135679908339e-02
4.539999999999999858e+01,3.396316146927702562e-02
4.543999999999999773e+01,1.259767019430901684e-02
4.547999999999999687e+01,3.149363355782679869e-02
4.552000000000000313e+01,3.584237601871950035e-02
4.556000000000000227e+01,3.655368074963256247e-02
4.560000000000000142e+01,3.362754726322045307e-02
4.564000000000000057e+01,3.277862365594227945e-02
4.567999999999999972e+01,2.725323384141023833e-02
4.571999999999999886e+01,2.432456643893945308e-02
4.575999999999999801e+01,3.178532357546361847e-02
4.579999999999999716e+01,1.508785650699840872e-02
4.584000000000000341e+01,3.007986681520050110e-02
4.588000000000000256e+01,2.922586806561993170e-02
4.592000000000000171e+01,1.953929212376242716e-02
4.596000000000000085e+01,1.894335451512489318e-02
4.600000000000000000e+01,3.523075736664110780e-02
4.603999999999999915e+01,3.177579790385220287e-02
4.607999999999999829e+01,3.507366452796250450e-02
4.611999999999999744e+01,3.707189738353759006e-02
4.615999999999999659e+01,2.478265829276609863e-02
4.620000000000000284e+01,2.054502759590327160e-02
4.624000000000000199e+01,3.267122092750152085e-02
4.628000000000000114e+01,3.102945435833481813e-02
4.632000000000000028e+01,2.289291650771829723e-02
4.635999999999999943e+01,4.099095786827963717e-02
4.639999999999999858e+01,2.428074080748464370e-02
4.643999999999999773e+01,3.198680470651098229e-02
4.647999999999999687e+01,1.345658208519695184e-02
4.652000000000000313e+01,2.375850426377134825e-02
4.656000000000000227e+01,2.964370626729627076e-02
4.660000000000000142e+01,2.747559305509574695e-02
4.664000000000000057e+01,2.920297481505243486e-02
4.667999999999999972e+01,3.534536456743932187e-02
4.671999999999999886e+01,2.979784308873334800e-02
4.675999999999999801e+01,2.398970705919853397e-02
4.679999999999999716e+01,3.116855043576431672e-02
4.684000000000000341e+01,3.990507556347507034e-02
4.688000000000000256e+01,2.811995788119365722e-02
4.692000000000000171e+01,4.490722337153447291e-02
4.696000000000000085e+01,3.026306141720049026e-02
4.700000000000000000e+01,3.146320072414116736e-02
4.703999999999999915e+01,4.720885703596413435e-02
4.707999999999999829e+01,2.424989533441451739e-02
4.711999999999999744e+01,2.440842253876326917e-02
4.715999999999999659e+01,1.937095199644945503e-02
4.720000000000000284e+01,3.900950990819856273e-02
4.724000000000000199e+01,2.773615047147176202e-02
4.728000000000000114e+01,3.308635914602776201e-02
4.732000000000000028e+01,1.999297368026355798e-02
4.735999999999999943e+01,5.183664151630595213e-02
4.739999999999999858e+01,3.328663351879126292e-02
4.743999999999999773e+01,1.681381346985508229e-02
4.747999999999999687e+01,2.371823469451545680e-02
4.752000000000000313e+01,2.308884300211845250e-02
4.756000000000000227e+01,2.349761078102567680e-02
4.760000000000000142e+01,2.572380780531946520e-02
4.764000000000000057e+01,2.353327149623056155e-02
4.767999999999999972e+01,3.614800114830246658e-02
4.771999999999999886e+01,3.733256413944887470e-02
4.775999999999999801e+01,4.345163547231087331e-02
4.779999999999999716e+01,1.528194483433641289e-02
4.784000000000000341e+01,3.516638269573225256e-02
4.788000000000000256e+01,3.011330074873555876e-02
4.792000000000000171e+01,2.687764414835999011e-02
4.796000000000000085e+01,2.857649345297156446e-02
4.800000000000000000e+01,1.520857813190753215e-02
4.803999999999999915e+01,2.158130270827025854e-02
4.807999999999999829e+01,2.613485612854100221e-02
4.811999999999999744e+01,1.380334618443388936e-02
4.815999999999999659e+01,2.355028546000022260e-02
4.820000000000000284e+01,1.978899819601847437e-02
4.824000000000000199e+01,1.368902431894345774e-02
4.828000000000000114e+01,2.862847118426760373e-02
4.832000000000000028e+01,3.681336564704875552e-02
4.835999999999999943e+01,2.032049120709855314e-02
4.839999999999999858e+01,3.188046840036208585e-02
4.843999999999999773e+01,3.123099989905000345e-02
4.847999999999999687e+01,2.382697704581214493e-02
4.852000000000000313e+01,2.785137211995493758e-02
4.856000000000000227e+01,3.551148201985317859e-02
4.860000000000000142e+01,2.394871192294158874e-02
4.864000000000000057e+01,3.082779064422506293e-02
4.867999999999999972e+01,3.562793414542206327e-02
4.871999999999999886e+01,1.652957461920463722e-02
4.875999999999999801e+01,2.132795427914076225e-02
4.879999999999999716e+01,2.534618102599995454e-02
4.884000000000000341e+01,2.286960578863167157e-02
4.888000000000000256e+01,3.260071435396079409e-02
4.892000000000000171e+01,3.194066865323142573e-02
4.896000000000000085e+01,4.920295436431303820e-02
4.900000000000000000e+01,3.399476076085303222e-02
4.903999999999999915e+01,3.592962733308476680e-02
4.907999999999999829e+01,1.916112156797719623e-02
4.911999999999999744e+01,2.576983709529347480e-02
4.915999999999999659e+01,2.848131427770998064e-02
4.920000000000000284e+01,2.236017430550414284e-02
4.924000000000000199e+01,2.948574076512188932e-02
4.928000000000000114e+01,3.349333767923075300e-02
4.932000000000000028e+01,2.918782948429884255e-02
4.935999999999999943e+01,2.540094532249714473e-02
4.939999999999999858e+01,2.680830627504761018e-02
4.943999999999999773e+01,2.172085793318544872e-02
4.947999999999999687e+01,1.715203216241638698e-02
4.952000000000000313e+01,1.933599056681846451e-02
4.956000000000000227e+01,2.697394888999924550e-02
4.960000000000000142e+01,2.240244738557977539e-02
4.964000000000000057e+01,3.263618796238306613e-02
4.967999999999999972e+01,2.598484616832712549e-02
4.971999999999999886e+01,2.712531312795108188e-02
4.975999999999999801e+01,4.307102070676068623e-02
4.979999999999999716e+01,3.589748236125047537e-02
4.984000000000000341e+01,3.625599455357384621e-02
4.988000000000000256e+01,1.765136790783509643e-02
4.992000000000000171e+01,3.723008777473758163e-02
4.996000000000000085e+01,2.901393819936994717e-02
5.000000000000000000e+01,2.547251292055063843e-02
5.003999999999999915e+01,2.089116286712917187e-02
5.007999999999999829e+01,2.773821173460689488e-02
5.011999999999999744e+01,2.653190249993963093e-02
5.015999999999999659e+01,2.532469404387041254e-02
5.020000000000000284e+01,2.307755886381626306e-02
5.024000000000000199e+01,2.446611804099925458e-02
5.028000000000000114e+01,2.507450627331530082e-02
5.032000000000000028e+01,2.542223658103735795e-02
5.035999999999999943e+01,2.654833549205702289e-02
5.039999999999999858e+01,1.936131613570261228e-02
5.043999999999999773e+01,2.334293456032700623e-02
5.047999999999999687e+01,3.719440650953799443e-02
5.052000000000000313e+01,3.753762365315160832e-02
5.056000000000000227e+01,3.268480162572022507e-02
5.060000000000000142e+01,2.575302098560988337e-02
5.064000000000000057e+01,3.778257830402943773e-02
5.067999999999999972e+01,2.669287897652428479e-02
5.071999999999999886e+01,3.846086793999733966e-02
5.075999999999999801e+01,2.295349122190534080e-02
5.079999999999999716e+01,2.718672077438839818e-02
5.084000000000000341e+01,4.414712375724939852e-02
5.088000000000000256e+01,2.707848399746615869e-02
5.092000000000000171e+01,2.247725993956016174e-02
5.096000000000000085e+01,2.930442408094852125e-02
5.100000000000000000e+01,4.158557059667125633e-02
5.103999999999999915e+01,3.983894246368423209e-02
5.107999999999999829e+01,3.497432285463298457e-02
5.111999999999999744e+01,2.829049505121825070e-02
5.115999999999999659e+01,1.511183699752691699e-02
5.120000000000000284e+01,3.076526672427980225e-02
5.124000000000000199e+01,2.070186544417543933e-02
5.128000000000000114e+01,2.362538898745585036e-02
5.132000000000000028e+01,2.213213436155133523e-02
5.135999999999999943e+01,3.180750630767515547e-02
5.139999999999999858e+01,3.083193701849909485e-02
5.143999999999999773e+01,2.466031783667317623e-02
5.147999999999999687e+01,3.277440481055033522e-02
5.152000000000000313e+01,3.179608960994644018e-02
5.156000000000000227e+01,3.497296619179096622e-02
5.160000000000000142e+01,3.087573690112846089e-02
5.164000000000000057e+01,3.405077946393472027e-02
5.167999999999999972e+01,2.060047204240722865e-02
5.171999999999999886e+01,2.715051643631360631e-02
5.175999999999999801e+01,2.746548002356740542e-02
5.179999999999999716e+01,2.284414608586958495e-02
5.184000000000000341e+01,3.692437873252201602e-02
5.188000000000000256e+01,2.580728608240494965e-02
5.192000000000000171e+01,3.702835359527711923e-02
5.196000000000000085e+01,2.824722991287476753e-02
5.200000000000000000e+01,3.193350877401641280e-02
5.203999999999999915e+01,2.315054132566223347e-02
5.207999999999999829e+01,3.618621858329602176e-02
5.211999999999999744e+01,3.597337829531473824e-02
5.215999999999999659e+01,2.692788478913096459e-02
5.220000000000000284e+01,4.099981829594467886e-02
5.224000000000000199e+01,4.701836787129257123e-02
5.228000000000000114e+01,4.550304653544755273e-02
5.232000000000000028e+01,3.983069160058503450e-02
5.235999999999999943e+01,4.065132948554116277e-02
5.239999999999999858e+01,6.173206765486399794e-02
5.243999999999999773e+01,5.787523045838714741e-02
5.247999999999999687e+01,4.518573614494251350e-02
5.252000000000000313e+01,4.678193531621328144e-02
5.256000000000000227e+01,3.175277378154540975e-02
5.260000000000000142e+01,4.529592621641378991e-02
5.264000000000000057e+01,2.143317666590719914e-02
5.267999999999999972e+01,3.523422649357148967e-02
5.271999999999999886e+01,4.955385941732913524e-02
5.275999999999999801e+01,3.477980501557274839e-02
5.279999999999999716e+01,3.039508937997242519e-02
5.284000000000000341e+01,3.250336071604253974e-02
5.288000000000000256e+01,3.253264566073024722e-02
5.292000000000000171e+01,2.606707891193150300e-02
5.296000000000000085e+01,3.154938950276187787e-02
5.300000000000000000e+01,2.170511779589778117e-02
5.303999999999999915e+01,2.874410077634843158e-02
5.307999999999999829e+01,2.928823011392989520e-02
5.311999999999999744e+01,2.411677558272446939e-02
5.315999999999999659e+01,1.738584475633551604e-02
5.320000000000000284e+01,3.169427472882756225e-02
5.324000000000000199e+01,3.379320052526282175e-02
5.328000000000000114e+01,2.679970270400744772e-02
5.332000000000000028e+01,3.954678045054954572e-02
5.335999999999999943e+01,3.307092020614631894e-02
5.339999999999999858e+01,3.023071581867174326e-02
5.343999999999999773e+01,3.544203161553853565e-02
5.347999999999999687e+01,3.000238083513031770e-02
5.352000000000000313e+01,2.741911418818583634e-02
5.356000000000000227e+01,3.834225809354123438e-02
5.360000000000000142e+01,2.978270433006792797e-02
5.364000000000000057e+01,2.719661428373309695e-02
5.367999999999999972e+01,3.915596034289828969e-02
5.371999999999999886e+01,2.851552622548616037e-02
5.375999999999999801e+01,4.670714869839496380e-02
5.379999999999999716e+01,2.931115232956929897e-02
5.384000000000000341e+01,3.788988728447086757e-02
5.388000000000000256e+01,2.620665089769605091e-02
5.392000000000000171e+01,3.504325302996148805e-02
5.396000000000000085e+01,3.972280158203677497e-02
5.400000000000000000e+01,3.115380968325012767e-02
5.403999999999999915e+01,3.453268196575935006e-02
5.407999999999999829e+01,4.336549909698590721e-02
5.411999999999999744e+01,4.622296342197442648e-02
5.415999999999999659e+01,2.310380441006194135e-02
5.420000000000000284e+01,3.946672353384985538e-02
5.424000000000000199e+01,3.686645069889701171e-02
5.428000000000000114e+01,4.127866079878898115e-02
5.432000000000000028e+01,3.555940759476539093e-02
5.435999999999999943e+01,4.178801467327232511e-02
5.439999999999999858e+01,4.282053579554930683e-02
5.443999999999999773e+01,4.489113256567421606e-02
5.447999999999999687e+01,3.786929109773810864e-02
5.452000000000000313e+01,2.850868650343763022e-02
5.456000000000000227e+01,3.914839912302784525e-02
5.460000000000000142e+01,2.277245602967747917e-02
5.464000000000000057e+01,4.120296414265745694e-02
5.467999999999999972e+01,3.937149116704750929e-02
5.471999999999999886e+01,3.909760393548449009e-02
5.475999999999999801e+01,4.116057222205057875e-02
5.479999999999999716e+01,5.205431438463284377e-02
5.484000000000000341e+01,5.879099224542001789e-02
5.488000000000000256e+01,7.098160520801104212e-02
5.492000000000000171e+01,5.953339635841710387e-02
5.496000000000000085e+01,6.730622958782923881e-02
5.500000000000000000e+01,7.325980735034733071e-02
5.503999999999999915e+01,7.557583188196068114e-02
5.507999999999999829e+01,6.386403254295093534e-02
5.511999999999999744e+01,7.293181385642040493e-02
5.515999999999999659e+01,8.459620256837162289e-02
5.520000000000000284e+01,6.924492825719701095e-02
5.524000000000000199e+01,4.350242267934692486e-02
5.528000000000000114e+01,6.945054950790188752e-02
5.532000000000000028e+01,7.357814692748015917e-02
5.535999999999999943e+01,4.549494429836371812e-02
5.539999999999999858e+01,5.403648089267496651e-02
5.543999999999999773e+01,5.997948639786186004e-02
5.547999999999999687e+01,4.747879834421055156e-02
5.552000000000000313e+01,4.095155110245090463e-02
5.556000000000000227e+01,4.663190627666077143e-02
5.560000000000000142e+01,3.620637721427920341e-02
5.564000000000000057e+01,3.071526048651499613e-02
5.567999999999999972e+01,4.600371758839068292e-02
5.571999999999999886e+01,4.830337003734965634e-02
5.575999999999999801e+01,3.345810928509727888e-02
5.579999999999999716e+01,3.445704257807075815e-02
5.584000000000000341e+01,4.766357487559397255e-02
5.588000000000000256e+01,4.918008433986440636e-02
5.592000000000000171e+01,3.666875969925257467e-02
5.596000000000000085e+01,4.052114066210250193e-02
5.600000000000000000e+01,3.632009188299299002e-02
5.603999999999999915e+01,3.211807224266707839e-02
5.607999999999999829e+01,4.765659454328703692e-02
5.611999999999999744e+01,3.825749664230510688e-02
5.615999999999999659e+01,2.807815615664181058e-02
5.620000000000000284e+01,3.296373458131977158e-02
5.624000000000000199e+01,4.096542075376462949e-02
5.628000000000000114e+01,3.805634948092788405e-02
5.632000000000000028e+01,4.345852005735306722e-02
5.635999999999999943e+01,4.626214833570335694e-02
5.639999999999999858e+01,6.257215256481052368e-02
5.643999999999999773e+01,3.368350589642394449e-02
5.647999999999999687e+01,3.726347723218281782e-02
5.652000000000000313e+01,4.266076913524236708e-02
5.656000000000000227e+01,3.636802992017259401e-02
5.660000000000000142e+01,3.760725888151718321e-02
5.664000000000000057e+01,3.416988810289253720e-02
5.667999999999999972e+01,4.216083583313055133e-02
5.671999999999999886e+01,4.365688557204280146e-02
5.675999999999999801e+01,4.748976646180042005e-02
5.679999999999999716e+01,2.326793781936783989e-02
5.684000000000000341e+01,4.813915503876568108e-02
5.688000000000000256e+01,4.781298604318458267e-02
5.692000000000000171e+01,3.657605180479101686e-02
5.696000000000000085e+01,4.144305423240794706e-02
5.700000000000000000e+01,1.721631767586918535e-02
5.703999999999999915e+01,3.870578674491138155e-02
5.707999999999999829e+01,4.123202925366964422e-02
5.711999999999999744e+01,4.115972020478518567e-02
5.715999999999999659e+01,3.199494026567951260e-02
5.720000000000000284e+01,4.179141836041268265e-02
5.724000000000000199e+01,2.846855988453027633e-02
5.728000000000000114e+01,4.501674212778666168e-02
5.732000000000000028e+01,3.818583007192673240e-02
5.735999999999999943e+01,4.174420122481568851e-02
5.739999999999999858e+01,3.750888233245589648e-02
5.743999999999999773e+01,2.963598096845065921e-02
5.747999999999999687e+01,3.656822616591556135e-02
5.752000000000000313e+01,2.895310425705258095e-02
5.756000000000000227e+01,3.042847935116342259e-02
5.760000000000000142e+01,3.943581043804667702e-02
5.764000000000000057e+01,3.467504321799286249e-02
5.767999999999999972e+01,3.692671750840147149e-02
5.771999999999999886e+01,3.112494110098652442e-02
5.775999999999999801e+01,2.999779444505876191e-02
5.779999999999999716e+01,4.159773642136131017e-02
5.784000000000000341e+01,3.787103713114248205e-02
5.788000000000000256e+01,2.635064194752678376e-02
5.792000000000000171e+01,3.872687434790486605e-02
5.796000000000000085e+01,3.447768025067792647e-02
5.800000000000000000e+01,3.776043727276663653e-02
5.803999999999999915e+01,2.753484786827078631e-02
5.807999999999999829e+01,3.912783006791158147e-02
5.811999999999999744e+01,3.201732979009017793e-02
5.815999999999999659e+01,3.659488674315063833e-02
5.820000000000000284e+01,3.493728442690476055e-02
5.824000000000000199e+01,3.353844119923954370e-02
5.828000000000000114e+01,3.187884306519075950e-02
5.832000000000000028e+01,3.489386785978979694e-02
5.835999999999999943e+01,2.673835311332271869e-02
5.839999999999999858e+01,2.429648733604924254e-02
5.843999999999999773e+01,4.393294553061050101e-02
5.847999999999999687e+01,1.785121446542995913e-02
5.852000000000000313e+01,2.034172524262558776e-02
5.856000000000000227e+01,3.062393707010663615e-02
5.860000000000000142e+01,3.908684956958294321e-02
5.864000000000000057e+01,2.443040844134489187e-02
5.867999999999999972e+01,3.341082888372341742e-02
5.871999999999999886e+01,3.225973241416207199e-02
5.875999999999999801e+01,2.695152388292929371e-02
5.879999999999999716e+01,3.852649986123387466e-02
5.884000000000000341e+01,4.048947097318012639e-02
5.888000000000000256e+01,3.621727453094356064e-02
5.892000000000000171e+01,2.960626135431801073e-02
5.896000000000000085e+01,3.234548487737702593e-02
5.900000000000000000e+01,3.118735016849999084e-02
5.903999999999999915e+01,2.353428920224801338e-02
5.907999999999999829e+01,3.042659854982973644e-02
5.911999999999999744e+01,3.160325092677327558e-02
5.915999999999999659e+01,2.706424584573270675e-02
5.920000000000000284e+01,3.135596103268399604e-02
5.924000000000000199e+01,3.382836909409966258e-02
5.928000000000000114e+01,3.084487498930357438e-02
5.932000000000000028e+01,2.266523498475936718e-02
5.935999999999999943e+01,3.526512397405274363e-02
5.939999999999999858e+01,3.435664996700868445e-02
5.943999999999999773e+01,2.747275833675151546e-02
5.947999999999999687e+01,3.825131319258316676e-02
5.952000000000000313e+01,2.668977396052363282e-02
5.956000000000000227e+01,3.382970725509881066e-02
5.960000000000000142e+01,3.785154526898067140e-02
5.964000000000000057e+01,2.524793631673926189e-02
5.967999999999999972e+01,2.848847413719299976e-02
5.971999999999999886e+01,2.575359092301397410e-02
5.975999999999999801e+01,3.314820492303389293e-02
5.979999999999999716e+01,1.690393765469639514e-02
5.984000000000000341e+01,3.001116640775562672e-02
5.988000000000000256e+01,2.389537773252451217e-02
5.992000000000000171e+01,3.102616536782133033e-02
5.996000000000000085e+01,2.672663721441568760e-02
