2.003999999999999915e+01,8.810880132221125816e-02
2.007999999999999829e+01,1.272574108465870102e-01
2.012000000000000099e+01,9.531623042425543813e-02
2.016000000000000014e+01,6.938798348616410927e-02
2.019999999999999929e+01,1.004029085322513948e-01
2.023999999999999844e+01,9.994044591624763607e-02
2.028000000000000114e+01,8.639206908872230917e-02
2.032000000000000028e+01,5.339149548442006371e-02
2.035999999999999943e+01,1.081044379820768619e-01
2.039999999999999858e+01,1.133021893613717773e-01
2.044000000000000128e+01,9.126672758964622656e-02
2.048000000000000043e+01,7.701259087095015110e-02
2.051999999999999957e+01,9.317543940142207493e-02
2.055999999999999872e+01,1.022649544816298661e-01
2.060000000000000142e+01,8.588965776720469680e-02
2.064000000000000057e+01,7.305148957264005760e-02
2.067999999999999972e+01,8.320297003489676713e-02
2.071999999999999886e+01,1.234177412830244347e-01
2.076000000000000156e+01,9.643318795081767814e-02
2.080000000000000071e+01,7.864466901163122414e-02
2.083999999999999986e+01,8.243106002647668240e-02
2.087999999999999901e+01,1.092070874636442007e-01
2.092000000000000171e+01,7.691847179521942024e-02
2.096000000000000085e+01,7.469313223126622381e-02
2.100000000000000000e+01,1.163246732479865930e-01
2.103999999999999915e+01,7.519485448898396984e-02
2.107999999999999829e+01,1.207174611013496213e-01
2.112000000000000099e+01,7.817346961223058111e-02
2.116000000000000014e+01,1.063661983047932691e-01
2.119999999999999929e+01,7.018903333150218471e-02
2.123999999999999844e+01,5.523307161444682839e-02
2.128000000000000114e+01,7.529191762982841152e-02
2.132000000000000028e+01,3.946923612979633816e-02
2.135999999999999943e+01,8.853055172884527479e-02
2.139999999999999858e+01,8.277138160507334363e-02
2.144000000000000128e+01,1.021239070198091681e-01
2.148000000000000043e+01,1.041462580704564933e-01
2.151999999999999957e+01,9.485103019967229543e-02
2.155999999999999872e+01,8.661709896846819801e-02
2.160000000000000142e+01,7.343186404038737347e-02
2.164000000000000057e+01,7.651625669637830696e-02
2.167999999999999972e+01,8.915031214238898494e-02
2.171999999999999886e+01,9.966251438120345141e-02
2.176000000000000156e+01,8.117301157731267314e-02
2.180000000000000071e+01,9.133200457780628334e-02
2.183999999999999986e+01,8.239239004812412559e-02
2.187999999999999901e+01,7.592878149801320087e-02
2.192000000000000171e+01,6.805067196380086558e-02
2.196000000000000085e+01,5.522123671061280464e-02
2.200000000000000000e+01,7.634551845927106672e-02
2.203999999999999915e+01,7.837118044325475097e-02
2.207999999999999829e+01,1.051548165865505979e-01
2.212000000000000099e+01,7.075164284447264806e-02
2.216000000000000014e+01,5.933802722391937762e-02
2.219999999999999929e+01,7.056028504919406585e-02
2.223999999999999844e+01,8.496589128953571657e-02
2.228000000000000114e+01,8.487073205817022292e-02
2.232000000000000028e+01,1.038746166439582369e-01
2.235999999999999943e+01,7.760737695885880361e-02
2.239999999999999858e+01,6.867076505312569301e-02
2.244000000000000128e+01,1.032372634108718185e-01
2.248000000000000043e+01,4.796866932854945698e-02
2.251999999999999957e+01,8.005977698679364596e-02
2.255999999999999872e+01,7.006288819882836028e-02
2.260000000000000142e+01,8.694603513326149002e-02
2.264000000000000057e+01,6.987587199002774641e-02
2.267999999999999972e+01,5.881848817634131865e-02
2.271999999999999886e+01,4.563918998296076501e-02
2.276000000000000156e+01,6.075464663956901823e-02
2.280000000000000071e+01,7.869973522584787495e-02
2.283999999999999986e+01,8.426611745660593511e-02
2.287999999999999901e+01,7.038014630899402935e-02
2.292000000000000171e+01,6.710480878389753212e-02
2.296000000000000085e+01,7.656219580720112494e-02
2.300000000000000000e+01,5.454202633232074771e-02
2.303999999999999915e+01,7.354915481583916559e-02
2.307999999999999829e+01,5.931031076338626196e-02
2.312000000000000099e+01,3.764429443027814126e-02
2.316000000000000014e+01,6.726235334999550175e-02
2.319999999999999929e+01,3.993772306361115937e-02
2.323999999999999844e+01,5.965297639068305180e-02
2.328000000000000114e+01,7.795364553905707872e-02
2.332000000000000028e+01,8.599767234189631404e-02
2.335999999999999943e+01,3.886741129502165742e-02
2.339999999999999858e+01,9.076831170723240194e-02
2.344000000000000128e+01,6.662766787687843251e-02
2.348000000000000043e+01,4.920711889566897063e-02
2.351999999999999957e+01,4.381189574866613257e-02
2.355999999999999872e+01,6.777242520004658766e-02
2.360000000000000142e+01,7.369528614404868838e-02
2.364000000000000057e+01,6.723939179453200521e-02
2.367999999999999972e+01,6.502780445807784804e-02
2.371999999999999886e+01,5.715741928145744166e-02
2.376000000000000156e+01,6.944703651998609950e-02
2.380000000000000071e+01,1.001282425827768746e-01
2.383999999999999986e+01,6.042679559476363954e-02
2.387999999999999901e+01,6.988728644259264988e-02
2.392000000000000171e+01,6.873741601259121536e-02
2.396000000000000085e+01,4.742776168032736966e-02
2.400000000000000000e+01,6.573061766567457609e-02
2.403999999999999915e+01,8.403357189641560976e-02
2.407999999999999829e+01,6.484630567311817917e-02
2.412000000000000099e+01,6.122115086850381943e-02
2.416000000000000014e+01,9.473272099231862253e-02
2.419999999999999929e+01,5.680056935683747837e-02
2.423999999999999844e+01,4.079680191769446268e-02
2.428000000000000114e+01,4.848982737197666398e-02
2.432000000000000028e+01,8.058700773037918985e-02
2.435999999999999943e+01,6.670557701530469008e-02
2.439999999999999858e+01,5.494631589630978585e-02
2.444000000000000128e+01,5.026077312965931965e-02
2.448000000000000043e+01,9.155399143617548585e-02
2.451999999999999957e+01,4.548776811231042966e-02
2.455999999999999872e+01,2.771618952793859780e-02
2.460000000000000142e+01,4.389816889691983831e-02
2.464000000000000057e+01,6.184862095178371433e-02
2.467999999999999972e+01,1.931947097727453738e-02
2.471999999999999886e+01,3.444058094484959281e-02
2.476000000000000156e+01,3.895127824969613767e-02
2.480000000000000071e+01,4.629148513921809566e-02
2.483999999999999986e+01,3.594762989626233696e-02
2.487999999999999901e+01,3.762901729291659447e-02
2.492000000000000171e+01,4.107886024715435430e-02
2.496000000000000085e+01,4.417506293929074346e-02
2.500000000000000000e+01,4.302711840565373591e-02
2.503999999999999915e+01,4.718444437687528692e-02
2.507999999999999829e+01,7.892901882029619565e-02
2.512000000000000099e+01,4.807187094566073987e-02
2.516000000000000014e+01,6.036398471651389930e-02
2.519999999999999929e+01,6.098461222234708573e-02
2.523999999999999844e+01,4.003064860993088558e-02
2.528000000000000114e+01,4.595655677762017915e-02
2.532000000000000028e+01,5.471194272028605254e-02
2.535999999999999943e+01,6.629680399102905186e-02
2.539999999999999858e+01,7.045435350782217054e-02
2.544000000000000128e+01,5.975726201901884749e-02
2.548000000000000043e+01,4.835281622961788706e-02
2.551999999999999957e+01,1.395903327847849290e-02
2.555999999999999872e+01,2.625130979180378965e-02
2.560000000000000142e+01,5.410560718851565448e-02
2.564000000000000057e+01,1.758973931348482150e-02
2.567999999999999972e+01,4.791981060367469375e-02
2.571999999999999886e+01,5.490685026882938941e-02
2.576000000000000156e+01,4.916132272597304592e-02
2.580000000000000071e+01,2.113380535067399535e-02
2.583999999999999986e+01,5.535434837862895918e-02
2.587999999999999901e+01,5.243824307084730962e-02
2.592000000000000171e+01,7.534092370637991698e-02
2.596000000000000085e+01,4.625229750288246261e-02
2.600000000000000000e+01,2.706675205301288870e-02
2.603999999999999915e+01,3.193157406177062063e-02
2.607999999999999829e+01,5.589520987909100264e-02
2.612000000000000099e+01,7.490726549984573490e-02
2.616000000000000014e+01,4.511114210624788540e-02
2.619999999999999929e+01,5.775685228114624259e-02
2.623999999999999844e+01,4.776686347890578277e-02
2.628000000000000114e+01,4.591152715800640022e-02
2.632000000000000028e+01,3.592145834686467226e-02
2.635999999999999943e+01,8.110577355332891647e-02
2.639999999999999858e+01,7.465243723366137008e-02
2.644000000000000128e+01,7.916320143811519938e-02
2.648000000000000043e+01,9.110124143181623502e-02
2.651999999999999957e+01,7.403728520172418726e-02
2.655999999999999872e+01,8.208471130695291218e-02
2.660000000000000142e+01,8.907103236958952008e-02
2.664000000000000057e+01,7.094585438450587422e-02
2.667999999999999972e+01,7.510259356366341676e-02
2.671999999999999886e+01,7.784453813073162476e-02
2.676000000000000156e+01,9.190424587551956903e-02
2.680000000000000071e+01,8.686504267454459027e-02
2.683999999999999986e+01,7.298371071603340643e-02
2.687999999999999901e+01,7.749377917049217468e-02
2.692000000000000171e+01,8.306481637994420075e-02
2.696000000000000085e+01,6.635379279685622855e-02
2.700000000000000000e+01,7.263203126040573832e-02
2.703999999999999915e+01,7.219022210470420198e-02
2.707999999999999829e+01,7.917565203475120106e-02
2.712000000000000099e+01,4.690226440237981603e-02
2.716000000000000014e+01,7.192530522240120350e-02
2.719999999999999929e+01,5.698215912860948862e-02
2.723999999999999844e+01,4.027050438423216555e-02
2.728000000000000114e+01,1.259460059363524953e-02
2.732000000000000028e+01,1.887208836719759739e-02
2.735999999999999943e+01,6.016401194441230171e-02
2.739999999999999858e+01,6.219710083090964486e-02
2.744000000000000128e+01,5.892484654434676505e-02
2.748000000000000043e+01,5.140829332421684161e-02
2.751999999999999957e+01,4.884317667235393151e-02
2.755999999999999872e+01,5.370526974344063537e-02
2.760000000000000142e+01,5.113991648108312527e-02
2.764000000000000057e+01,4.574498341274846336e-02
2.767999999999999972e+01,4.600884158267631169e-02
2.771999999999999886e+01,6.183459095029623237e-02
2.776000000000000156e+01,5.962241733294788154e-02
2.780000000000000071e+01,5.245856074923791607e-02
2.783999999999999986e+01,4.140406543865918915e-02
2.787999999999999901e+01,4.555776930937525254e-02
2.792000000000000171e+01,5.819970756733424538e-02
2.796000000000000085e+01,4.077851482671141642e-02
2.800000000000000000e+01,4.174865398586084797e-02
2.803999999999999915e+01,4.413337561560408406e-02
2.807999999999999829e+01,4.722531281144617260e-02
2.812000000000000099e+01,2.166883813629672667e-02
2.816000000000000014e+01,4.704245062268763711e-02
2.819999999999999929e+01,6.251280447055367062e-02
2.823999999999999844e+01,4.862737464913328977e-02
2.828000000000000114e+01,4.641329725203409418e-02
2.832000000000000028e+01,4.207696290925441035e-02
2.835999999999999943e+01,3.561836917389462481e-02
2.839999999999999858e+01,1.642704673513029762e-02
2.844000000000000128e+01,4.392160758403731990e-02
2.848000000000000043e+01,6.717180832687968950e-02
2.851999999999999957e+01,1.331910738447745005e-02
2.855999999999999872e+01,5.248465436151617675e-02
2.860000000000000142e+01,3.576822848735899257e-02
2.864000000000000057e+01,4.274832879453803469e-02
2.867999999999999972e+01,2.744626309248134402e-02
2.871999999999999886e+01,5.211010120264469164e-02
2.876000000000000156e+01,2.655087233477244901e-02
2.880000000000000071e+01,4.449436467329516420e-02
2.883999999999999986e+01,4.899773693491954463e-02
2.887999999999999901e+01,3.440207101198606426e-02
2.892000000000000171e+01,0.000000000000000000e+00
2.896000000000000085e+01,2.749211630427818298e-02
2.900000000000000000e+01,3.057995365133663393e-02
2.903999999999999915e+01,4.250963910123832512e-02
2.907999999999999829e+01,2.755926509853814238e-02
2.912000000000000099e+01,3.595170568557791435e-02
2.916000000000000014e+01,4.929548251798879926e-02
2.919999999999999929e+01,2.479504346437640810e-02
2.923999999999999844e+01,3.283314960853865594e-02
2.928000000000000114e+01,4.476153797097993936e-02
2.932000000000000028e+01,3.688349677536933990e-02
2.935999999999999943e+01,6.331240458082117162e-02
2.939999999999999858e+01,1.865095475878738446e-02
2.944000000000000128e+01,4.826254089813070136e-02
2.948000000000000043e+01,2.411419372726520891e-02
2.951999999999999957e+01,6.610418636163499506e-02
2.955999999999999872e+01,5.044373627522377723e-02
2.960000000000000142e+01,4.751560455182939763e-02
2.964000000000000057e+01,5.590505982936186391e-02
2.967999999999999972e+01,6.323322165300979125e-02
2.971999999999999886e+01,3.554659361131556894e-02
2.976000000000000156e+01,5.348472142320371409e-02
2.980000000000000071e+01,4.525011019588687927e-02
2.983999999999999986e+01,4.125942915904791397e-02
2.987999999999999901e+01,4.080531140819202568e-02
2.992000000000000171e+01,2.761837197173531641e-02
2.996000000000000085e+01,5.156780266322225081e-02
3.000000000000000000e+01,8.223692935916981916e-02
3.003999999999999915e+01,4.040093036204355642e-02
3.007999999999999829e+01,4.171389204171814524e-02
3.012000000000000099e+01,3.666029991964710189e-02
3.016000000000000014e+01,5.919364551348819253e-02
3.019999999999999929e+01,2.619860260893469225e-02
3.023999999999999844e+01,3.812092173756984753e-02
3.028000000000000114e+01,4.933559293761937553e-02
3.032000000000000028e+01,7.257517399889248932e-02
3.035999999999999943e+01,6.716620616277955980e-02
3.039999999999999858e+01,8.368524570041978305e-02
3.044000000000000128e+01,8.145883385320344672e-02
3.048000000000000043e+01,8.772049979163640265e-02
3.051999999999999957e+01,7.346829830742546141e-02
3.055999999999999872e+01,7.265572091822886103e-02
3.060000000000000142e+01,8.139226066037416607e-02
3.064000000000000057e+01,9.437268165499937411e-02
3.067999999999999972e+01,1.031086079640650410e-01
3.071999999999999886e+01,1.203325973773806956e-01
3.076000000000000156e+01,1.089080134243112369e-01
3.080000000000000071e+01,1.363881593582747798e-01
3.083999999999999986e+01,1.267313535409139436e-01
3.087999999999999901e+01,1.361730679041276981e-01
3.092000000000000171e+01,1.173198813421542364e-01
3.096000000000000085e+01,1.394935082523989234e-01
3.100000000000000000e+01,1.178102112765678083e-01
3.103999999999999915e+01,1.081517801177620391e-01
3.107999999999999829e+01,1.211286791930059892e-01
3.112000000000000099e+01,1.125306274557152098e-01
3.116000000000000014e+01,1.092374718475981887e-01
3.119999999999999929e+01,1.282259569040337666e-01
3.123999999999999844e+01,8.638075641071510380e-02
3.128000000000000114e+01,1.202232082365681104e-01
3.132000000000000028e+01,1.413327527353238078e-01
3.135999999999999943e+01,1.192927157834995228e-01
3.139999999999999858e+01,1.135217093721710979e-01
3.144000000000000128e+01,1.123482175041221609e-01
3.148000000000000043e+01,1.373468536890986580e-01
3.151999999999999957e+01,1.531493926004531825e-01
3.155999999999999872e+01,1.760252143159697358e-01
3.160000000000000142e+01,1.748502802545703338e-01
3.164000000000000057e+01,1.772118018155584562e-01
3.167999999999999972e+01,1.947812901023509569e-01
3.171999999999999886e+01,1.607128014253246806e-01
3.176000000000000156e+01,1.768668152312530550e-01
3.180000000000000071e+01,1.951425459567793230e-01
3.183999999999999986e+01,1.738054881569013888e-01
3.187999999999999901e+01,2.270949992863042222e-01
3.192000000000000171e+01,1.806457381009322349e-01
3.196000000000000085e+01,1.706253602409136816e-01
3.200000000000000000e+01,1.560067247188415829e-01
3.203999999999999915e+01,1.424487447485754954e-01
3.207999999999999829e+01,1.663806874493556354e-01
3.211999999999999744e+01,1.404430398613055742e-01
3.215999999999999659e+01,1.420922076441726301e-01
3.220000000000000284e+01,1.377283766152966049e-01
3.224000000000000199e+01,9.941064825277701189e-02
3.228000000000000114e+01,1.109617083347158445e-01
3.232000000000000028e+01,1.278175935857311374e-01
3.235999999999999943e+01,1.170858542807577535e-01
3.239999999999999858e+01,1.028168795311242001e-01
3.243999999999999773e+01,7.192442442442389949e-02
3.247999999999999687e+01,8.665655878211278584e-02
3.252000000000000313e+01,7.839892777058060647e-02
3.256000000000000227e+01,6.695773375558600193e-02
3.260000000000000142e+01,1.280209712528890820e-01
3.264000000000000057e+01,7.449073878172504659e-02
3.267999999999999972e+01,1.093806332249452479e-01
3.271999999999999886e+01,6.115477116887407111e-02
3.275999999999999801e+01,7.977441517674117855e-02
3.279999999999999716e+01,8.742947246620201562e-02
3.284000000000000341e+01,6.997265143845785018e-02
3.288000000000000256e+01,6.807740595831823782e-02
3.292000000000000171e+01,5.344915527508546649e-02
3.296000000000000085e+01,1.166305475140131664e-01
3.300000000000000000e+01,1.660178829696555003e-01
3.303999999999999915e+01,1.096537797077686005e-01
3.307999999999999829e+01,7.132701536056923475e-02
3.311999999999999744e+01,6.306278326027167647e-02
3.315999999999999659e+01,6.151805385934248915e-02
3.320000000000000284e+01,7.058332922765418738e-02
3.324000000000000199e+01,4.498728163222992515e-02
3.328000000000000114e+01,5.971054113123461238e-02
3.332000000000000028e+01,4.366297728947569207e-02
3.335999999999999943e+01,7.394731353790300055e-02
3.339999999999999858e+01,6.391140137423519108e-02
3.343999999999999773e+01,8.110854405188999694e-02
3.347999999999999687e+01,5.621702227966257626e-02
3.352000000000000313e+01,8.826785767394597360e-02
3.356000000000000227e+01,8.742576167328153236e-02
3.360000000000000142e+01,7.420430110102309296e-02
3.364000000000000057e+01,7.265386506849884352e-02
3.367999999999999972e+01,9.090914239115102657e-02
3.371999999999999886e+01,8.122302973442033225e-02
3.375999999999999801e+01,8.886684993748400485e-02
3.379999999999999716e+01,8.554602224964388824e-02
3.384000000000000341e+01,9.566461801102592311e-02
3.388000000000000256e+01,1.270036438082747798e-01
3.392000000000000171e+01,1.173150249261347006e-01
3.396000000000000085e+01,1.334447001604287530e-01
3.400000000000000000e+01,9.404575444083762559e-02
3.403999999999999915e+01,9.496606932457740680e-02
3.407999999999999829e+01,1.418645580255077365e-01
3.411999999999999744e+01,1.625900434220436397e-01
3.415999999999999659e+01,1.592646164400701170e-01
3.420000000000000284e+01,1.279977701159150383e-01
3.424000000000000199e+01,1.582711058884397615e-01
3.428000000000000114e+01,1.584809240521983520e-01
3.432000000000000028e+01,1.452502869137720642e-01
3.435999999999999943e+01,1.627894706259455371e-01
3.439999999999999858e+01,1.683029230573244717e-01
3.443999999999999773e+01,1.451675770075273597e-01
3.447999999999999687e+01,1.609367357299723300e-01
3.452000000000000313e+01,1.473497266198465216e-01
3.456000000000000227e+01,1.694840773289856828e-01
3.460000000000000142e+01,1.562496574221972634e-01
3.464000000000000057e+01,1.734313590089119617e-01
3.467999999999999972e+01,1.538295561707092307e-01
3.471999999999999886e+01,1.526186741530956015e-01
3.475999999999999801e+01,1.538830102132847377e-01
3.479999999999999716e+01,1.165954233638693549e-01
3.484000000000000341e+01,1.206880948661794156e-01
3.488000000000000256e+01,1.187676036144529046e-01
3.492000000000000171e+01,1.200296851105245033e-01
3.496000000000000085e+01,9.052084294293669120e-02
3.500000000000000000e+01,1.154784918049809594e-01
3.503999999999999915e+01,1.199219967446927965e-01
3.507999999999999829e+01,1.275480646446031374e-01
3.511999999999999744e+01,1.008663768052795173e-01
3.515999999999999659e+01,1.123817876833047291e-01
3.520000000000000284e+01,1.065661849105751374e-01
3.524000000000000199e+01,1.099457332000013388e-01
3.528000000000000114e+01,1.158004677575316943e-01
3.532000000000000028e+01,1.159956948739240962e-01
3.535999999999999943e+01,1.048724964415192057e-01
3.539999999999999858e+01,1.192138218083545476e-01
3.543999999999999773e+01,1.247124923341749736e-01
3.547999999999999687e+01,1.295031968344227125e-01
3.552000000000000313e+01,1.300491105742229425e-01
3.556000000000000227e+01,1.387291091145875510e-01
3.560000000000000142e+01,1.371517141111478211e-01
3.564000000000000057e+01,1.497209969040296518e-01
3.567999999999999972e+01,1.729001327583583880e-01
3.571999999999999886e+01,1.317084867221692823e-01
3.575999999999999801e+01,1.778757325026796288e-01
3.579999999999999716e+01,1.586111448124799816e-01
3.584000000000000341e+01,1.842635765894826139e-01
3.588000000000000256e+01,1.939996820336221395e-01
3.592000000000000171e+01,2.019667478498974600e-01
3.596000000000000085e+01,2.117015938793835317e-01
3.600000000000000000e+01,1.828844435922681866e-01
3.603999999999999915e+01,2.343525234176034311e-01
3.607999999999999829e+01,2.030583234328529607e-01
3.611999999999999744e+01,2.262305459645375105e-01
3.615999999999999659e+01,2.207538647983504354e-01
3.620000000000000284e+01,2.166912669351771792e-01
3.624000000000000199e+01,2.621435330445746059e-01
3.628000000000000114e+01,2.800079348017928127e-01
3.632000000000000028e+01,2.239520977874631669e-01
3.635999999999999943e+01,2.131669306594345947e-01
3.639999999999999858e+01,1.988442833967557222e-01
3.643999999999999773e+01,1.951314427044257005e-01
3.647999999999999687e+01,2.037968172795319999e-01
3.652000000000000313e+01,1.813374905330850384e-01
3.656000000000000227e+01,1.772689720498317467e-01
3.660000000000000142e+01,1.979575395012267425e-01
3.664000000000000057e+01,1.896434916631535850e-01
3.667999999999999972e+01,1.608151995798521305e-01
3.671999999999999886e+01,1.585123972344865406e-01
3.675999999999999801e+01,1.643436062826882094e-01
3.679999999999999716e+01,1.153533875516065954e-01
3.684000000000000341e+01,1.307326496990910414e-01
3.688000000000000256e+01,1.326712999427970829e-01
3.692000000000000171e+01,1.363776716741162132e-01
3.696000000000000085e+01,1.011783061344388029e-01
3.700000000000000000e+01,1.062980201274996428e-01
3.703999999999999915e+01,8.630559887886563031e-02
3.707999999999999829e+01,9.602178540524572425e-02
3.711999999999999744e+01,9.300470980404298982e-02
3.715999999999999659e+01,1.030731723305731290e-01
3.720000000000000284e+01,7.706534073508707061e-02
3.724000000000000199e+01,7.404614477986351528e-02
3.728000000000000114e+01,8.375879738287578258e-02
3.732000000000000028e+01,6.977402653108380481e-02
3.735999999999999943e+01,5.012962344625903482e-02
3.739999999999999858e+01,4.887597723972985503e-02
3.743999999999999773e+01,8.298983244687541116e-02
3.747999999999999687e+01,6.475799387902160531e-02
3.752000000000000313e+01,6.314849370477633450e-02
3.756000000000000227e+01,4.986675117344171321e-02
3.760000000000000142e+01,5.320734214191578937e-02
3.764000000000000057e+01,6.362084398576692279e-02
3.767999999999999972e+01,4.786112475113243891e-02
3.771999999999999886e+01,4.271113378604999428e-02
3.775999999999999801e+01,3.543830840691046535e-02
3.779999999999999716e+01,5.752036452978924463e-02
3.784000000000000341e+01,4.423345183784849893e-02
3.788000000000000256e+01,4.721517328861980084e-02
3.792000000000000171e+01,6.434343306241829819e-02
3.796000000000000085e+01,5.600581908702674527e-02
3.800000000000000000e+01,4.837481384655861055e-02
3.803999999999999915e+01,6.373239530835499156e-02
3.807999999999999829e+01,4.407467550272975432e-02
3.811999999999999744e+01,3.573402395525244329e-02
3.815999999999999659e+01,2.774628912630141414e-02
3.820000000000000284e+01,2.364829085695150865e-02
3.824000000000000199e+01,2.803789567467003183e-02
3.828000000000000114e+01,4.975715685249384318e-02
3.832000000000000028e+01,6.510936261409232262e-02
3.835999999999999943e+01,5.181253009832460094e-02
3.839999999999999858e+01,4.735697311082313204e-02
3.843999999999999773e+01,4.466904462873855230e-02
3.847999999999999687e+01,3.490668648523399809e-02
3.852000000000000313e+01,3.363191430049856934e-02
3.856000000000000227e+01,4.614995905959452110e-02
3.860000000000000142e+01,4.982515567258338773e-02
3.864000000000000057e+01,6.870789325079369736e-02
3.867999999999999972e+01,3.453749918941277641e-02
3.871999999999999886e+01,4.351553727445393177e-02
3.875999999999999801e+01,4.824858640015577960e-02
3.879999999999999716e+01,5.404187755158041534e-02
3.884000000000000341e+01,3.649133449480210928e-02
3.888000000000000256e+01,4.440510235697262692e-02
3.892000000000000171e+01,3.675604015068483638e-02
3.896000000000000085e+01,4.537554602081172311e-02
3.900000000000000000e+01,5.293318830937700920e-02
3.903999999999999915e+01,5.907528234068348816e-02
3.907999999999999829e+01,6.097236783745111494e-02
3.911999999999999744e+01,6.923490921670456821e-02
3.915999999999999659e+01,5.733673687173333061e-02
3.920000000000000284e+01,5.145033328665031547e-02
3.924000000000000199e+01,4.237995806582154495e-02
3.928000000000000114e+01,4.462658014304356213e-02
3.932000000000000028e+01,4.368922569071997941e-02
3.935999999999999943e+01,4.275103232112810459e-02
3.939999999999999858e+01,5.631296896806465418e-02
3.943999999999999773e+01,7.022774403273067401e-02
3.947999999999999687e+01,3.321143189259209705e-02
3.952000000000000313e+01,5.313710988397937068e-02
3.956000000000000227e+01,3.769371384385122870e-02
3.960000000000000142e+01,2.613996872182777764e-02
3.964000000000000057e+01,7.188188861942776398e-02
3.967999999999999972e+01,5.466751329860967956e-02
3.971999999999999886e+01,9.085829358684299750e-02
3.975999999999999801e+01,8.354529634671960248e-02
3.979999999999999716e+01,6.845042423988462188e-02
3.984000000000000341e+01,6.927038414886896311e-02
3.988000000000000256e+01,6.726001550050654532e-02
3.992000000000000171e+01,7.090768933903685012e-02
3.996000000000000085e+01,6.252929177768615232e-02
4.000000000000000000e+01,8.456668782525172956e-02
4.003999999999999915e+01,7.583284945287044332e-02
4.007999999999999829e+01,9.114851967725094706e-02
4.011999999999999744e+01,9.903597768851821193e-02
4.015999999999999659e+01,8.251847405749333786e-02
4.020000000000000284e+01,7.802527590341644392e-02
4.024000000000000199e+01,8.095851180502047773e-02
4.028000000000000114e+01,1.033433750945196850e-01
4.032000000000000028e+01,1.126410982756464452e-01
4.035999999999999943e+01,1.166326879350452900e-01
4.039999999999999858e+01,1.032929458467021361e-01
4.043999999999999773e+01,1.175395126209966001e-01
4.047999999999999687e+01,1.218820695584961755e-01
4.052000000000000313e+01,1.495667437192638172e-01
4.056000000000000227e+01,1.273813112953221249e-01
4.060000000000000142e+01,1.713335408853431385e-01
4.064000000000000057e+01,1.944176017582480154e-01
4.067999999999999972e+01,1.969871736959342978e-01
4.071999999999999886e+01,2.225451683935917302e-01
4.075999999999999801e+01,2.449190984733070064e-01
4.079999999999999716e+01,2.499616723362812765e-01
4.084000000000000341e+01,2.928473152280208769e-01
4.088000000000000256e+01,3.339636150763086730e-01
4.092000000000000171e+01,3.814452606965866299e-01
4.096000000000000085e+01,4.961255929951206567e-01
4.100000000000000000e+01,5.807419966057050242e-01
4.103999999999999915e+01,6.087683019216292291e-01
4.107999999999999829e+01,7.103595666934643393e-01
4.111999999999999744e+01,8.236213984347522388e-01
4.115999999999999659e+01,9.191981697084026237e-01
4.120000000000000284e+01,9.493427771798563786e-01
4.124000000000000199e+01,1.000000000000000000e+00
4.128000000000000114e+01,9.873471474969318651e-01
4.132000000000000028e+01,9.517039913066648316e-01
4.135999999999999943e+01,9.058030892190073180e-01
4.139999999999999858e+01,7.962384222386409416e-01
4.143999999999999773e+01,7.156747318636047517e-01
4.147999999999999687e+01,6.542089132406689878e-01
4.152000000000000313e+01,5.503002561121733693e-01
4.156000000000000227e+01,5.012113709505237047e-01
4.160000000000000142e+01,4.369131740069198133e-01
4.164000000000000057e+01,4.426430799746536304e-01
4.167999999999999972e+01,4.101743243947975071e-01
4.171999999999999886e+01,3.462268671676034804e-01
4.175999999999999801e+01,3.233055627496544404e-01
4.179999999999999716e+01,2.869433454592391075e-01
4.184000000000000341e+01,3.099987519817375414e-01
4.188000000000000256e+01,2.983923070101214270e-01
4.192000000000000171e+01,2.938585110955928559e-01
4.196000000000000085e+01,2.896773994440998701e-01
4.200000000000000000e+01,2.458828777546279987e-01
4.203999999999999915e+01,2.622133321011653195e-01
4.207999999999999829e+01,2.509555672950379845e-01
4.211999999999999744e+01,2.294400101004224757e-01
4.215999999999999659e+01,2.157044517390901417e-01
4.220000000000000284e+01,2.065657497049637192e-01
4.224000000000000199e+01,1.967186681191812614e-01
4.228000000000000114e+01,1.918221201956023803e-01
4.232000000000000028e+01,2.081454860120111605e-01
4.235999999999999943e+01,1.883922420563165223e-01
4.239999999999999858e+01,1.767726644813031323e-01
4.243999999999999773e+01,1.566636860865896763e-01
4.247999999999999687e+01,1.552988360426819647e-01
4.252000000000000313e+01,1.358951601077425519e-01
4.256000000000000227e+01,1.631765037048094891e-01
4.260000000000000142e+01,1.320992424341328186e-01
4.264000000000000057e+01,1.130461373795101504e-01
4.267999999999999972e+01,1.162739707291683827e-01
4.271999999999999886e+01,1.301112264858909628e-01
4.275999999999999801e+01,1.287390995005621985e-01
4.279999999999999716e+01,1.248901475629913965e-01
4.284000000000000341e+01,1.146738637095064822e-01
4.288000000000000256e+01,1.168354036194735879e-01
4.292000000000000171e+01,1.303137181596004668e-01
4.296000000000000085e+01,1.406078335022907244e-01
4.300000000000000000e+01,1.151789821512766709e-01
4.303999999999999915e+01,1.074331782080772540e-01
4.307999999999999829e+01,1.290419327761093415e-01
4.311999999999999744e+01,1.177571711401171894e-01
4.315999999999999659e+01,9.338509566585957711e-02
4.320000000000000284e+01,1.015507114213109047e-01
4.324000000000000199e+01,1.486202960779260118e-01
4.328000000000000114e+01,1.295502252359546080e-01
4.332000000000000028e+01,1.345294647918529873e-01
4.335999999999999943e+01,1.235919204446067482e-01
4.339999999999999858e+01,1.434236439485825354e-01
4.343999999999999773e+01,1.388502051644743829e-01
4.347999999999999687e+01,1.169452462213318167e-01
4.352000000000000313e+01,1.590556772956743803e-01
4.356000000000000227e+01,1.619062851317393248e-01
4.360000000000000142e+01,1.629873835351591804e-01
4.364000000000000057e+01,1.541642787966919503e-01
4.367999999999999972e+01,1.853061627298818737e-01
4.371999999999999886e+01,1.524304576213713625e-01
4.375999999999999801e+01,1.987784636872380051e-01
4.379999999999999716e+01,1.945488005119082597e-01
4.384000000000000341e+01,1.938548466544962323e-01
4.388000000000000256e+01,2.522247095893054292e-01
4.392000000000000171e+01,2.582484847982313148e-01
4.396000000000000085e+01,2.533069906036785612e-01
4.400000000000000000e+01,2.908062411071662412e-01
4.403999999999999915e+01,2.876309100943874042e-01
4.407999999999999829e+01,3.077974785307854844e-01
4.411999999999999744e+01,3.116935343441430417e-01
4.415999999999999659e+01,3.067464018923073410e-01
4.420000000000000284e+01,3.322148061248984541e-01
4.424000000000000199e+01,2.855308982437482213e-01
4.428000000000000114e+01,2.968497359994279328e-01
4.432000000000000028e+01,2.795191708896561100e-01
4.435999999999999943e+01,2.480401718482294349e-01
4.439999999999999858e+01,1.967538207674882633e-01
4.443999999999999773e+01,1.822492718081288876e-01
4.447999999999999687e+01,1.649141128979342008e-01
4.452000000000000313e+01,1.426262482172191981e-01
4.456000000000000227e+01,1.068973018279448517e-01
4.460000000000000142e+01,1.245732125259340489e-01
4.464000000000000057e+01,1.206733453592220007e-01
4.467999999999999972e+01,1.086376225752129221e-01
4.471999999999999886e+01,1.132237977428301456e-01
4.475999999999999801e+01,6.793960940124847692e-02
4.479999999999999716e+01,7.004766802287372418e-02
4.484000000000000341e+01,8.983866394181796999e-02
4.488000000000000256e+01,7.673603599314249291e-02
4.492000000000000171e+01,5.372912660178318783e-02
4.496000000000000085e+01,5.477142728539776545e-02
4.500000000000000000e+01,7.172824433474446482e-02
4.503999999999999915e+01,4.518096086494746699e-02
4.507999999999999829e+01,8.229528975474195707e-02
4.511999999999999744e+01,7.024659757083330514e-02
4.515999999999999659e+01,5.147674932201886516e-02
4.520000000000000284e+01,5.215822749241159906e-02
4.524000000000000199e+01,2.808075103542738080e-02
4.528000000000000114e+01,3.795556748454721047e-02
4.532000000000000028e+01,6.339119849540250651e-02
4.535999999999999943e+01,6.901941874134565058e-02
4.539999999999999858e+01,5.696231914826175441e-02
4.543999999999999773e+01,6.541757797937820806e-02
4.547999999999999687e+01,4.840650304412329186e-02
4.552000000000000313e+01,6.110351958800334243e-02
4.556000000000000227e+01,5.399311313247178584e-02
4.560000000000000142e+01,5.961404627999658534e-02
4.564000000000000057e+01,4.507386930551245813e-02
4.567999999999999972e+01,6.448596076813348232e-02
4.571999999999999886e+01,4.852860137665433726e-02
4.575999999999999801e+01,4.707098294461931759e-02
4.579999999999999716e+01,4.914895393240673038e-02
4.584000000000000341e+01,7.209294110419289803e-02
4.588000000000000256e+01,5.719169203269713203e-02
4.592000000000000171e+01,2.884927805804530024e-02
4.596000000000000085e+01,3.375175093460416192e-02
4.600000000000000000e+01,6.270337026673956926e-02
4.603999999999999915e+01,5.487079025438572344e-02
4.607999999999999829e+01,4.951273584716259224e-02
4.611999999999999744e+01,2.788404647190405664e-02
4.615999999999999659e+01,7.310004344911701091e-02
4.620000000000000284e+01,5.924985088000015582e-02
4.624000000000000199e+01,5.742359430594620728e-02
4.628000000000000114e+01,3.366777731549767255e-02
4.632000000000000028e+01,3.679054503580629631e-02
4.635999999999999943e+01,7.386553959592145890e-02
4.639999999999999858e+01,5.753324803596709253e-02
4.643999999999999773e+01,5.676170252455089299e-02
4.647999999999999687e+01,5.032996688692441961e-02
4.652000000000000313e+01,4.990955222650453327e-02
4.656000000000000227e+01,6.752565187550538250e-02
4.660000000000000142e+01,5.437011581297555851e-02
4.664000000000000057e+01,5.925108916606669496e-02
4.667999999999999972e+01,6.766759810718248058e-02
4.671999999999999886e+01,5.309347302961228005e-02
4.675999999999999801e+01,5.018956990860879569e-02
4.679999999999999716e+01,6.779794201720906743e-02
4.684000000000000341e+01,6.383040168161355221e-02
4.688000000000000256e+01,4.500690880207438432e-02
4.692000000000000171e+01,5.483037507378120401e-02
4.696000000000000085e+01,5.899362185647894635e-02
4.700000000000000000e+01,6.881447802478696252e-02
4.703999999999999915e+01,5.422995168401992250e-02
4.707999999999999829e+01,7.253656145246888121e-02
4.711999999999999744e+01,4.415580340380201307e-02
4.715999999999999659e+01,7.024079252719742095e-02
4.720000000000000284e+01,5.741941797322167723e-02
4.724000000000000199e+01,6.758606733453302595e-02
4.728000000000000114e+01,5.051786167499012353e-02
4.732000000000000028e+01,7.058496418883360157e-02
4.735999999999999943e+01,6.730771130479516751e-02
4.739999999999999858e+01,7.817641682850744178e-02
4.743999999999999773e+01,5.473661296781629632e-02
4.747999999999999687e+01,5.782164062898763335e-02
4.752000000000000313e+01,6.196637689170329116e-02
4.756000000000000227e+01,5.974349250431643804e-02
4.760000000000000142e+01,6.459290971423120586e-02
4.764000000000000057e+01,5.140318782992697733e-02
4.767999999999999972e+01,8.454449004564430770e-02
4.771999999999999886e+01,6.640051876638014550e-02
4.775999999999999801e+01,4.860887694966590372e-02
4.779999999999999716e+01,4.814630913088065872e-02
4.784000000000000341e+01,6.112230834635221099e-02
4.788000000000000256e+01,6.101070498936990438e-02
4.792000000000000171e+01,7.327661708645219485e-02
4.796000000000000085e+01,5.653922142139448936e-02
4.800000000000000000e+01,5.748456974856368251e-02
4.803999999999999915e+01,4.711071685966689709e-02
4.807999999999999829e+01,5.654169644198198813e-02
4.811999999999999744e+01,6.632498346474803574e-02
4.815999999999999659e+01,4.392181043169718357e-02
4.820000000000000284e+01,5.264129385067789491e-02
4.824000000000000199e+01,5.287102164947286853e-02
4.828000000000000114e+01,5.274568264352420127e-02
4.832000000000000028e+01,6.393678793624864298e-02
4.835999999999999943e+01,5.991816792093556526e-02
4.839999999999999858e+01,7.004544514087568396e-02
4.843999999999999773e+01,5.293779637986432279e-02
4.847999999999999687e+01,8.074639386568664701e-02
4.852000000000000313e+01,6.328226680808661520e-02
4.856000000000000227e+01,5.465879376617785446e-02
4.860000000000000142e+01,4.744864548831357470e-02
4.864000000000000057e+01,5.403069753550558685e-02
4.867999999999999972e+01,6.202606945294227014e-02
4.871999999999999886e+01,5.198223620986260063e-02
4.875999999999999801e+01,4.335171794322783406e-02
4.879999999999999716e+01,4.391552123968247429e-02
4.884000000000000341e+01,5.650310148270653449e-02
4.888000000000000256e+01,4.822200894723474573e-02
4.892000000000000171e+01,3.640267039744365246e-02
4.896000000000000085e+01,6.384063307092778528e-02
4.900000000000000000e+01,6.934886893882402648e-02
4.903999999999999915e+01,5.787892675739715609e-02
4.907999999999999829e+01,5.206646672278559401e-02
4.911999999999999744e+01,5.615567313365928820e-02
4.915999999999999659e+01,4.644983421368738263e-02
4.920000000000000284e+01,5.478034810774280033e-02
4.924000000000000199e+01,2.844856027810185525e-02
4.928000000000000114e+01,2.758044717343533306e-02
4.932000000000000028e+01,4.227290394051419486e-02
4.935999999999999943e+01,4.847553657421005413e-02
4.939999999999999858e+01,4.512729594123066068e-02
4.943999999999999773e+01,3.010608622189121439e-02
4.947999999999999687e+01,5.186637031454598146e-02
4.952000000000000313e+01,4.922112019033187541e-02
4.956000000000000227e+01,4.551336050298227659e-02
4.960000000000000142e+01,4.215781772078720790e-02
4.964000000000000057e+01,4.941127403197363016e-02
4.967999999999999972e+01,3.933283091464092468e-02
4.971999999999999886e+01,4.905911994562428546e-02
4.975999999999999801e+01,6.161339169574481245e-02
4.979999999999999716e+01,4.905474764310221308e-02
4.984000000000000341e+01,5.700819285567078343e-02
4.988000000000000256e+01,6.071596887072742282e-02
4.992000000000000171e+01,4.956760637744798276e-02
4.996000000000000085e+01,6.069973695266746988e-02
5.000000000000000000e+01,6.263463978651055697e-02
5.003999999999999915e+01,4.935971454252047891e-02
5.007999999999999829e+01,5.553581719594970906e-02
5.011999999999999744e+01,6.418619831761959715e-02
5.015999999999999659e+01,4.277209041126259909e-02
5.020000000000000284e+01,5.460260998472678956e-02
5.024000000000000199e+01,4.238123352592133158e-02
5.028000000000000114e+01,5.703819953478272281e-02
5.032000000000000028e+01,5.613163810871404230e-02
5.035999999999999943e+01,4.142995794480275329e-02
5.039999999999999858e+01,4.865506170469396235e-02
5.043999999999999773e+01,5.304919092566454802e-02
5.047999999999999687e+01,5.036815641524487047e-02
5.052000000000000313e+01,4.096563795533245123e-02
5.056000000000000227e+01,5.808776260599018276e-02
5.060000000000000142e+01,6.318316498139323056e-02
5.064000000000000057e+01,5.236133811786957554e-02
5.067999999999999972e+01,4.012325094921566360e-02
5.071999999999999886e+01,5.193402150195004091e-02
5.075999999999999801e+01,3.969286421271592952e-02
5.079999999999999716e+01,5.256160643746261157e-02
5.084000000000000341e+01,5.694043399353006241e-02
5.088000000000000256e+01,5.070725106123338127e-02
5.092000000000000171e+01,3.386205519367280203e-02
5.096000000000000085e+01,5.450562706040514016e-02
5.100000000000000000e+01,4.190151845503516104e-02
5.103999999999999915e+01,4.132105221674005346e-02
5.107999999999999829e+01,7.115570179608858570e-02
5.111999999999999744e+01,5.359537441073613379e-02
5.115999999999999659e+01,4.452185976378410931e-02
5.120000000000000284e+01,4.817934215390214797e-02
5.124000000000000199e+01,4.122479203355702837e-02
5.128000000000000114e+01,3.957390725173532547e-02
5.132000000000000028e+01,6.303289017419569373e-02
5.135999999999999943e+01,6.703777752555634128e-02
5.139999999999999858e+01,6.962636052758852667e-02
5.143999999999999773e+01,5.063874969193629672e-02
5.147999999999999687e+01,5.852940791695405293e-02
5.152000000000000313e+01,4.625859632567738688e-02
5.156000000000000227e+01,5.662186215570107206e-02
5.160000000000000142e+01,5.177520447879537663e-02
5.164000000000000057e+01,5.576901240628859974e-02
5.167999999999999972e+01,6.789591903368603909e-02
5.171999999999999886e+01,5.349506349193507843e-02
5.175999999999999801e+01,4.970307735787074521e-02
5.179999999999999716e+01,5.510522926940342181e-02
5.184000000000000341e+01,6.298155443248094898e-02
5.188000000000000256e+01,6.944154588343127987e-02
5.192000000000000171e+01,5.574004304908821567e-02
5.196000000000000085e+01,5.583053744710966132e-02
5.200000000000000000e+01,5.733414862268398915e-02
5.203999999999999915e+01,6.201928527289870402e-02
5.207999999999999829e+01,4.866501122300530974e-02
5.211999999999999744e+01,6.643315382895316479e-02
5.215999999999999659e+01,7.252816095934765117e-02
5.220000000000000284e+01,7.614576811602327688e-02
5.224000000000000199e+01,7.587124393689034796e-02
5.228000000000000114e+01,7.736350163580844874e-02
5.232000000000000028e+01,5.834055835163663717e-02
5.235999999999999943e+01,7.185474595709658019e-02
5.239999999999999858e+01,7.051264334642655396e-02
5.243999999999999773e+01,5.961948150468869556e-02
5.247999999999999687e+01,7.136034080555343773e-02
5.252000000000000313e+01,8.239219170148764926e-02
5.256000000000000227e+01,7.184778024654008000e-02
5.260000000000000142e+01,6.165540217925447736e-02
5.264000000000000057e+01,6.207183968785784378e-02
5.267999999999999972e+01,7.981705267260209846e-02
5.271999999999999886e+01,7.209548900209283850e-02
5.275999999999999801e+01,7.038486459240558824e-02
5.279999999999999716e+01,5.523265441277928206e-02
5.284000000000000341e+01,5.316502317612458589e-02
5.288000000000000256e+01,5.781568831718712081e-02
5.292000000000000171e+01,7.272146967704175291e-02
5.296000000000000085e+01,5.331840398030653072e-02
5.300000000000000000e+01,5.195145864210807402e-02
5.303999999999999915e+01,5.305861314845756321e-02
5.307999999999999829e+01,7.114083643315147198e-02
5.311999999999999744e+01,6.658571642397273505e-02
5.315999999999999659e+01,5.177212868193307310e-02
5.320000000000000284e+01,5.534833129272812707e-02
5.324000000000000199e+01,6.033757482717908016e-02
5.328000000000000114e+01,5.047047431370228071e-02
5.332000000000000028e+01,5.439528783799332107e-02
5.335999999999999943e+01,5.690367711486071789e-02
5.339999999999999858e+01,4.950726620626526298e-02
5.343999999999999773e+01,6.580586440106730994e-02
5.347999999999999687e+01,6.795547077103690492e-02
5.352000000000000313e+01,6.126131630123637928e-02
5.356000000000000227e+01,6.800537895900679586e-02
5.360000000000000142e+01,6.696672256959966540e-02
5.364000000000000057e+01,6.769476486364696399e-02
5.367999999999999972e+01,5.498116755595734012e-02
5.371999999999999886e+01,5.110790861387193296e-02
5.375999999999999801e+01,5.678235004808565578e-02
5.379999999999999716e+01,6.174770477657186285e-02
5.384000000000000341e+01,6.352819475084837963e-02
5.388000000000000256e+01,7.202691993034451845e-02
5.392000000000000171e+01,6.885240197069165957e-02
5.396000000000000085e+01,7.911607666961083252e-02
5.400000000000000000e+01,6.851076538684680584e-02
5.403999999999999915e+01,5.436689488657608926e-02
5.407999999999999829e+01,5.366120970417750935e-02
5.411999999999999744e+01,7.700417425667561988e-02
5.415999999999999659e+01,6.214771382881461442e-02
5.420000000000000284e+01,5.436315125977157076e-02
5.424000000000000199e+01,7.274932445771030431e-02
5.428000000000000114e+01,5.647288762256506833e-02
5.432000000000000028e+01,6.070826599984203292e-02
5.435999999999999943e+01,6.918607461795761582e-02
5.439999999999999858e+01,5.113595712463144677e-02
5.443999999999999773e+01,8.472168363720572470e-02
5.447999999999999687e+01,6.843645204390501335e-02
5.452000000000000313e+01,8.822504149561619102e-02
5.456000000000000227e+01,6.910681704037419104e-02
5.460000000000000142e+01,7.863508193159722548e-02
5.464000000000000057e+01,9.240575993535958543e-02
5.467999999999999972e+01,8.530741036014034828e-02
5.471999999999999886e+01,8.740302020682527706e-02
5.475999999999999801e+01,9.161894245256491098e-02
5.479999999999999716e+01,7.850265206659803874e-02
5.484000000000000341e+01,8.165395833778510415e-02
5.488000000000000256e+01,9.293816755688430464e-02
5.492000000000000171e+01,1.006837637266788793e-01
5.496000000000000085e+01,1.010002398834967396e-01
5.500000000000000000e+01,8.822867791967846374e-02
5.503999999999999915e+01,1.002130738696540152e-01
5.507999999999999829e+01,9.168210000044656194e-02
5.511999999999999744e+01,9.375978999933408387e-02
5.515999999999999659e+01,1.004335435298596424e-01
5.520000000000000284e+01,9.755606899322422088e-02
5.524000000000000199e+01,1.201419045934779828e-01
5.528000000000000114e+01,9.639355543783363622e-02
5.532000000000000028e+01,9.351064255091148802e-02
5.535999999999999943e+01,1.008826966218874799e-01
5.539999999999999858e+01,9.339827695924080020e-02
5.543999999999999773e+01,9.864459496227491464e-02
5.547999999999999687e+01,7.948501416035463896e-02
5.552000000000000313e+01,9.781392214613851555e-02
5.556000000000000227e+01,9.102956197557349194e-02
5.560000000000000142e+01,8.388968721758284508e-02
5.564000000000000057e+01,8.452898668760858158e-02
5.567999999999999972e+01,9.613059799792833537e-02
5.571999999999999886e+01,7.200846450037508284e-02
5.575999999999999801e+01,9.704631865944327029e-02
5.579999999999999716e+01,8.423832974405391638e-02
5.584000000000000341e+01,9.371047420287806351e-02
5.588000000000000256e+01,8.054510653173629908e-02
5.592000000000000171e+01,8.364726945145113668e-02
5.596000000000000085e+01,8.957703582081859295e-02
5.600000000000000000e+01,1.011638610233185215e-01
5.603999999999999915e+01,7.384378178356908184e-02
5.607999999999999829e+01,9.780576399802677623e-02
5.611999999999999744e+01,9.488603265554938770e-02
5.615999999999999659e+01,7.463400548676896173e-02
5.620000000000000284e+01,9.788302339795156015e-02
5.624000000000000199e+01,8.470090023396752155e-02
5.628000000000000114e+01,1.118366771969693113e-01
5.632000000000000028e+01,1.053707660213845099e-01
5.635999999999999943e+01,9.076828473373171891e-02
5.639999999999999858e+01,8.995752907255417929e-02
5.643999999999999773e+01,1.004627209893698692e-01
5.647999999999999687e+01,1.031850176822152604e-01
5.652000000000000313e+01,1.006001923057725234e-01
5.656000000000000227e+01,9.483033578592683921e-02
5.660000000000000142e+01,1.106332016916015959e-01
5.664000000000000057e+01,1.165310692129214315e-01
5.667999999999999972e+01,1.008524223526698765e-01
5.671999999999999886e+01,1.081612194924288645e-01
5.675999999999999801e+01,1.009671419327661246e-01
5.679999999999999716e+01,1.065037188441873145e-01
5.684000000000000341e+01,9.152481827282989146e-02
5.688000000000000256e+01,8.680079167717437427e-02
5.692000000000000171e+01,9.410004775430810819e-02
5.696000000000000085e+01,8.618905243992566745e-02
5.700000000000000000e+01,9.242342827731764299e-02
5.703999999999999915e+01,8.663068788857082592e-02
5.707999999999999829e+01,9.710540713058349316e-02
5.711999999999999744e+01,7.857625827037875710e-02
5.715999999999999659e+01,1.024870490781469995e-01
5.720000000000000284e+01,9.385714460192319530e-02
5.724000000000000199e+01,9.795786768088443619e-02
5.728000000000000114e+01,7.800626407319345701e-02
5.732000000000000028e+01,7.538315210125491606e-02
5.735999999999999943e+01,8.478329588620671375e-02
5.739999999999999858e+01,8.675417039728793023e-02
5.743999999999999773e+01,8.377154878918090242e-02
5.747999999999999687e+01,7.017651295422618063e-02
5.752000000000000313e+01,8.098360109647388672e-02
5.756000000000000227e+01,7.233621439813721354e-02
5.760000000000000142e+01,5.873532179301264172e-02
5.764000000000000057e+01,6.706077022280855504e-02
5.767999999999999972e+01,8.917786597828303297e-02
5.771999999999999886e+01,7.026586114892745261e-02
5.775999999999999801e+01,5.701080748910872242e-02
5.779999999999999716e+01,6.674313176300328276e-02
5.784000000000000341e+01,7.611980442307772488e-02
5.788000000000000256e+01,7.417667392971047380e-02
5.792000000000000171e+01,4.712013091290017525e-02
5.796000000000000085e+01,6.993080543081156564e-02
5.800000000000000000e+01,6.868910921787245438e-02
5.803999999999999915e+01,5.471287114870213020e-02
5.807999999999999829e+01,6.230926496975589673e-02
5.811999999999999744e+01,5.611006535438626402e-02
5.815999999999999659e+01,6.759298821866852047e-02
5.820000000000000284e+01,7.589077961665197103e-02
5.824000000000000199e+01,6.933192355111970906e-02
5.828000000000000114e+01,4.579432420238718771e-02
5.832000000000000028e+01,6.328186464634047437e-02
5.835999999999999943e+01,4.999704999019205509e-02
5.839999999999999858e+01,5.863852987786597609e-02
5.843999999999999773e+01,5.737490127068942819e-02
5.847999999999999687e+01,5.999976864486421257e-02
5.852000000000000313e+01,4.352378468165435388e-02
5.856000000000000227e+01,5.993823456738892747e-02
5.860000000000000142e+01,6.892334177225595271e-02
5.864000000000000057e+01,7.507697282372249870e-02
5.867999999999999972e+01,4.692140691191332147e-02
5.871999999999999886e+01,4.422893825670212720e-02
5.875999999999999801e+01,5.355963971688471742e-02
5.879999999999999716e+01,5.793676186328242800e-02
5.884000000000000341e+01,7.575177814646417984e-02
5.888000000000000256e+01,5.395235179990869046e-02
5.892000000000000171e+01,5.726232824665397625e-02
5.896000000000000085e+01,6.127763125277446710e-02
5.900000000000000000e+01,5.291201590586364079e-02
5.903999999999999915e+01,5.515482463085738529e-02
5.907999999999999829e+01,4.183357004984271377e-02
5.911999999999999744e+01,4.654806145168000758e-02
5.915999999999999659e+01,6.010255844073480319e-02
5.920000000000000284e+01,5.844666701187889446e-02
5.924000000000000199e+01,5.112980489574436155e-02
5.928000000000000114e+01,5.017716542454527667e-02
5.932000000000000028e+01,4.816141934663487056e-02
5.935999999999999943e+01,5.321725547745521229e-02
5.939999999999999858e+01,5.720998010776442294e-02
5.943999999999999773e+01,3.891865706281399245e-02
5.947999999999999687e+01,6.023767393526229669e-02
5.952000000000000313e+01,6.280946052662605972e-02
5.956000000000000227e+01,6.820863034665124169e-02
5.960000000000000142e+01,8.103304992280527252e-02
5.964000000000000057e+01,5.742612043730111610e-02
5.967999999999999972e+01,6.211168731317700392e-02
5.971999999999999886e+01,5.689206739340560426e-02
5.975999999999999801e+01,6.263450973013814926e-02
5.979999999999999716e+01,6.448435826698077633e-02
5.984000000000000341e+01,4.900168586272939109e-02
5.988000000000000256e+01,5.332312409421919447e-02
5.992000000000000171e+01,4.384885877879002303e-02
5.996000000000000085e+01,5.170292360371975954e-02
