2.003999999999999915e+01,6.577878816532811701e-02
2.007999999999999829e+01,5.724906700495487055e-02
2.012000000000000099e+01,6.613893902722996210e-02
2.016000000000000014e+01,5.821989629580116843e-02
2.019999999999999929e+01,7.872246450723130451e-02
2.023999999999999844e+01,6.682992062492050522e-02
2.028000000000000114e+01,3.935090523827265707e-02
2.032000000000000028e+01,8.002301418903312591e-02
2.035999999999999943e+01,7.790921091830106671e-02
2.039999999999999858e+01,8.099052613300943004e-02
2.044000000000000128e+01,5.870579191063091812e-02
2.048000000000000043e+01,6.392582564320083149e-02
2.051999999999999957e+01,6.761751774728666509e-02
2.055999999999999872e+01,8.475583880537863879e-02
2.060000000000000142e+01,8.386278589149283313e-02
2.064000000000000057e+01,5.546439616260680910e-02
2.067999999999999972e+01,3.959579696236176921e-02
2.071999999999999886e+01,7.476405729530412325e-02
2.076000000000000156e+01,9.251216242936177725e-02
2.080000000000000071e+01,5.066570106488899744e-02
2.083999999999999986e+01,5.832803747260041638e-02
2.087999999999999901e+01,6.293396364700748480e-02
2.092000000000000171e+01,4.003454502196102105e-02
2.096000000000000085e+01,5.869801738389871654e-02
2.100000000000000000e+01,2.938016092124348666e-02
2.103999999999999915e+01,4.254202816775679713e-02
2.107999999999999829e+01,2.850415772009077045e-02
2.112000000000000099e+01,8.017249545455831794e-02
2.116000000000000014e+01,5.177027468090229095e-02
2.119999999999999929e+01,4.781668465255432127e-02
2.123999999999999844e+01,2.124752738476606145e-02
2.128000000000000114e+01,3.012901862249414350e-02
2.132000000000000028e+01,7.354432222164579425e-02
2.135999999999999943e+01,5.828187835681698098e-02
2.139999999999999858e+01,4.607524278679166890e-02
2.144000000000000128e+01,7.084730949883255580e-02
2.148000000000000043e+01,4.152580034226787536e-02
2.151999999999999957e+01,4.490442783703230134e-02
2.155999999999999872e+01,5.317252907096910869e-02
2.160000000000000142e+01,8.772291965076563225e-02
2.164000000000000057e+01,7.826491483743572286e-02
2.167999999999999972e+01,3.824542687437576527e-02
2.171999999999999886e+01,5.079082826769334286e-02
2.176000000000000156e+01,5.355633764169432515e-02
2.180000000000000071e+01,7.863117897672802781e-02
2.183999999999999986e+01,6.214251255800631174e-02
2.187999999999999901e+01,7.254735083632848913e-02
2.192000000000000171e+01,3.802695073361466588e-02
2.196000000000000085e+01,5.637704481128019696e-02
2.200000000000000000e+01,5.852939500161469244e-02
2.203999999999999915e+01,5.640285520891988313e-02
2.207999999999999829e+01,4.510763760745678530e-02
2.212000000000000099e+01,3.564576109807007787e-02
2.216000000000000014e+01,5.338299296909294195e-02
2.219999999999999929e+01,4.911585356104488514e-02
2.223999999999999844e+01,6.379630522102361367e-02
2.228000000000000114e+01,3.844129491934321352e-02
2.232000000000000028e+01,6.840166187486758365e-02
2.235999999999999943e+01,4.274036952869588596e-02
2.239999999999999858e+01,4.275012038002257847e-02
2.244000000000000128e+01,6.292990326747049945e-02
2.248000000000000043e+01,4.337983015789736302e-02
2.251999999999999957e+01,5.194569016646483073e-02
2.255999999999999872e+01,3.820155696241678278e-02
2.260000000000000142e+01,9.138603640823916852e-02
2.264000000000000057e+01,2.568723332939738813e-02
2.267999999999999972e+01,5.319964405157971699e-02
2.271999999999999886e+01,4.159341526856168841e-02
2.276000000000000156e+01,4.465619937583507892e-02
2.280000000000000071e+01,2.540898342667588863e-02
2.283999999999999986e+01,4.527971151204893824e-02
2.287999999999999901e+01,4.925828228391370550e-02
2.292000000000000171e+01,5.934873468459611612e-02
2.296000000000000085e+01,2.604197738679586357e-02
2.300000000000000000e+01,5.355158797612608740e-02
2.303999999999999915e+01,5.019406496627659697e-02
2.307999999999999829e+01,5.631014736870774279e-02
2.312000000000000099e+01,6.364831901167314343e-02
2.316000000000000014e+01,4.714842199338516865e-02
2.319999999999999929e+01,2.300787356761050881e-02
2.323999999999999844e+01,3.706842276654932072e-02
2.328000000000000114e+01,3.340313323870473111e-02
2.332000000000000028e+01,4.899101564952902665e-02
2.335999999999999943e+01,5.418773707995126060e-02
2.339999999999999858e+01,2.637803297073617464e-02
2.344000000000000128e+01,4.716021748889669823e-02
2.348000000000000043e+01,4.746605256672271206e-02
2.351999999999999957e+01,5.357814049600456707e-02
2.355999999999999872e+01,4.777100340260877209e-02
2.360000000000000142e+01,3.860176684482926474e-02
2.364000000000000057e+01,4.043417806951826038e-02
2.367999999999999972e+01,4.532233257274798782e-02
2.371999999999999886e+01,5.112694753915003609e-02
2.376000000000000156e+01,5.968169183500139641e-02
2.380000000000000071e+01,4.134223254123181590e-02
2.383999999999999986e+01,4.042226035094691888e-02
2.387999999999999901e+01,4.622536574984890262e-02
2.392000000000000171e+01,5.080564423400958651e-02
2.396000000000000085e+01,5.171820132024181060e-02
2.400000000000000000e+01,6.821657094050065373e-02
2.403999999999999915e+01,1.809121331086263260e-02
2.407999999999999829e+01,2.939341610681592276e-02
2.412000000000000099e+01,2.633148456863388179e-02
2.416000000000000014e+01,3.549363265592546390e-02
2.419999999999999929e+01,4.832273252912527156e-02
2.423999999999999844e+01,6.756928805796735826e-02
2.428000000000000114e+01,5.992162630955409630e-02
2.432000000000000028e+01,3.393687284217875022e-02
2.435999999999999943e+01,5.104297174680642174e-02
2.439999999999999858e+01,5.134003499029427681e-02
2.444000000000000128e+01,5.377598483677863833e-02
2.448000000000000043e+01,6.232377182726905190e-02
2.451999999999999957e+01,3.450337299430077109e-02
2.455999999999999872e+01,4.305036413813858459e-02
2.460000000000000142e+01,3.050975056819080905e-02
2.464000000000000057e+01,3.875032963501219563e-02
2.467999999999999972e+01,3.904460342298897435e-02
2.471999999999999886e+01,2.375227909601198423e-02
2.476000000000000156e+01,4.268805736792760652e-02
2.480000000000000071e+01,2.372758349283680263e-02
2.483999999999999986e+01,4.388499662046893568e-02
2.487999999999999901e+01,6.220833212245348992e-02
2.492000000000000171e+01,6.922362715576831083e-02
2.496000000000000085e+01,4.262122882899647969e-02
2.500000000000000000e+01,3.007655618125222585e-02
2.503999999999999915e+01,3.097838473626138289e-02
2.507999999999999829e+01,5.846801506960079553e-02
2.512000000000000099e+01,5.539606415849807064e-02
2.516000000000000014e+01,2.634670587960078955e-02
2.519999999999999929e+01,7.247740114033209002e-02
2.523999999999999844e+01,5.320678160335685913e-02
2.528000000000000114e+01,6.327446315190125847e-02
2.532000000000000028e+01,4.705912110228727824e-02
2.535999999999999943e+01,3.756681443832127210e-02
2.539999999999999858e+01,4.060416370792618163e-02
2.544000000000000128e+01,1.491359261491303177e-02
2.548000000000000043e+01,2.467355026061667997e-02
2.551999999999999957e+01,3.810042205123458092e-02
2.555999999999999872e+01,2.799476841024722135e-02
2.560000000000000142e+01,4.631057172623312401e-02
2.564000000000000057e+01,6.432033408357878956e-02
2.567999999999999972e+01,4.168331418955148471e-02
2.571999999999999886e+01,4.104990280639192468e-02
2.576000000000000156e+01,2.727475699428924191e-02
2.580000000000000071e+01,2.450119737030109074e-02
2.583999999999999986e+01,3.945267948580746808e-02
2.587999999999999901e+01,3.178846204807589393e-02
2.592000000000000171e+01,5.315691577786601368e-02
2.596000000000000085e+01,4.121325929948382871e-02
2.600000000000000000e+01,2.926916326455456657e-02
2.603999999999999915e+01,5.858220168799493227e-02
2.607999999999999829e+01,3.105102805929843904e-02
2.612000000000000099e+01,1.146531481543769729e-02
2.616000000000000014e+01,2.427399424128978342e-02
2.619999999999999929e+01,5.022353012362695823e-02
2.623999999999999844e+01,3.308137444313332537e-02
2.628000000000000114e+01,5.261217135990883115e-02
2.632000000000000028e+01,5.197214951899940816e-02
2.635999999999999943e+01,2.871641443721777154e-02
2.639999999999999858e+01,3.693823017787500190e-02
2.644000000000000128e+01,2.865656375276571383e-02
2.648000000000000043e+01,2.495861910075892684e-02
2.651999999999999957e+01,3.470713344796664407e-02
2.655999999999999872e+01,3.467561889951531473e-02
2.660000000000000142e+01,2.700335598950120639e-02
2.664000000000000057e+01,3.950100534880933434e-02
2.667999999999999972e+01,4.833085574692825431e-02
2.671999999999999886e+01,2.629346760733843741e-02
2.676000000000000156e+01,8.228569920759903900e-03
2.680000000000000071e+01,4.364525173322001544e-02
2.683999999999999986e+01,4.208245822968476740e-02
2.687999999999999901e+01,3.287890838013355493e-02
2.692000000000000171e+01,7.171862677181572304e-03
2.696000000000000085e+01,1.110868182084852329e-02
2.700000000000000000e+01,6.793517860953086386e-03
2.703999999999999915e+01,9.506953047804515833e-03
2.707999999999999829e+01,2.383316125805052046e-02
2.712000000000000099e+01,2.746248960027418071e-02
2.716000000000000014e+01,2.253421860857191331e-02
2.719999999999999929e+01,3.563656224255266902e-02
2.723999999999999844e+01,5.057210096717802694e-02
2.728000000000000114e+01,2.486081181498295961e-02
2.732000000000000028e+01,4.344443818168158139e-03
2.735999999999999943e+01,9.804589247783287650e-03
2.739999999999999858e+01,3.482340193899517017e-02
2.744000000000000128e+01,2.469639221158237419e-02
2.748000000000000043e+01,2.465408576210777192e-02
2.751999999999999957e+01,1.513733470952460629e-02
2.755999999999999872e+01,5.787969481261698301e-02
2.760000000000000142e+01,3.522067282046766057e-02
2.764000000000000057e+01,2.845297123227094951e-02
2.767999999999999972e+01,2.474089885899636090e-02
2.771999999999999886e+01,2.927985291292936262e-02
2.776000000000000156e+01,3.259587055104739423e-02
2.780000000000000071e+01,4.324607733164371332e-02
2.783999999999999986e+01,2.180656696544260725e-02
2.787999999999999901e+01,2.970528354340903551e-02
2.792000000000000171e+01,4.677185584885903274e-02
2.796000000000000085e+01,2.624769756486245581e-02
2.800000000000000000e+01,3.506176280312515992e-02
2.803999999999999915e+01,3.898554362729234057e-02
2.807999999999999829e+01,2.304406717360171428e-02
2.812000000000000099e+01,3.858009249499383397e-02
2.816000000000000014e+01,5.523361482277976305e-03
2.819999999999999929e+01,2.105838336123152729e-02
2.823999999999999844e+01,1.917303674233362260e-02
2.828000000000000114e+01,2.553870058173664942e-02
2.832000000000000028e+01,3.557119872152057077e-02
2.835999999999999943e+01,3.735167497611198428e-02
2.839999999999999858e+01,2.232300150594490953e-02
2.844000000000000128e+01,4.549527737778697595e-02
2.848000000000000043e+01,2.618702114680997173e-02
2.851999999999999957e+01,3.254963359599469946e-02
2.855999999999999872e+01,4.288468516956220333e-02
2.860000000000000142e+01,1.265239516015531336e-03
2.864000000000000057e+01,3.207524429701532481e-02
2.867999999999999972e+01,4.332558635843318517e-02
2.871999999999999886e+01,2.156935117560100298e-02
2.876000000000000156e+01,3.434671619586183305e-02
2.880000000000000071e+01,4.712356181504228497e-02
2.883999999999999986e+01,0.000000000000000000e+00
2.887999999999999901e+01,4.394819351264076662e-02
2.892000000000000171e+01,1.088172391192706277e-02
2.896000000000000085e+01,3.649217056881944032e-02
2.900000000000000000e+01,2.420624531190578368e-02
2.903999999999999915e+01,2.964527054359163485e-02
2.907999999999999829e+01,2.560980668735781882e-02
2.912000000000000099e+01,7.210065917465542651e-03
2.916000000000000014e+01,1.509239891319376879e-02
2.919999999999999929e+01,1.197218105999920193e-02
2.923999999999999844e+01,2.566007298876657808e-02
2.928000000000000114e+01,3.140152846552787813e-02
2.932000000000000028e+01,9.637399609236547982e-03
2.935999999999999943e+01,1.507217381884162939e-02
2.939999999999999858e+01,3.700944158004497442e-02
2.944000000000000128e+01,2.349521822299532187e-02
2.948000000000000043e+01,2.709470947190949219e-02
2.951999999999999957e+01,3.799834020227999161e-03
2.955999999999999872e+01,1.075997260945103264e-02
2.960000000000000142e+01,2.260935566997275548e-02
2.964000000000000057e+01,1.917761198510885973e-02
2.967999999999999972e+01,1.819021714772002529e-02
2.971999999999999886e+01,2.820429671609944733e-02
2.976000000000000156e+01,2.568775112755502729e-02
2.980000000000000071e+01,1.583597759437189306e-02
2.983999999999999986e+01,1.301272336340273707e-02
2.987999999999999901e+01,3.066490067804347047e-02
2.992000000000000171e+01,1.867219487535636685e-02
2.996000000000000085e+01,3.204470502210941124e-02
3.000000000000000000e+01,4.755594322342918123e-02
3.003999999999999915e+01,5.420388829719851448e-02
3.007999999999999829e+01,5.198853910278135315e-02
3.012000000000000099e+01,5.771853622958153518e-02
3.016000000000000014e+01,3.410925506305576699e-02
3.019999999999999929e+01,1.630603626174273110e-02
3.023999999999999844e+01,1.286600538393562268e-02
3.028000000000000114e+01,3.845852134430607222e-02
3.032000000000000028e+01,5.793824120304300052e-02
3.035999999999999943e+01,3.829910369506800416e-02
3.039999999999999858e+01,4.096905291134583793e-02
3.044000000000000128e+01,3.202519258334127900e-02
3.048000000000000043e+01,6.097661175708182085e-02
3.051999999999999957e+01,3.552858561061991716e-02
3.055999999999999872e+01,4.002993332133908400e-02
3.060000000000000142e+01,3.505674859996346648e-02
3.064000000000000057e+01,6.645078047869348858e-02
3.067999999999999972e+01,6.239328587944894394e-02
3.071999999999999886e+01,7.361580051953289794e-02
3.076000000000000156e+01,3.563426134851887389e-02
3.080000000000000071e+01,5.021735260946819102e-02
3.083999999999999986e+01,6.999526464981328799e-02
3.087999999999999901e+01,4.668135281353012755e-02
3.092000000000000171e+01,5.759536791816699530e-02
3.096000000000000085e+01,4.467109193749453644e-02
3.100000000000000000e+01,7.636553732231284031e-02
3.103999999999999915e+01,6.313448426104455169e-02
3.107999999999999829e+01,5.295896346062269056e-02
3.112000000000000099e+01,6.417567384954564469e-02
3.116000000000000014e+01,6.530661250182939748e-02
3.119999999999999929e+01,7.774459502416157519e-02
3.123999999999999844e+01,9.690544525862221370e-02
3.128000000000000114e+01,9.620094696433006964e-02
3.132000000000000028e+01,9.366218740196458059e-02
3.135999999999999943e+01,1.421599839635611096e-01
3.139999999999999858e+01,1.390088151213295375e-01
3.144000000000000128e+01,1.425805082880454711e-01
3.148000000000000043e+01,1.678500340461995533e-01
3.151999999999999957e+01,1.854786711445400027e-01
3.155999999999999872e+01,2.248051385530462909e-01
3.160000000000000142e+01,2.622973367090257746e-01
3.164000000000000057e+01,2.738119427141486040e-01
3.167999999999999972e+01,3.226105706662929506e-01
3.171999999999999886e+01,3.484877208644972524e-01
3.176000000000000156e+01,3.706969272407167892e-01
3.180000000000000071e+01,3.709014885851805166e-01
3.183999999999999986e+01,3.732447255149465293e-01
3.187999999999999901e+01,3.655021701766217879e-01
3.192000000000000171e+01,3.268922280178843676e-01
3.196000000000000085e+01,3.796595650256625598e-01
3.200000000000000000e+01,3.517448110772731229e-01
3.203999999999999915e+01,3.143554836338862679e-01
3.207999999999999829e+01,3.124164967242457625e-01
3.211999999999999744e+01,2.698305439208065204e-01
3.215999999999999659e+01,2.590275893560142206e-01
3.220000000000000284e+01,2.445566784222389378e-01
3.224000000000000199e+01,2.163326249408206448e-01
3.228000000000000114e+01,1.587692327123583769e-01
3.232000000000000028e+01,1.522423692325899358e-01
3.235999999999999943e+01,1.230996214165212960e-01
3.239999999999999858e+01,1.275735350021960091e-01
3.243999999999999773e+01,1.335748837279921997e-01
3.247999999999999687e+01,1.038190429793665742e-01
3.252000000000000313e+01,1.089023068818513601e-01
3.256000000000000227e+01,8.342377738156331324e-02
3.260000000000000142e+01,6.680735848650594388e-02
3.264000000000000057e+01,5.538570904221605529e-02
3.267999999999999972e+01,6.963480965192456185e-02
3.271999999999999886e+01,5.148844228940203938e-02
3.275999999999999801e+01,5.381742434668398273e-02
3.279999999999999716e+01,4.911670457943240198e-02
3.284000000000000341e+01,7.803263366692592129e-02
3.288000000000000256e+01,6.171740017124953404e-02
3.292000000000000171e+01,8.176931825941634313e-02
3.296000000000000085e+01,5.842374149005417905e-02
3.300000000000000000e+01,9.956158746260269921e-02
3.303999999999999915e+01,1.507839781646593547e-01
3.307999999999999829e+01,7.120393359106989839e-02
3.311999999999999744e+01,7.230472673188492738e-02
3.315999999999999659e+01,6.331969110425134106e-02
3.320000000000000284e+01,6.564164231485693224e-02
3.324000000000000199e+01,4.809818910553651655e-02
3.328000000000000114e+01,3.972243877845033772e-02
3.332000000000000028e+01,5.487813858045129112e-02
3.335999999999999943e+01,3.366540047839639699e-02
3.339999999999999858e+01,6.257232532440144823e-02
3.343999999999999773e+01,4.869296496088121318e-02
3.347999999999999687e+01,7.698736190085682385e-02
3.352000000000000313e+01,6.341230635349151545e-02
3.356000000000000227e+01,6.633962573156107490e-02
3.360000000000000142e+01,9.127032891516975721e-02
3.364000000000000057e+01,8.411114955973417184e-02
3.367999999999999972e+01,7.542325330650923032e-02
3.371999999999999886e+01,7.040203736778011256e-02
3.375999999999999801e+01,8.066074398002941181e-02
3.379999999999999716e+01,9.855908030714809198e-02
3.384000000000000341e+01,8.100580004603344375e-02
3.388000000000000256e+01,8.178855559217773630e-02
3.392000000000000171e+01,9.357266577729088375e-02
3.396000000000000085e+01,1.096346727687206868e-01
3.400000000000000000e+01,1.263072354120038654e-01
3.403999999999999915e+01,1.515362559297961653e-01
3.407999999999999829e+01,1.495651680466486833e-01
3.411999999999999744e+01,1.702086724764077241e-01
3.415999999999999659e+01,1.807663196218136092e-01
3.420000000000000284e+01,2.090487701137510868e-01
3.424000000000000199e+01,2.107423309778418963e-01
3.428000000000000114e+01,2.124352161736950684e-01
3.432000000000000028e+01,2.566074463875030465e-01
3.435999999999999943e+01,2.326275967281838664e-01
3.439999999999999858e+01,2.627403331826657640e-01
3.443999999999999773e+01,2.586238826106472821e-01
3.447999999999999687e+01,2.593965373523127727e-01
3.452000000000000313e+01,2.601685095819235016e-01
3.456000000000000227e+01,2.487153314460868736e-01
3.460000000000000142e+01,2.424568668698445784e-01
3.464000000000000057e+01,2.410875030447416634e-01
3.467999999999999972e+01,1.978486536538484331e-01
3.471999999999999886e+01,1.891432345112563640e-01
3.475999999999999801e+01,1.825764076875248942e-01
3.479999999999999716e+01,1.757032786994665308e-01
3.484000000000000341e+01,1.278774945865297774e-01
3.488000000000000256e+01,1.323106128928463743e-01
3.492000000000000171e+01,1.232961238967144046e-01
3.496000000000000085e+01,1.310895815715697188e-01
3.500000000000000000e+01,1.125997396143096491e-01
3.503999999999999915e+01,1.115290653824023703e-01
3.507999999999999829e+01,1.009837309671475086e-01
3.511999999999999744e+01,1.164146886949026238e-01
3.515999999999999659e+01,1.049511188923598209e-01
3.520000000000000284e+01,1.069337605709791833e-01
3.524000000000000199e+01,1.104437575451870518e-01
3.528000000000000114e+01,1.047847003006852906e-01
3.532000000000000028e+01,9.606882105321599974e-02
3.535999999999999943e+01,1.069113820807423010e-01
3.539999999999999858e+01,1.165307888309422696e-01
3.543999999999999773e+01,1.227877584884470991e-01
3.547999999999999687e+01,1.354618632828258340e-01
3.552000000000000313e+01,1.325490619904807488e-01
3.556000000000000227e+01,1.635584436574392120e-01
3.560000000000000142e+01,1.820370336345906170e-01
3.564000000000000057e+01,1.876792191134797338e-01
3.567999999999999972e+01,2.092124957284481612e-01
3.571999999999999886e+01,2.353292306295599878e-01
3.575999999999999801e+01,2.727528793681949781e-01
3.579999999999999716e+01,2.631116122503048271e-01
3.584000000000000341e+01,3.286500952628182426e-01
3.588000000000000256e+01,3.679052535492199905e-01
3.592000000000000171e+01,4.163280394358679914e-01
3.596000000000000085e+01,4.797250734706852149e-01
3.600000000000000000e+01,5.067535943194582115e-01
3.603999999999999915e+01,5.594527694087900738e-01
3.607999999999999829e+01,6.390450442693200728e-01
3.611999999999999744e+01,6.138117889304612884e-01
3.615999999999999659e+01,6.668143912751054447e-01
3.620000000000000284e+01,6.984234464536513975e-01
3.624000000000000199e+01,6.808282915539419777e-01
3.628000000000000114e+01,6.665941323001932650e-01
3.632000000000000028e+01,6.700847159392585572e-01
3.635999999999999943e+01,6.396516694691053440e-01
3.639999999999999858e+01,5.817128367732947725e-01
3.643999999999999773e+01,5.812282603648476487e-01
3.647999999999999687e+01,4.994502419133423632e-01
3.652000000000000313e+01,4.635132340908096893e-01
3.656000000000000227e+01,4.327708839366982696e-01
3.660000000000000142e+01,3.775788585319376223e-01
3.664000000000000057e+01,3.593651019674927172e-01
3.667999999999999972e+01,3.509301746668440081e-01
3.671999999999999886e+01,2.862619552404707668e-01
3.675999999999999801e+01,2.573495545612289881e-01
3.679999999999999716e+01,2.336318047065913395e-01
3.684000000000000341e+01,1.836307027505738043e-01
3.688000000000000256e+01,2.017802529085838681e-01
3.692000000000000171e+01,1.976194003655874498e-01
3.696000000000000085e+01,1.610629589429243003e-01
3.700000000000000000e+01,1.297011626416844365e-01
3.703999999999999915e+01,1.325671187640281579e-01
3.707999999999999829e+01,1.284032510137663452e-01
3.711999999999999744e+01,9.551112983511998722e-02
3.715999999999999659e+01,1.127385643847320928e-01
3.720000000000000284e+01,1.006265198890494844e-01
3.724000000000000199e+01,1.065448037193673092e-01
3.728000000000000114e+01,9.351440292896108508e-02
3.732000000000000028e+01,7.956640477851030513e-02
3.735999999999999943e+01,7.356354649412731594e-02
3.739999999999999858e+01,7.642266193863260504e-02
3.743999999999999773e+01,5.666574818604224600e-02
3.747999999999999687e+01,5.738404925818635371e-02
3.752000000000000313e+01,7.552144733623974981e-02
3.756000000000000227e+01,4.720510270541369846e-02
3.760000000000000142e+01,5.128282452235125022e-02
3.764000000000000057e+01,7.216841658765166256e-02
3.767999999999999972e+01,5.913034090273952548e-02
3.771999999999999886e+01,4.181292810541297617e-02
3.775999999999999801e+01,6.391864555314022422e-02
3.779999999999999716e+01,5.790731351730561693e-02
3.784000000000000341e+01,4.608858260805360346e-02
3.788000000000000256e+01,4.771598675733919326e-02
3.792000000000000171e+01,5.667729146814828173e-02
3.796000000000000085e+01,6.044241721926906646e-02
3.800000000000000000e+01,4.098027446874957791e-02
3.803999999999999915e+01,5.605146729372810499e-02
3.807999999999999829e+01,3.750459262995103210e-02
3.811999999999999744e+01,4.279464288673756611e-02
3.815999999999999659e+01,5.725225686814387760e-02
3.820000000000000284e+01,5.459483000110722239e-02
3.824000000000000199e+01,5.224222621066947070e-02
3.828000000000000114e+01,4.805516268146201031e-02
3.832000000000000028e+01,5.089637663959718089e-02
3.835999999999999943e+01,5.251435191332806673e-02
3.839999999999999858e+01,5.993815572185353518e-02
3.843999999999999773e+01,6.308260188651326761e-02
3.847999999999999687e+01,6.378135927358452584e-02
3.852000000000000313e+01,5.286607670786384883e-02
3.856000000000000227e+01,6.425964817661418416e-02
3.860000000000000142e+01,7.167946910677300276e-02
3.864000000000000057e+01,9.499029676593326310e-02
3.867999999999999972e+01,8.926721484407891538e-02
3.871999999999999886e+01,1.113539924148912591e-01
3.875999999999999801e+01,1.273277332098348702e-01
3.879999999999999716e+01,1.601093111746920983e-01
3.884000000000000341e+01,1.993079284629835357e-01
3.888000000000000256e+01,2.320878938856788254e-01
3.892000000000000171e+01,2.718961196861739427e-01
3.896000000000000085e+01,2.851153212637523859e-01
3.900000000000000000e+01,3.075020626125906098e-01
3.903999999999999915e+01,2.929089807513967081e-01
3.907999999999999829e+01,2.718972413214258421e-01
3.911999999999999744e+01,2.539408048844278842e-01
3.915999999999999659e+01,2.301769319330184138e-01
3.920000000000000284e+01,1.761566879010481590e-01
3.924000000000000199e+01,1.621707552462306468e-01
3.928000000000000114e+01,1.234294592503204502e-01
3.932000000000000028e+01,1.085250539558881983e-01
3.935999999999999943e+01,8.720198310822568910e-02
3.939999999999999858e+01,7.810255730365021909e-02
3.943999999999999773e+01,5.188805529090999985e-02
3.947999999999999687e+01,5.990123612294613598e-02
3.952000000000000313e+01,7.555388355887708574e-02
3.956000000000000227e+01,5.850525630597035176e-02
3.960000000000000142e+01,5.612516173552102583e-02
3.964000000000000057e+01,4.579833528829344025e-02
3.967999999999999972e+01,5.686349593426692772e-02
3.971999999999999886e+01,4.378450402778746864e-02
3.975999999999999801e+01,5.943217696089068969e-02
3.979999999999999716e+01,3.565511166932298220e-02
3.984000000000000341e+01,2.440729054166327142e-02
3.988000000000000256e+01,2.324381909472386307e-02
3.992000000000000171e+01,1.810655946819881776e-02
3.996000000000000085e+01,4.444646398844563639e-02
4.000000000000000000e+01,3.472335292684871483e-02
4.003999999999999915e+01,2.897235362704926945e-02
4.007999999999999829e+01,3.391692164042701962e-02
4.011999999999999744e+01,1.991272404791162923e-02
4.015999999999999659e+01,3.921935490590057471e-02
4.020000000000000284e+01,2.246296447886484901e-02
4.024000000000000199e+01,3.748934188196653694e-02
4.028000000000000114e+01,2.776032742807092724e-02
4.032000000000000028e+01,4.675796184485127988e-02
4.035999999999999943e+01,3.091501708533788209e-02
4.039999999999999858e+01,3.493598054847964207e-02
4.043999999999999773e+01,2.917651931520594613e-02
4.047999999999999687e+01,4.786513904059878227e-02
4.052000000000000313e+01,3.874224338698807613e-02
4.056000000000000227e+01,3.114655132435302162e-02
4.060000000000000142e+01,4.219231510991661160e-02
4.064000000000000057e+01,3.428929846131652942e-02
4.067999999999999972e+01,3.188643366342945595e-02
4.071999999999999886e+01,2.673220454450867326e-02
4.075999999999999801e+01,2.127150330646920828e-02
4.079999999999999716e+01,2.467267884324221214e-02
4.084000000000000341e+01,2.685054497616750149e-02
4.088000000000000256e+01,3.116682891061686722e-02
4.092000000000000171e+01,1.195014940916546038e-02
4.096000000000000085e+01,3.796313059043245758e-02
4.100000000000000000e+01,2.485695099576181941e-02
4.103999999999999915e+01,2.580803968500812104e-02
4.107999999999999829e+01,3.225926881860556594e-02
4.111999999999999744e+01,3.045811220406696024e-02
4.115999999999999659e+01,2.284946204330746966e-02
4.120000000000000284e+01,3.235419228210923565e-02
4.124000000000000199e+01,3.819070836815013220e-02
4.128000000000000114e+01,3.974778582515606923e-02
4.132000000000000028e+01,4.099837519413673109e-02
4.135999999999999943e+01,4.194247533445598364e-02
4.139999999999999858e+01,2.943878338926439117e-02
4.143999999999999773e+01,5.727495175405421940e-02
4.147999999999999687e+01,5.057612067255606858e-02
4.152000000000000313e+01,1.851063903870080879e-02
4.156000000000000227e+01,1.883911092962687120e-02
4.160000000000000142e+01,3.811462182066566867e-02
4.164000000000000057e+01,5.463874215603849865e-02
4.167999999999999972e+01,4.090642069140711101e-02
4.171999999999999886e+01,4.275940645897193665e-02
4.175999999999999801e+01,4.644517326624583720e-02
4.179999999999999716e+01,5.899278833242762449e-02
4.184000000000000341e+01,3.578294701531998384e-02
4.188000000000000256e+01,2.112934000802901488e-02
4.192000000000000171e+01,5.476148298637677908e-02
4.196000000000000085e+01,3.735558276858113452e-02
4.200000000000000000e+01,3.645181680198506663e-02
4.203999999999999915e+01,4.013132890101512446e-02
4.207999999999999829e+01,5.236706960668079114e-02
4.211999999999999744e+01,6.796363942542434089e-02
4.215999999999999659e+01,5.788792877381317842e-02
4.220000000000000284e+01,3.803174323779439508e-02
4.224000000000000199e+01,7.012863857615189711e-02
4.228000000000000114e+01,6.280072497039508594e-02
4.232000000000000028e+01,7.075248981947276916e-02
4.235999999999999943e+01,5.425441516629044697e-02
4.239999999999999858e+01,7.901300845127773309e-02
4.243999999999999773e+01,5.884577820886558591e-02
4.247999999999999687e+01,7.932399028771282279e-02
4.252000000000000313e+01,8.574315500759820130e-02
4.256000000000000227e+01,8.910529126936642119e-02
4.260000000000000142e+01,8.971600960020015281e-02
4.264000000000000057e+01,1.141635239597084267e-01
4.267999999999999972e+01,1.059096746607565975e-01
4.271999999999999886e+01,1.324946391506877930e-01
4.275999999999999801e+01,1.395195394170996028e-01
4.279999999999999716e+01,1.838281445336734932e-01
4.284000000000000341e+01,2.177450331800228345e-01
4.288000000000000256e+01,2.525778359248113114e-01
4.292000000000000171e+01,3.121642617172779022e-01
4.296000000000000085e+01,4.148410094859210639e-01
4.300000000000000000e+01,5.233234546161973366e-01
4.303999999999999915e+01,6.379172076352895848e-01
4.307999999999999829e+01,7.952956675408309195e-01
4.311999999999999744e+01,9.059146145212437773e-01
4.315999999999999659e+01,9.798592324739165971e-01
4.320000000000000284e+01,9.896244701545110489e-01
4.324000000000000199e+01,1.000000000000000000e+00
4.328000000000000114e+01,9.345829039150193029e-01
4.332000000000000028e+01,8.224062892017298676e-01
4.335999999999999943e+01,6.983098848508508816e-01
4.339999999999999858e+01,5.745181564345025471e-01
4.343999999999999773e+01,4.623387345213489374e-01
4.347999999999999687e+01,3.632996763098480519e-01
4.352000000000000313e+01,3.027667490883333423e-01
4.356000000000000227e+01,2.410104348997103574e-01
4.360000000000000142e+01,2.079806760495960249e-01
4.364000000000000057e+01,1.721994696120064117e-01
4.367999999999999972e+01,1.419183294774159221e-01
4.371999999999999886e+01,1.223326528581098055e-01
4.375999999999999801e+01,1.030516419076088902e-01
4.379999999999999716e+01,8.774263549910402138e-02
4.384000000000000341e+01,8.129541917706147036e-02
4.388000000000000256e+01,7.515286510191557245e-02
4.392000000000000171e+01,8.917973054125948040e-02
4.396000000000000085e+01,6.164245745503671436e-02
4.400000000000000000e+01,5.733071828022048150e-02
4.403999999999999915e+01,6.340882182778029286e-02
4.407999999999999829e+01,7.376453360070163445e-02
4.411999999999999744e+01,4.377854895678735120e-02
4.415999999999999659e+01,5.902213374469637841e-02
4.420000000000000284e+01,4.951021489326189878e-02
4.424000000000000199e+01,4.152539469427399266e-02
4.428000000000000114e+01,2.926105031853723157e-02
4.432000000000000028e+01,3.441560904055818854e-02
4.435999999999999943e+01,4.659827301385766757e-02
4.439999999999999858e+01,3.524787431590822168e-02
4.443999999999999773e+01,2.359089856031101537e-02
4.447999999999999687e+01,3.607627803194284749e-02
4.452000000000000313e+01,3.358571810934676133e-02
4.456000000000000227e+01,2.864929603246202730e-02
4.460000000000000142e+01,2.523996234229813895e-02
4.464000000000000057e+01,4.169441596735386224e-02
4.467999999999999972e+01,2.636428390559675608e-02
4.471999999999999886e+01,4.006628691235415013e-02
4.475999999999999801e+01,3.787550867760978296e-02
4.479999999999999716e+01,2.804346309183811461e-02
4.484000000000000341e+01,3.807519911810499508e-02
4.488000000000000256e+01,4.382739385808023802e-02
4.492000000000000171e+01,4.866177451713563085e-02
4.496000000000000085e+01,4.218754324879211287e-02
4.500000000000000000e+01,2.440469891241328626e-02
4.503999999999999915e+01,2.312390213888414897e-02
4.507999999999999829e+01,2.887119008518217525e-02
4.511999999999999744e+01,1.353028817133121627e-02
4.515999999999999659e+01,3.730669381702078624e-02
4.520000000000000284e+01,2.288065392343004850e-02
4.524000000000000199e+01,1.639952919057851427e-02
4.528000000000000114e+01,4.170102856770492583e-02
4.532000000000000028e+01,2.299345729508317157e-02
4.535999999999999943e+01,3.056749783042669172e-02
4.539999999999999858e+01,3.080586557301906447e-02
4.543999999999999773e+01,5.182483282156389454e-02
4.547999999999999687e+01,1.049802478868109602e-02
4.552000000000000313e+01,3.854406916368535718e-02
4.556000000000000227e+01,3.908406610734549425e-02
4.560000000000000142e+01,2.067514117795494002e-02
4.564000000000000057e+01,3.649372343536799734e-02
4.567999999999999972e+01,4.069806156611184556e-02
4.571999999999999886e+01,2.717592107317207822e-02
4.575999999999999801e+01,1.701450589541727426e-02
4.579999999999999716e+01,4.413671002011054084e-02
4.584000000000000341e+01,2.816666367024188433e-02
4.588000000000000256e+01,2.442007758039826948e-02
4.592000000000000171e+01,2.892399892829747646e-02
4.596000000000000085e+01,3.434374654564948531e-02
4.600000000000000000e+01,2.356506589395914938e-02
4.603999999999999915e+01,3.570624931341079972e-02
4.607999999999999829e+01,2.431432215489391646e-02
4.611999999999999744e+01,2.117289673093895527e-02
4.615999999999999659e+01,2.322585522272060249e-02
4.620000000000000284e+01,1.519261309865717162e-02
4.624000000000000199e+01,5.238888109333538629e-02
4.628000000000000114e+01,3.426841935369728115e-02
4.632000000000000028e+01,3.478925035128323934e-02
4.635999999999999943e+01,4.386618790743287283e-02
4.639999999999999858e+01,2.054726739377600239e-02
4.643999999999999773e+01,3.940173461749069822e-02
4.647999999999999687e+01,4.022408987761534604e-02
4.652000000000000313e+01,4.410153711301859070e-02
4.656000000000000227e+01,4.339378348759143772e-02
4.660000000000000142e+01,3.351665284341407564e-02
4.664000000000000057e+01,3.127878576989043258e-02
4.667999999999999972e+01,3.179039444128176767e-02
4.671999999999999886e+01,4.208054607678679560e-02
4.675999999999999801e+01,2.058605271239735343e-02
4.679999999999999716e+01,5.012767518640239006e-02
4.684000000000000341e+01,4.971832038615409122e-02
4.688000000000000256e+01,3.952835724706443149e-02
4.692000000000000171e+01,4.522916472528580589e-02
4.696000000000000085e+01,4.665037160413383621e-02
4.700000000000000000e+01,6.701846349720967655e-02
4.703999999999999915e+01,4.796161071046498720e-02
4.707999999999999829e+01,3.929451395774615635e-02
4.711999999999999744e+01,6.638294052738671902e-02
4.715999999999999659e+01,6.413160403332220094e-02
4.720000000000000284e+01,7.074196181228052660e-02
4.724000000000000199e+01,7.154465266831770698e-02
4.728000000000000114e+01,5.400959708022205069e-02
4.732000000000000028e+01,5.389335904217018580e-02
4.735999999999999943e+01,4.919189733056423403e-02
4.739999999999999858e+01,4.785111416805967050e-02
4.743999999999999773e+01,5.781691177731206055e-02
4.747999999999999687e+01,5.708524893472357448e-02
4.752000000000000313e+01,5.299080452731195351e-02
4.756000000000000227e+01,6.967689917213489015e-02
4.760000000000000142e+01,8.452826830995691099e-02
4.764000000000000057e+01,7.279036570680984253e-02
4.767999999999999972e+01,5.738406530847593723e-02
4.771999999999999886e+01,6.581441607802110405e-02
4.775999999999999801e+01,6.843708509637454196e-02
4.779999999999999716e+01,6.219595454471124607e-02
4.784000000000000341e+01,6.023232499860804029e-02
4.788000000000000256e+01,5.979569030705849525e-02
4.792000000000000171e+01,5.018964095576460005e-02
4.796000000000000085e+01,5.402943922268958060e-02
4.800000000000000000e+01,5.664572391188958667e-02
4.803999999999999915e+01,5.864971721836620411e-02
4.807999999999999829e+01,6.279192301185336500e-02
4.811999999999999744e+01,6.876672848389610293e-02
4.815999999999999659e+01,4.570735404414810049e-02
4.820000000000000284e+01,3.609382037880188437e-02
4.824000000000000199e+01,5.276181639561557807e-02
4.828000000000000114e+01,5.506498913403769235e-02
4.832000000000000028e+01,3.841916243614845045e-02
4.835999999999999943e+01,5.844565870435348975e-02
4.839999999999999858e+01,4.363134652839143618e-02
4.843999999999999773e+01,5.570978166704608492e-02
4.847999999999999687e+01,4.669993113211223096e-02
4.852000000000000313e+01,5.174713558212855335e-02
4.856000000000000227e+01,4.915296546131610322e-02
4.860000000000000142e+01,3.677813795430624061e-02
4.864000000000000057e+01,4.243331369198382469e-02
4.867999999999999972e+01,3.891905309782946187e-02
4.871999999999999886e+01,4.090471508651485205e-02
4.875999999999999801e+01,3.708266680810397287e-02
4.879999999999999716e+01,5.556918056130052269e-02
4.884000000000000341e+01,4.135415499806423256e-02
4.888000000000000256e+01,3.783444580804436186e-02
4.892000000000000171e+01,3.247997347002937185e-02
4.896000000000000085e+01,3.476469854576932222e-02
4.900000000000000000e+01,3.338098818532828777e-02
4.903999999999999915e+01,2.221660789169188285e-02
4.907999999999999829e+01,4.558524835796602670e-02
4.911999999999999744e+01,4.725436156483488193e-02
4.915999999999999659e+01,3.761474307750522356e-02
4.920000000000000284e+01,2.491790678645150470e-02
4.924000000000000199e+01,3.422400831218824074e-02
4.928000000000000114e+01,1.632956799523452643e-02
4.932000000000000028e+01,5.222167666696569260e-02
4.935999999999999943e+01,4.991122117325324375e-02
4.939999999999999858e+01,2.987418211732797285e-02
4.943999999999999773e+01,3.000640516809886457e-02
4.947999999999999687e+01,1.546815905357364594e-02
4.952000000000000313e+01,3.179558113813410469e-02
4.956000000000000227e+01,3.253569677266941740e-02
4.960000000000000142e+01,3.388592321094571758e-02
4.964000000000000057e+01,3.217891929849991950e-02
4.967999999999999972e+01,2.069122720267970242e-02
4.971999999999999886e+01,3.090084756819688402e-02
4.975999999999999801e+01,3.897006916454007208e-02
4.979999999999999716e+01,2.625657911411955620e-02
4.984000000000000341e+01,3.554600977094667796e-02
4.988000000000000256e+01,2.558078483883225937e-02
4.992000000000000171e+01,2.356034161302323834e-02
4.996000000000000085e+01,2.917906728506454092e-02
5.000000000000000000e+01,2.471148398082301939e-02
5.003999999999999915e+01,1.840910559077318931e-02
5.007999999999999829e+01,3.624892273888625366e-02
5.011999999999999744e+01,3.575091245769743825e-02
5.015999999999999659e+01,4.778185205628057708e-02
5.020000000000000284e+01,2.741682522461946769e-02
5.024000000000000199e+01,3.761183439277369922e-02
5.028000000000000114e+01,3.741491493237292937e-02
5.032000000000000028e+01,3.905053241553753385e-02
5.035999999999999943e+01,4.679724905109598071e-02
5.039999999999999858e+01,3.712296527635588345e-02
5.043999999999999773e+01,5.067403177059635194e-02
5.047999999999999687e+01,3.213473551795819477e-02
5.052000000000000313e+01,2.887488388973655923e-02
5.056000000000000227e+01,3.294857238200347288e-02
5.060000000000000142e+01,3.702111982646889843e-02
5.064000000000000057e+01,4.751037010669380278e-02
5.067999999999999972e+01,2.438119359776459022e-02
5.071999999999999886e+01,4.311967111031626138e-02
5.075999999999999801e+01,2.121065119260647988e-02
5.079999999999999716e+01,2.283258294597047613e-02
5.084000000000000341e+01,2.017480345825111571e-02
5.088000000000000256e+01,2.729544830848213907e-02
5.092000000000000171e+01,4.144401134565717237e-02
5.096000000000000085e+01,3.572666466107585898e-02
5.100000000000000000e+01,1.717247547393683030e-02
5.103999999999999915e+01,2.948391114170843125e-02
5.107999999999999829e+01,2.956972536128783802e-02
5.111999999999999744e+01,3.760028706808703214e-02
5.115999999999999659e+01,2.851543836031918133e-02
5.120000000000000284e+01,2.309677150903388654e-02
5.124000000000000199e+01,3.326314041853273284e-02
5.128000000000000114e+01,2.111869713863437706e-02
5.132000000000000028e+01,1.661338397495592742e-02
5.135999999999999943e+01,3.502778317780694262e-02
5.139999999999999858e+01,2.807525009116303150e-02
5.143999999999999773e+01,3.090112537356291128e-02
5.147999999999999687e+01,3.769878619581116391e-02
5.152000000000000313e+01,3.777182304360951481e-02
5.156000000000000227e+01,2.317433141303018238e-02
5.160000000000000142e+01,4.830518703520329804e-02
5.164000000000000057e+01,3.981758849295376906e-02
5.167999999999999972e+01,3.621860479082835566e-02
5.171999999999999886e+01,3.536895311345850113e-02
5.175999999999999801e+01,4.490892401568073733e-02
5.179999999999999716e+01,2.205288286221131211e-02
5.184000000000000341e+01,2.547826873364509095e-02
5.188000000000000256e+01,4.082133210185691363e-02
5.192000000000000171e+01,4.852292508580036828e-02
5.196000000000000085e+01,3.421929815735037100e-02
5.200000000000000000e+01,2.633233528302961549e-02
5.203999999999999915e+01,2.425081198656393877e-02
5.207999999999999829e+01,3.225329047678200667e-02
5.211999999999999744e+01,4.331070125321268699e-02
5.215999999999999659e+01,3.236288641406895317e-02
5.220000000000000284e+01,3.394396328225169485e-02
5.224000000000000199e+01,4.835954238494368645e-02
5.228000000000000114e+01,4.688212580653097067e-02
5.232000000000000028e+01,2.126019737526672199e-02
5.235999999999999943e+01,4.300688622014015722e-02
5.239999999999999858e+01,2.410603086866852651e-02
5.243999999999999773e+01,2.598557541181679281e-02
5.247999999999999687e+01,3.947716867438153671e-02
5.252000000000000313e+01,3.371403106601648242e-02
5.256000000000000227e+01,3.345070653941719513e-02
5.260000000000000142e+01,4.021525229304211829e-02
5.264000000000000057e+01,3.261485043893128793e-02
5.267999999999999972e+01,3.479282159414243819e-02
5.271999999999999886e+01,4.185937793293684206e-02
5.275999999999999801e+01,4.281249827319751761e-02
5.279999999999999716e+01,3.245678312136685700e-02
5.284000000000000341e+01,4.043656311524291419e-02
5.288000000000000256e+01,3.344016532192819330e-02
5.292000000000000171e+01,3.377724035156716431e-02
5.296000000000000085e+01,3.991972872442899056e-02
5.300000000000000000e+01,4.544978427568037438e-02
5.303999999999999915e+01,3.814293915192869949e-02
5.307999999999999829e+01,3.755833895294796027e-02
5.311999999999999744e+01,4.125108919555085796e-02
5.315999999999999659e+01,3.149571200560431772e-02
5.320000000000000284e+01,2.601768297596898649e-02
5.324000000000000199e+01,3.490218600403267868e-02
5.328000000000000114e+01,4.714719990767851643e-02
5.332000000000000028e+01,4.288796513804105787e-02
5.335999999999999943e+01,4.382290896962667825e-02
5.339999999999999858e+01,3.803317521686182257e-02
5.343999999999999773e+01,4.813402615770975834e-02
5.347999999999999687e+01,3.714644884544582998e-02
5.352000000000000313e+01,4.082700727424667941e-02
5.356000000000000227e+01,3.931094189524677457e-02
5.360000000000000142e+01,2.404112486888045769e-02
5.364000000000000057e+01,4.636031524808859744e-02
5.367999999999999972e+01,4.606301333190952058e-02
5.371999999999999886e+01,4.515325806266871217e-02
5.375999999999999801e+01,6.319019504014024291e-02
5.379999999999999716e+01,5.738818962904027043e-02
5.384000000000000341e+01,5.525229079243476615e-02
5.388000000000000256e+01,6.136667240697109282e-02
5.392000000000000171e+01,6.075636160888647774e-02
5.396000000000000085e+01,7.817590235087658324e-02
5.400000000000000000e+01,7.909117502876814032e-02
5.403999999999999915e+01,8.520060691706775324e-02
5.407999999999999829e+01,9.680980854295809235e-02
5.411999999999999744e+01,1.035279820599601108e-01
5.415999999999999659e+01,9.802044629978357015e-02
5.420000000000000284e+01,1.044305218794863849e-01
5.424000000000000199e+01,1.233694309940702727e-01
5.428000000000000114e+01,1.010495189667704324e-01
5.432000000000000028e+01,1.117344199369462582e-01
5.435999999999999943e+01,1.049982075738412762e-01
5.439999999999999858e+01,1.022336974841429325e-01
5.443999999999999773e+01,7.685267342696977533e-02
5.447999999999999687e+01,9.364480783929494956e-02
5.452000000000000313e+01,7.223423094410853784e-02
5.456000000000000227e+01,6.579737180126486729e-02
5.460000000000000142e+01,7.158372425975756403e-02
5.464000000000000057e+01,7.645198546273732076e-02
5.467999999999999972e+01,6.237106586825211935e-02
5.471999999999999886e+01,6.418069446702172332e-02
5.475999999999999801e+01,5.468143168252678765e-02
5.479999999999999716e+01,5.862782146746293999e-02
5.484000000000000341e+01,3.812401587164898631e-02
5.488000000000000256e+01,3.778931725600986891e-02
5.492000000000000171e+01,3.409162605785313188e-02
5.496000000000000085e+01,4.353397119876379479e-02
5.500000000000000000e+01,3.800007809876595338e-02
5.503999999999999915e+01,4.621744239220100525e-02
5.507999999999999829e+01,4.068101283473073843e-02
5.511999999999999744e+01,5.623051841707484705e-02
5.515999999999999659e+01,3.877269279464996138e-02
5.520000000000000284e+01,5.615332508261805522e-02
5.524000000000000199e+01,4.877813891565526555e-02
5.528000000000000114e+01,5.179247495230032000e-02
5.532000000000000028e+01,4.380351530459306031e-02
5.535999999999999943e+01,4.406479390448881511e-02
5.539999999999999858e+01,4.463040624805969525e-02
5.543999999999999773e+01,4.916769120849653896e-02
5.547999999999999687e+01,3.628383089783922266e-02
5.552000000000000313e+01,3.195581594005903608e-02
5.556000000000000227e+01,3.282191684851193392e-02
5.560000000000000142e+01,5.813566755515298112e-02
5.564000000000000057e+01,5.227574337630414014e-02
5.567999999999999972e+01,3.357884324046402080e-02
5.571999999999999886e+01,5.583261954312465636e-02
5.575999999999999801e+01,3.529947416126825999e-02
5.579999999999999716e+01,3.493540952495437918e-02
5.584000000000000341e+01,4.496085112334171491e-02
5.588000000000000256e+01,5.681867111686443594e-02
5.592000000000000171e+01,5.094972162447609920e-02
5.596000000000000085e+01,4.294019656430508869e-02
5.600000000000000000e+01,6.060075656723594439e-02
5.603999999999999915e+01,6.878605869345785773e-02
5.607999999999999829e+01,5.955019843904289095e-02
5.611999999999999744e+01,7.048340980508091547e-02
5.615999999999999659e+01,6.063372816320162367e-02
5.620000000000000284e+01,8.256635923762177531e-02
5.624000000000000199e+01,8.249364835157646514e-02
5.628000000000000114e+01,8.089157610829672551e-02
5.632000000000000028e+01,8.753971473735151776e-02
5.635999999999999943e+01,9.326971306353742941e-02
5.639999999999999858e+01,1.057218616416909229e-01
5.643999999999999773e+01,1.083931292689545856e-01
5.647999999999999687e+01,1.086181948323462626e-01
5.652000000000000313e+01,1.198439705752616796e-01
5.656000000000000227e+01,1.258730369626623879e-01
5.660000000000000142e+01,1.309839562033771332e-01
5.664000000000000057e+01,1.312037754751236573e-01
5.667999999999999972e+01,1.372289020109278002e-01
5.671999999999999886e+01,1.331675279435699522e-01
5.675999999999999801e+01,1.300216721738947367e-01
5.679999999999999716e+01,1.494897619764086472e-01
5.684000000000000341e+01,1.283101809719608688e-01
5.688000000000000256e+01,1.242435332376895518e-01
5.692000000000000171e+01,1.302607492731233385e-01
5.696000000000000085e+01,1.173287194948296336e-01
5.700000000000000000e+01,1.071458711773149303e-01
5.703999999999999915e+01,9.787853317302952494e-02
5.707999999999999829e+01,9.625016103335332085e-02
5.711999999999999744e+01,8.025671353468852298e-02
5.715999999999999659e+01,9.390626970232220094e-02
5.720000000000000284e+01,8.463362153076536831e-02
5.724000000000000199e+01,8.024942965090273161e-02
5.728000000000000114e+01,7.158534288753085062e-02
5.732000000000000028e+01,6.047503010692695247e-02
5.735999999999999943e+01,6.770008358014086014e-02
5.739999999999999858e+01,7.003401541229911653e-02
5.743999999999999773e+01,4.333350270507153185e-02
5.747999999999999687e+01,7.775398632440072566e-02
5.752000000000000313e+01,5.502374968373190817e-02
5.756000000000000227e+01,6.346456364209418499e-02
5.760000000000000142e+01,5.387294854000674454e-02
5.764000000000000057e+01,5.925496336127571845e-02
5.767999999999999972e+01,5.455045020411431606e-02
5.771999999999999886e+01,5.992977800393430726e-02
5.775999999999999801e+01,4.574861384166528655e-02
5.779999999999999716e+01,3.981761834819196738e-02
5.784000000000000341e+01,4.458168372542935937e-02
5.788000000000000256e+01,5.087245879817399452e-02
5.792000000000000171e+01,4.004763068883617633e-02
5.796000000000000085e+01,3.136073332937095587e-02
5.800000000000000000e+01,3.489695061716638347e-02
5.803999999999999915e+01,4.209915471265666953e-02
5.807999999999999829e+01,5.327295614302465093e-02
5.811999999999999744e+01,3.632912864664826491e-02
5.815999999999999659e+01,3.833186792700382650e-02
5.820000000000000284e+01,4.522303612378518467e-02
5.824000000000000199e+01,4.875111706524550004e-02
5.828000000000000114e+01,4.310948792218931291e-02
5.832000000000000028e+01,3.410476924253975223e-02
5.835999999999999943e+01,4.710272831463024196e-02
5.839999999999999858e+01,3.840089549972032501e-02
5.843999999999999773e+01,5.109051481964024810e-02
5.847999999999999687e+01,4.146911663564966516e-02
5.852000000000000313e+01,3.826419658208981417e-02
5.856000000000000227e+01,3.719719016885990326e-02
5.860000000000000142e+01,3.001658122421321101e-02
5.864000000000000057e+01,2.772438864899415961e-02
5.867999999999999972e+01,4.254507801532311784e-02
5.871999999999999886e+01,3.536035470174329204e-02
5.875999999999999801e+01,3.978750102769866570e-02
5.879999999999999716e+01,3.687859244778055046e-02
5.884000000000000341e+01,4.924889123995228324e-02
5.888000000000000256e+01,4.205866613222174893e-02
5.892000000000000171e+01,3.853440273818995593e-02
5.896000000000000085e+01,3.531437157121272707e-02
5.900000000000000000e+01,3.484346483320530097e-02
5.903999999999999915e+01,3.773290471916909694e-02
5.907999999999999829e+01,4.734441843447611403e-02
5.911999999999999744e+01,4.259079975898524134e-02
5.915999999999999659e+01,4.639292263847859255e-02
5.920000000000000284e+01,3.399624083898815374e-02
5.924000000000000199e+01,4.054609501905270114e-02
5.928000000000000114e+01,4.709456063326335207e-02
5.932000000000000028e+01,4.752940318460575908e-02
5.935999999999999943e+01,3.543277650824662450e-02
5.939999999999999858e+01,2.211231117284953931e-02
5.943999999999999773e+01,2.559909443909393068e-02
5.947999999999999687e+01,4.344823182379244086e-02
5.952000000000000313e+01,3.073480701692891601e-02
5.956000000000000227e+01,1.985365566667176077e-02
5.960000000000000142e+01,4.075472007863802787e-02
5.964000000000000057e+01,3.689984056569305115e-02
5.967999999999999972e+01,2.907060939888651829e-02
5.971999999999999886e+01,3.865984218490599311e-02
5.975999999999999801e+01,4.244105102887818504e-02
5.979999999999999716e+01,3.674689477633995283e-02
5.984000000000000341e+01,1.271463391990652197e-02
5.988000000000000256e+01,4.063495091729152353e-02
5.992000000000000171e+01,4.379931600531185298e-02
5.996000000000000085e+01,3.290413641699324598e-02
