2.003999999999999915e+01,6.446454172287072182e-02
2.007999999999999829e+01,7.980549426202879215e-02
2.012000000000000099e+01,4.199949736567410580e-02
2.016000000000000014e+01,5.209827130985377613e-02
2.019999999999999929e+01,5.123441901961350159e-02
2.023999999999999844e+01,5.656766478359041145e-02
2.028000000000000114e+01,7.596288106227098991e-02
2.032000000000000028e+01,4.721605730392770817e-02
2.035999999999999943e+01,4.849927851531630335e-02
2.039999999999999858e+01,3.834320360750748113e-02
2.044000000000000128e+01,5.321224912760571385e-02
2.048000000000000043e+01,8.142826574357510394e-02
2.051999999999999957e+01,6.912877659561837695e-02
2.055999999999999872e+01,5.802144798005316045e-02
2.060000000000000142e+01,5.668614095953187354e-02
2.064000000000000057e+01,5.797296734906640797e-02
2.067999999999999972e+01,2.780080161543688200e-02
2.071999999999999886e+01,4.553337643567487159e-02
2.076000000000000156e+01,5.325661287104541119e-02
2.080000000000000071e+01,5.454545176904264381e-02
2.083999999999999986e+01,6.941957182696539830e-02
2.087999999999999901e+01,7.738263095273759107e-02
2.092000000000000171e+01,5.626998031589636878e-02
2.096000000000000085e+01,4.278436599760217229e-02
2.100000000000000000e+01,4.121571744751375416e-02
2.103999999999999915e+01,6.276552060289021517e-02
2.107999999999999829e+01,5.571626441043007333e-02
2.112000000000000099e+01,4.628419545286656389e-02
2.116000000000000014e+01,2.064619859166778523e-02
2.119999999999999929e+01,4.386623446055630537e-02
2.123999999999999844e+01,5.874521272296244490e-02
2.128000000000000114e+01,3.787523479921065667e-02
2.132000000000000028e+01,6.276499917282887808e-02
2.135999999999999943e+01,4.976083722712584811e-02
2.139999999999999858e+01,7.083826608342384812e-02
2.144000000000000128e+01,3.209544716065967918e-02
2.148000000000000043e+01,5.508044066362748070e-02
2.151999999999999957e+01,5.542458937346958492e-02
2.155999999999999872e+01,7.078395750756726057e-02
2.160000000000000142e+01,5.587593143210792257e-02
2.164000000000000057e+01,4.263666654714847598e-02
2.167999999999999972e+01,3.869270577912028997e-02
2.171999999999999886e+01,6.644702316587448865e-02
2.176000000000000156e+01,4.272260915882935411e-02
2.180000000000000071e+01,2.424189069977809169e-02
2.183999999999999986e+01,5.342752268720362546e-02
2.187999999999999901e+01,3.661599607409839890e-02
2.192000000000000171e+01,3.696463522174420896e-02
2.196000000000000085e+01,4.351027940027032276e-02
2.200000000000000000e+01,4.743473368630309051e-02
2.203999999999999915e+01,8.353410788856110991e-02
2.207999999999999829e+01,3.478859862263127684e-02
2.212000000000000099e+01,4.252761741988556748e-02
2.216000000000000014e+01,4.931374440969853168e-02
2.219999999999999929e+01,5.395532975846126233e-02
2.223999999999999844e+01,4.382090599791726299e-02
2.228000000000000114e+01,6.538473010548775943e-02
2.232000000000000028e+01,4.690961016723861621e-02
2.235999999999999943e+01,2.581328086649545620e-02
2.239999999999999858e+01,6.072480541749163824e-02
2.244000000000000128e+01,4.534920946829659044e-02
2.248000000000000043e+01,3.545560182448237452e-02
2.251999999999999957e+01,4.343711609358318071e-02
2.255999999999999872e+01,4.617578530891614658e-02
2.260000000000000142e+01,3.985833476226524619e-02
2.264000000000000057e+01,4.521943175309543067e-02
2.267999999999999972e+01,5.510918809641839056e-02
2.271999999999999886e+01,4.569464822338610566e-02
2.276000000000000156e+01,3.985544523995922239e-02
2.280000000000000071e+01,3.353997490386702307e-02
2.283999999999999986e+01,4.509960917402267011e-02
2.287999999999999901e+01,4.998640387941233332e-02
2.292000000000000171e+01,4.343376617559917274e-02
2.296000000000000085e+01,5.547121519019929808e-02
2.300000000000000000e+01,4.820435284510985602e-02
2.303999999999999915e+01,5.690594801716012535e-02
2.307999999999999829e+01,6.179464721643888880e-02
2.312000000000000099e+01,3.331758605677417190e-02
2.316000000000000014e+01,5.250680395358395258e-02
2.319999999999999929e+01,4.214352970966581124e-02
2.323999999999999844e+01,4.727204309810967287e-02
2.328000000000000114e+01,2.594634396187589509e-02
2.332000000000000028e+01,5.157192662661749111e-02
2.335999999999999943e+01,3.882681573725672158e-02
2.339999999999999858e+01,6.707474397082578699e-02
2.344000000000000128e+01,4.289053181437196133e-02
2.348000000000000043e+01,4.611457101303726575e-02
2.351999999999999957e+01,3.313255467139596816e-02
2.355999999999999872e+01,3.135237704245682350e-02
2.360000000000000142e+01,3.290916133906647556e-02
2.364000000000000057e+01,3.351297378489875856e-02
2.367999999999999972e+01,1.814905157114570997e-02
2.371999999999999886e+01,4.115652629904862497e-02
2.376000000000000156e+01,4.295301229148604932e-02
2.380000000000000071e+01,3.450166595166141714e-02
2.383999999999999986e+01,1.032090583297313839e-02
2.387999999999999901e+01,4.024128325024704800e-02
2.392000000000000171e+01,4.442240213167401863e-02
2.396000000000000085e+01,3.454240748262295962e-02
2.400000000000000000e+01,5.183230653130161542e-02
2.403999999999999915e+01,4.076131567952648305e-02
2.407999999999999829e+01,2.754568151003081861e-02
2.412000000000000099e+01,4.149993454826460260e-02
2.416000000000000014e+01,2.328001865116191560e-02
2.419999999999999929e+01,4.843639395087211835e-02
2.423999999999999844e+01,4.618518666968222941e-02
2.428000000000000114e+01,3.821438224327736860e-02
2.432000000000000028e+01,4.621196610734267657e-02
2.435999999999999943e+01,3.776511946704465272e-02
2.439999999999999858e+01,2.193036245314521765e-02
2.444000000000000128e+01,3.183549813597709444e-02
2.448000000000000043e+01,2.505786729039015392e-02
2.451999999999999957e+01,3.210364811211012526e-02
2.455999999999999872e+01,3.676643012205350891e-02
2.460000000000000142e+01,3.189632513523200236e-02
2.464000000000000057e+01,4.418623880248943175e-02
2.467999999999999972e+01,3.931671605655056440e-02
2.471999999999999886e+01,3.969073093526611501e-02
2.476000000000000156e+01,3.792006571959307543e-02
2.480000000000000071e+01,3.996295659757662794e-02
2.483999999999999986e+01,2.913633402202301520e-02
2.487999999999999901e+01,2.426822901995566786e-02
2.492000000000000171e+01,2.226035548532435959e-02
2.496000000000000085e+01,3.502918795755291526e-02
2.500000000000000000e+01,3.874177086779310303e-02
2.503999999999999915e+01,3.292144298460097235e-02
2.507999999999999829e+01,3.711122393716573264e-02
2.512000000000000099e+01,1.699165865821194998e-02
2.516000000000000014e+01,2.904684455547737812e-02
2.519999999999999929e+01,1.893764570105382905e-02
2.523999999999999844e+01,4.124152323023752564e-02
2.528000000000000114e+01,4.138101168106569916e-02
2.532000000000000028e+01,4.104409648922346249e-02
2.535999999999999943e+01,2.521601484590297107e-02
2.539999999999999858e+01,1.534642265273432858e-02
2.544000000000000128e+01,4.384813437788488699e-02
2.548000000000000043e+01,2.706748140466288394e-02
2.551999999999999957e+01,2.673181089001935851e-02
2.555999999999999872e+01,2.329809887809822233e-02
2.560000000000000142e+01,2.034128621639350390e-02
2.564000000000000057e+01,2.405793862700570523e-02
2.567999999999999972e+01,2.515320211845050585e-02
2.571999999999999886e+01,4.269343725180654164e-02
2.576000000000000156e+01,5.379900659444598193e-02
2.580000000000000071e+01,2.319713694287288755e-02
2.583999999999999986e+01,4.288302627904236330e-02
2.587999999999999901e+01,1.776318835161559348e-02
2.592000000000000171e+01,2.481806049707288922e-02
2.596000000000000085e+01,3.949969854440064931e-02
2.600000000000000000e+01,2.868029509659904969e-02
2.603999999999999915e+01,3.668914132459297900e-02
2.607999999999999829e+01,3.873996352331317977e-02
2.612000000000000099e+01,5.246914504950753178e-02
2.616000000000000014e+01,2.615917484987477504e-02
2.619999999999999929e+01,1.867744567270390385e-02
2.623999999999999844e+01,3.264558022926812575e-02
2.628000000000000114e+01,3.874904366745048068e-02
2.632000000000000028e+01,4.056277683474467793e-02
2.635999999999999943e+01,2.879192573966648724e-02
2.639999999999999858e+01,5.277070176829896236e-02
2.644000000000000128e+01,5.982827573111990094e-02
2.648000000000000043e+01,6.926933772326360206e-02
2.651999999999999957e+01,4.868106894989583655e-02
2.655999999999999872e+01,4.024779477544472572e-02
2.660000000000000142e+01,7.685898873618821070e-02
2.664000000000000057e+01,6.222951691051148426e-02
2.667999999999999972e+01,5.927837412564102015e-02
2.671999999999999886e+01,4.941585456194175913e-02
2.676000000000000156e+01,7.840122659466944310e-02
2.680000000000000071e+01,5.781423092602906016e-02
2.683999999999999986e+01,4.914388517891673386e-02
2.687999999999999901e+01,6.287668668842555375e-02
2.692000000000000171e+01,5.301503321857786721e-02
2.696000000000000085e+01,6.102826153163643658e-02
2.700000000000000000e+01,3.972712172134820752e-02
2.703999999999999915e+01,4.297408632084381841e-02
2.707999999999999829e+01,5.170279044237774402e-02
2.712000000000000099e+01,3.421540389328135007e-02
2.716000000000000014e+01,4.651936501318192085e-02
2.719999999999999929e+01,4.142542389582599266e-02
2.723999999999999844e+01,2.107854418437662622e-02
2.728000000000000114e+01,3.576625540113725216e-02
2.732000000000000028e+01,4.354255738906780138e-02
2.735999999999999943e+01,4.297747078050401931e-02
2.739999999999999858e+01,2.692110739045802670e-02
2.744000000000000128e+01,3.374452003847563247e-02
2.748000000000000043e+01,1.625845881830346659e-02
2.751999999999999957e+01,3.690525948905793580e-02
2.755999999999999872e+01,3.514921823739708406e-02
2.760000000000000142e+01,2.100017333030362518e-02
2.764000000000000057e+01,2.520263249755904170e-02
2.767999999999999972e+01,8.432220456729729377e-03
2.771999999999999886e+01,4.457109060157928015e-02
2.776000000000000156e+01,2.875424578450766835e-02
2.780000000000000071e+01,2.652230570734815177e-02
2.783999999999999986e+01,2.476714383373376099e-02
2.787999999999999901e+01,1.538555384245621736e-02
2.792000000000000171e+01,1.077066934104997653e-02
2.796000000000000085e+01,4.238198666146130583e-02
2.800000000000000000e+01,3.300073460648815515e-02
2.803999999999999915e+01,2.147462506378640390e-02
2.807999999999999829e+01,2.877665486687634722e-02
2.812000000000000099e+01,4.275201561561151747e-02
2.816000000000000014e+01,2.264635482322787524e-02
2.819999999999999929e+01,1.564891806931171386e-02
2.823999999999999844e+01,2.247469179269522693e-02
2.828000000000000114e+01,1.452412974342688796e-02
2.832000000000000028e+01,2.182675104912221165e-02
2.835999999999999943e+01,1.792797526632615782e-02
2.839999999999999858e+01,2.451578783072396600e-02
2.844000000000000128e+01,2.419213059295625967e-02
2.848000000000000043e+01,2.958846669461250370e-02
2.851999999999999957e+01,1.282023848790665201e-02
2.855999999999999872e+01,1.392680553077085479e-02
2.860000000000000142e+01,1.169683712896299119e-02
2.864000000000000057e+01,3.985365312653547411e-03
2.867999999999999972e+01,2.511184082245061441e-02
2.871999999999999886e+01,4.171012672729983856e-02
2.876000000000000156e+01,2.017575656209136606e-02
2.880000000000000071e+01,2.199774794972079311e-02
2.883999999999999986e+01,2.691808833216697075e-02
2.887999999999999901e+01,3.350679834176534255e-02
2.892000000000000171e+01,1.959922914805381153e-02
2.896000000000000085e+01,1.736986568514397450e-02
2.900000000000000000e+01,4.850669338872148906e-02
2.903999999999999915e+01,2.482778249504673240e-02
2.907999999999999829e+01,1.735533198922164372e-02
2.912000000000000099e+01,2.156107856086465421e-02
2.916000000000000014e+01,1.218208943679646543e-02
2.919999999999999929e+01,5.424770769433901775e-03
2.923999999999999844e+01,1.892550591552496358e-02
2.928000000000000114e+01,2.789802117000017567e-02
2.932000000000000028e+01,3.043567809708509417e-02
2.935999999999999943e+01,1.462199783068864924e-02
2.939999999999999858e+01,0.000000000000000000e+00
2.944000000000000128e+01,1.516922652830370206e-02
2.948000000000000043e+01,2.747852908671077551e-02
2.951999999999999957e+01,2.024483812802705882e-02
2.955999999999999872e+01,8.721241668448875481e-03
2.960000000000000142e+01,1.626403188204781497e-02
2.964000000000000057e+01,2.404517341513332657e-02
2.967999999999999972e+01,2.324647134433132853e-02
2.971999999999999886e+01,1.196128723386743857e-02
2.976000000000000156e+01,2.164911741568798301e-02
2.980000000000000071e+01,4.134680115992280663e-02
2.983999999999999986e+01,1.171028232350567258e-02
2.987999999999999901e+01,5.906725698034588287e-03
2.992000000000000171e+01,3.537594675482355622e-02
2.996000000000000085e+01,3.672228727186883923e-02
3.000000000000000000e+01,6.847461143119945581e-03
3.003999999999999915e+01,2.082526943261636329e-02
3.007999999999999829e+01,2.479323528056031484e-02
3.012000000000000099e+01,2.423293580688688081e-02
3.016000000000000014e+01,3.201416368724086664e-02
3.019999999999999929e+01,2.930888356793187946e-02
3.023999999999999844e+01,4.757659178090656305e-02
3.028000000000000114e+01,2.008501662738894702e-02
3.032000000000000028e+01,3.096448146551427846e-02
3.035999999999999943e+01,3.135742965064289289e-02
3.039999999999999858e+01,5.629830052554878062e-02
3.044000000000000128e+01,4.548971981094514921e-02
3.048000000000000043e+01,3.158283150905433212e-02
3.051999999999999957e+01,6.176688119946302513e-02
3.055999999999999872e+01,5.882309768496858660e-02
3.060000000000000142e+01,5.921589751267592600e-02
3.064000000000000057e+01,7.224013034740238426e-02
3.067999999999999972e+01,7.906776083545757894e-02
3.071999999999999886e+01,8.327372982433552118e-02
3.076000000000000156e+01,1.048777160113354839e-01
3.080000000000000071e+01,1.131352073400094527e-01
3.083999999999999986e+01,9.994299748914882431e-02
3.087999999999999901e+01,1.317950242968076446e-01
3.092000000000000171e+01,8.690489369746981496e-02
3.096000000000000085e+01,9.111059750892216980e-02
3.100000000000000000e+01,9.317128374597348495e-02
3.103999999999999915e+01,6.782401963544454349e-02
3.107999999999999829e+01,7.894111814078236256e-02
3.112000000000000099e+01,8.386159050278158000e-02
3.116000000000000014e+01,4.540602724550483332e-02
3.119999999999999929e+01,6.486447817905845181e-02
3.123999999999999844e+01,7.717297834305239523e-02
3.128000000000000114e+01,9.067305926608372479e-02
3.132000000000000028e+01,7.438187935764933867e-02
3.135999999999999943e+01,8.049360441249378550e-02
3.139999999999999858e+01,9.184850581531306402e-02
3.144000000000000128e+01,8.461362799725820338e-02
3.148000000000000043e+01,9.215510356271754133e-02
3.151999999999999957e+01,1.032714422477649940e-01
3.155999999999999872e+01,1.055695061181996797e-01
3.160000000000000142e+01,1.200222920075413868e-01
3.164000000000000057e+01,1.261334578237134907e-01
3.167999999999999972e+01,1.284312625504307470e-01
3.171999999999999886e+01,1.433604418741650510e-01
3.176000000000000156e+01,1.392231656022479003e-01
3.180000000000000071e+01,1.250759538654415415e-01
3.183999999999999986e+01,1.328549620638029283e-01
3.187999999999999901e+01,1.394422232306489207e-01
3.192000000000000171e+01,1.112332709008697629e-01
3.196000000000000085e+01,1.233019061385048076e-01
3.200000000000000000e+01,1.298888562416315451e-01
3.203999999999999915e+01,1.371906869323504530e-01
3.207999999999999829e+01,1.089813068709451355e-01
3.211999999999999744e+01,1.065114041462561084e-01
3.215999999999999659e+01,1.069013413256553607e-01
3.220000000000000284e+01,1.280258312999459358e-01
3.224000000000000199e+01,9.886267075735916121e-02
3.228000000000000114e+01,6.946105968614359194e-02
3.232000000000000028e+01,9.130017527887838991e-02
3.235999999999999943e+01,7.858138311237565510e-02
3.239999999999999858e+01,8.111555364082864705e-02
3.243999999999999773e+01,6.744318620562400612e-02
3.247999999999999687e+01,7.212206108142520111e-02
3.252000000000000313e+01,8.132906312970010487e-02
3.256000000000000227e+01,5.502482846584971082e-02
3.260000000000000142e+01,4.039860266946085354e-02
3.264000000000000057e+01,4.317029239452354478e-02
3.267999999999999972e+01,4.641849855978870398e-02
3.271999999999999886e+01,4.680660552515077122e-02
3.275999999999999801e+01,6.363930338574362577e-02
3.279999999999999716e+01,3.995583133905264428e-02
3.284000000000000341e+01,4.534841116584864551e-02
3.288000000000000256e+01,2.619289554038913351e-02
3.292000000000000171e+01,3.206182538281222849e-02
3.296000000000000085e+01,6.939009594927350588e-02
3.300000000000000000e+01,1.050498998427736308e-01
3.303999999999999915e+01,7.683722651158461647e-02
3.307999999999999829e+01,5.124601379376028665e-02
3.311999999999999744e+01,5.663747407853025884e-02
3.315999999999999659e+01,3.938746004015198504e-02
3.320000000000000284e+01,2.213727525053161768e-02
3.324000000000000199e+01,3.348646163295376788e-02
3.328000000000000114e+01,3.291899623470922326e-02
3.332000000000000028e+01,3.425798986766354082e-02
3.335999999999999943e+01,3.583513363009714625e-02
3.339999999999999858e+01,3.145385747324266207e-02
3.343999999999999773e+01,4.304047636684066314e-02
3.347999999999999687e+01,4.962198915070441252e-02
3.352000000000000313e+01,4.571681437823195415e-02
3.356000000000000227e+01,4.610138099750931556e-02
3.360000000000000142e+01,6.412214075229161203e-02
3.364000000000000057e+01,5.115986653199439821e-02
3.367999999999999972e+01,5.535712205242498962e-02
3.371999999999999886e+01,3.429124808843295180e-02
3.375999999999999801e+01,5.016625086507940645e-02
3.379999999999999716e+01,2.957663173004430532e-02
3.384000000000000341e+01,5.832102077984877009e-02
3.388000000000000256e+01,6.609220330488968509e-02
3.392000000000000171e+01,6.671329011703243383e-02
3.396000000000000085e+01,8.616219826495505330e-02
3.400000000000000000e+01,6.128159906070913127e-02
3.403999999999999915e+01,9.288488324629023962e-02
3.407999999999999829e+01,7.443874693571227164e-02
3.411999999999999744e+01,9.364845649793751559e-02
3.415999999999999659e+01,9.831984181155443980e-02
3.420000000000000284e+01,8.273299189590595237e-02
3.424000000000000199e+01,8.192234609376597421e-02
3.428000000000000114e+01,1.190058670451507455e-01
3.432000000000000028e+01,9.317015968139777393e-02
3.435999999999999943e+01,1.030836489380063531e-01
3.439999999999999858e+01,1.103752776687637188e-01
3.443999999999999773e+01,1.148067141762812854e-01
3.447999999999999687e+01,1.056531272647438652e-01
3.452000000000000313e+01,9.578430960979608666e-02
3.456000000000000227e+01,9.115849739948350683e-02
3.460000000000000142e+01,9.487397241318953900e-02
3.464000000000000057e+01,7.880784746907303073e-02
3.467999999999999972e+01,1.008741971792022490e-01
3.471999999999999886e+01,9.148079543613960030e-02
3.475999999999999801e+01,8.470876344643839262e-02
3.479999999999999716e+01,8.532468972786819150e-02
3.484000000000000341e+01,7.545385706295917871e-02
3.488000000000000256e+01,7.249431927440411205e-02
3.492000000000000171e+01,7.072616538154581634e-02
3.496000000000000085e+01,8.897742641140796160e-02
3.500000000000000000e+01,7.529226177663399244e-02
3.503999999999999915e+01,6.232181547944640188e-02
3.507999999999999829e+01,5.268771023111826907e-02
3.511999999999999744e+01,5.449314802619148468e-02
3.515999999999999659e+01,6.821478576944285666e-02
3.520000000000000284e+01,5.905650932548685977e-02
3.524000000000000199e+01,7.182426893335862317e-02
3.528000000000000114e+01,6.767034837873496522e-02
3.532000000000000028e+01,8.282083467466549997e-02
3.535999999999999943e+01,7.961965927710297486e-02
3.539999999999999858e+01,7.760984181523630787e-02
3.543999999999999773e+01,8.489458428360729947e-02
3.547999999999999687e+01,7.549596530687097129e-02
3.552000000000000313e+01,8.039682214886360867e-02
3.556000000000000227e+01,7.361923343424030264e-02
3.560000000000000142e+01,1.047357400831392393e-01
3.564000000000000057e+01,8.627940093398626942e-02
3.567999999999999972e+01,9.666063052759289731e-02
3.571999999999999886e+01,1.129997914313310703e-01
3.575999999999999801e+01,1.043140420546978531e-01
3.579999999999999716e+01,1.270874798054306143e-01
3.584000000000000341e+01,1.224527076085735189e-01
3.588000000000000256e+01,1.280657896815071695e-01
3.592000000000000171e+01,1.208087590575483844e-01
3.596000000000000085e+01,1.528757815314419344e-01
3.600000000000000000e+01,1.339399615329520954e-01
3.603999999999999915e+01,1.586181219186404978e-01
3.607999999999999829e+01,1.482615142869737335e-01
3.611999999999999744e+01,1.738923376230535889e-01
3.615999999999999659e+01,1.563851844572362315e-01
3.620000000000000284e+01,1.727204921260023507e-01
3.624000000000000199e+01,1.602175910095136602e-01
3.628000000000000114e+01,1.560558862570402827e-01
3.632000000000000028e+01,1.418840015830022394e-01
3.635999999999999943e+01,1.589329442156071637e-01
3.639999999999999858e+01,1.614434414529327955e-01
3.643999999999999773e+01,1.537054227446383869e-01
3.647999999999999687e+01,1.528786123793612339e-01
3.652000000000000313e+01,1.460932133547898915e-01
3.656000000000000227e+01,1.440740525400729111e-01
3.660000000000000142e+01,1.222731857641960324e-01
3.664000000000000057e+01,1.326464492878489387e-01
3.667999999999999972e+01,1.251446387961164530e-01
3.671999999999999886e+01,1.145441832370845403e-01
3.675999999999999801e+01,1.089482846052949039e-01
3.679999999999999716e+01,9.572547543249115831e-02
3.684000000000000341e+01,8.965218466675929643e-02
3.688000000000000256e+01,7.809694483984278013e-02
3.692000000000000171e+01,7.726616210415859776e-02
3.696000000000000085e+01,8.024827780877387406e-02
3.700000000000000000e+01,7.965507423464555925e-02
3.703999999999999915e+01,8.597304871686682615e-02
3.707999999999999829e+01,5.487290575784619512e-02
3.711999999999999744e+01,5.785350341079556480e-02
3.715999999999999659e+01,7.012856797064589975e-02
3.720000000000000284e+01,4.808379254197100994e-02
3.724000000000000199e+01,4.867993360061864672e-02
3.728000000000000114e+01,5.022900138423670030e-02
3.732000000000000028e+01,2.770639265370083287e-02
3.735999999999999943e+01,3.902618202107933226e-02
3.739999999999999858e+01,5.392051649803468460e-02
3.743999999999999773e+01,3.759328194918136468e-02
3.747999999999999687e+01,3.008383793245124685e-02
3.752000000000000313e+01,3.878039784022079689e-02
3.756000000000000227e+01,2.912517707115954910e-02
3.760000000000000142e+01,3.639094450209651860e-02
3.764000000000000057e+01,3.459977875768676520e-02
3.767999999999999972e+01,3.423817717302362479e-02
3.771999999999999886e+01,3.363783084638757165e-02
3.775999999999999801e+01,2.493386299062509692e-02
3.779999999999999716e+01,2.218771395165688651e-02
3.784000000000000341e+01,2.301608622559798978e-02
3.788000000000000256e+01,2.622732997883907985e-02
3.792000000000000171e+01,2.204993215178574148e-02
3.796000000000000085e+01,2.859693516929595614e-02
3.800000000000000000e+01,2.394201973496238797e-02
3.803999999999999915e+01,1.714170597954747105e-02
3.807999999999999829e+01,1.582253682948246004e-02
3.811999999999999744e+01,2.570441893875772058e-02
3.815999999999999659e+01,1.794947652336648797e-02
3.820000000000000284e+01,2.497052405147590429e-02
3.824000000000000199e+01,1.745302667096900254e-02
3.828000000000000114e+01,3.352970766733651131e-02
3.832000000000000028e+01,4.085000001251217969e-03
3.835999999999999943e+01,2.206741979088863367e-02
3.839999999999999858e+01,2.860956996129303959e-02
3.843999999999999773e+01,2.418810741724130089e-02
3.847999999999999687e+01,2.286447250465390227e-02
3.852000000000000313e+01,2.082539051531514390e-02
3.856000000000000227e+01,1.258928000262290840e-02
3.860000000000000142e+01,1.793749012982154278e-02
3.864000000000000057e+01,2.257024669026850075e-02
3.867999999999999972e+01,1.981432056708605505e-02
3.871999999999999886e+01,1.538961841426445161e-02
3.875999999999999801e+01,8.104490398194634168e-03
3.879999999999999716e+01,1.464200173940367888e-02
3.884000000000000341e+01,2.546896891235218494e-02
3.888000000000000256e+01,3.677211720882418711e-02
3.892000000000000171e+01,2.328851385564042337e-02
3.896000000000000085e+01,3.220740443238723910e-02
3.900000000000000000e+01,2.444274319068658052e-02
3.903999999999999915e+01,3.431398087114674589e-02
3.907999999999999829e+01,4.156310491574648908e-02
3.911999999999999744e+01,3.546528412867057389e-02
3.915999999999999659e+01,2.984362932178430058e-02
3.920000000000000284e+01,4.138120571561496736e-02
3.924000000000000199e+01,1.931382039308189927e-02
3.928000000000000114e+01,3.561699047550731523e-02
3.932000000000000028e+01,4.786805673774093689e-02
3.935999999999999943e+01,2.865912060010690834e-02
3.939999999999999858e+01,2.732439344868816192e-02
3.943999999999999773e+01,3.123240781522825665e-02
3.947999999999999687e+01,3.347160504879437976e-02
3.952000000000000313e+01,2.903706277089498564e-02
3.956000000000000227e+01,3.056024412311965366e-02
3.960000000000000142e+01,1.921311375177803954e-02
3.964000000000000057e+01,3.074509960180941276e-02
3.967999999999999972e+01,4.966477979629550094e-02
3.971999999999999886e+01,4.641928994906410755e-02
3.975999999999999801e+01,4.102830875741465128e-02
3.979999999999999716e+01,2.777192524068993612e-02
3.984000000000000341e+01,6.218091867040691223e-02
3.988000000000000256e+01,3.343205354758677778e-02
3.992000000000000171e+01,5.187190197643120476e-02
3.996000000000000085e+01,6.077803268848076118e-02
4.000000000000000000e+01,5.752881864579525301e-02
4.003999999999999915e+01,5.856899553484690157e-02
4.007999999999999829e+01,6.556686793068820795e-02
4.011999999999999744e+01,6.732094556939371977e-02
4.015999999999999659e+01,7.217275997956029698e-02
4.020000000000000284e+01,7.821567272541328497e-02
4.024000000000000199e+01,7.591650028141329332e-02
4.028000000000000114e+01,8.267329647025287165e-02
4.032000000000000028e+01,8.061134407446238215e-02
4.035999999999999943e+01,7.282892487342519650e-02
4.039999999999999858e+01,7.219583154278626236e-02
4.043999999999999773e+01,9.229684536035566433e-02
4.047999999999999687e+01,9.237761383936921034e-02
4.052000000000000313e+01,7.791971409976188034e-02
4.056000000000000227e+01,7.966765387131483078e-02
4.060000000000000142e+01,1.174027823172722335e-01
4.064000000000000057e+01,1.334493500329539950e-01
4.067999999999999972e+01,1.394855020237291410e-01
4.071999999999999886e+01,1.433761107500842735e-01
4.075999999999999801e+01,1.570376507514435471e-01
4.079999999999999716e+01,1.759418587174255977e-01
4.084000000000000341e+01,2.120052091874547184e-01
4.088000000000000256e+01,2.480679735462265056e-01
4.092000000000000171e+01,3.067714553656468723e-01
4.096000000000000085e+01,3.645210286109226705e-01
4.100000000000000000e+01,4.094002144159625822e-01
4.103999999999999915e+01,5.145761775723649567e-01
4.107999999999999829e+01,5.968719085315483674e-01
4.111999999999999744e+01,7.137248228374709624e-01
4.115999999999999659e+01,8.103191254941144450e-01
4.120000000000000284e+01,9.364656869556721164e-01
4.124000000000000199e+01,9.949260551643088757e-01
4.128000000000000114e+01,1.000000000000000000e+00
4.132000000000000028e+01,9.290462135641730512e-01
4.135999999999999943e+01,8.735832347706727896e-01
4.139999999999999858e+01,7.690237577272196479e-01
4.143999999999999773e+01,6.656553119561171572e-01
4.147999999999999687e+01,5.529913957956053006e-01
4.152000000000000313e+01,4.663047781225129751e-01
4.156000000000000227e+01,4.172736039422091925e-01
4.160000000000000142e+01,3.546570212695032698e-01
4.164000000000000057e+01,2.982363792676389069e-01
4.167999999999999972e+01,2.482500053073382340e-01
4.171999999999999886e+01,2.375873729248784982e-01
4.175999999999999801e+01,2.138159824647931084e-01
4.179999999999999716e+01,2.062503644525321977e-01
4.184000000000000341e+01,1.948708358641296490e-01
4.188000000000000256e+01,1.725275085145975273e-01
4.192000000000000171e+01,1.456552776600915089e-01
4.196000000000000085e+01,1.433303442920066673e-01
4.200000000000000000e+01,1.393364575009429229e-01
4.203999999999999915e+01,1.401085125430558687e-01
4.207999999999999829e+01,1.325383828819789445e-01
4.211999999999999744e+01,1.213926570354815770e-01
4.215999999999999659e+01,1.185878095429880319e-01
4.220000000000000284e+01,1.126840206065176098e-01
4.224000000000000199e+01,8.366160720210412405e-02
4.228000000000000114e+01,1.185108470965445943e-01
4.232000000000000028e+01,9.592200529243340157e-02
4.235999999999999943e+01,9.406716679652678270e-02
4.239999999999999858e+01,8.816005790375557039e-02
4.243999999999999773e+01,9.202378942598524181e-02
4.247999999999999687e+01,8.444703066897385479e-02
4.252000000000000313e+01,8.282783545541407000e-02
4.256000000000000227e+01,9.669938298417847522e-02
4.260000000000000142e+01,8.530732076850280898e-02
4.264000000000000057e+01,9.131263324092571410e-02
4.267999999999999972e+01,9.541062597964659886e-02
4.271999999999999886e+01,7.829660456286466341e-02
4.275999999999999801e+01,7.738830367390542309e-02
4.279999999999999716e+01,9.077908487699416773e-02
4.284000000000000341e+01,7.842958428753203648e-02
4.288000000000000256e+01,6.893934382880378964e-02
4.292000000000000171e+01,8.304303080027425343e-02
4.296000000000000085e+01,8.808949687305415999e-02
4.300000000000000000e+01,8.026546733892783725e-02
4.303999999999999915e+01,8.483387064440771341e-02
4.307999999999999829e+01,7.486346727792841937e-02
4.311999999999999744e+01,7.823881056060921768e-02
4.315999999999999659e+01,6.254708169761609426e-02
4.320000000000000284e+01,8.570235530101745491e-02
4.324000000000000199e+01,7.835073479743080715e-02
4.328000000000000114e+01,9.077974970915968222e-02
4.332000000000000028e+01,8.009008174294345028e-02
4.335999999999999943e+01,8.369946558210740462e-02
4.339999999999999858e+01,9.946293325682188657e-02
4.343999999999999773e+01,9.449100690414234671e-02
4.347999999999999687e+01,8.761171755109266324e-02
4.352000000000000313e+01,9.741476669064097482e-02
4.356000000000000227e+01,1.165119366037443566e-01
4.360000000000000142e+01,1.060555110760795505e-01
4.364000000000000057e+01,1.168096786980605678e-01
4.367999999999999972e+01,1.106417118575295511e-01
4.371999999999999886e+01,1.254460043059224261e-01
4.375999999999999801e+01,1.450161455641552355e-01
4.379999999999999716e+01,1.505241002785377702e-01
4.384000000000000341e+01,1.627045357485347454e-01
4.388000000000000256e+01,1.746458933232133137e-01
4.392000000000000171e+01,1.951663635992807178e-01
4.396000000000000085e+01,2.121111381765908854e-01
4.400000000000000000e+01,2.409716346053951130e-01
4.403999999999999915e+01,2.571999087146794039e-01
4.407999999999999829e+01,2.839139231444601230e-01
4.411999999999999744e+01,3.056222560178190606e-01
4.415999999999999659e+01,3.063568263897274435e-01
4.420000000000000284e+01,3.171004715240216543e-01
4.424000000000000199e+01,3.397598255298097114e-01
4.428000000000000114e+01,3.097475825148118256e-01
4.432000000000000028e+01,2.647198066964085439e-01
4.435999999999999943e+01,2.094430865923697094e-01
4.439999999999999858e+01,1.973032356677156818e-01
4.443999999999999773e+01,1.746761065967040172e-01
4.447999999999999687e+01,1.387017428073394620e-01
4.452000000000000313e+01,1.248912427105062228e-01
4.456000000000000227e+01,1.163232072249550941e-01
4.460000000000000142e+01,9.321628286077508763e-02
4.464000000000000057e+01,6.987023949794181343e-02
4.467999999999999972e+01,8.036619834300870457e-02
4.471999999999999886e+01,7.608493228539124631e-02
4.475999999999999801e+01,6.322300704719006903e-02
4.479999999999999716e+01,6.084678318948390230e-02
4.484000000000000341e+01,5.322650930129927543e-02
4.488000000000000256e+01,5.490028479666704542e-02
4.492000000000000171e+01,4.561009711756595919e-02
4.496000000000000085e+01,4.799724983590190897e-02
4.500000000000000000e+01,4.442535526826028175e-02
4.503999999999999915e+01,4.871752422650649922e-02
4.507999999999999829e+01,3.775578974395748383e-02
4.511999999999999744e+01,4.490628442500099043e-02
4.515999999999999659e+01,4.371442782618181755e-02
4.520000000000000284e+01,3.942346753337980930e-02
4.524000000000000199e+01,2.607516303188282814e-02
4.528000000000000114e+01,4.251722620934712815e-02
4.532000000000000028e+01,4.084541855735392135e-02
4.535999999999999943e+01,3.035458974072059724e-02
4.539999999999999858e+01,3.392437286540834346e-02
4.543999999999999773e+01,2.295522168146559364e-02
4.547999999999999687e+01,1.913512162457769311e-02
4.552000000000000313e+01,3.056727468928636254e-02
4.556000000000000227e+01,2.865213462564004249e-02
4.560000000000000142e+01,1.553466507680165663e-02
4.564000000000000057e+01,2.219770330660749205e-02
4.567999999999999972e+01,2.194833933754714722e-02
4.571999999999999886e+01,2.646471817498975351e-02
4.575999999999999801e+01,1.977875887390655174e-02
4.579999999999999716e+01,2.596174221053458228e-02
4.584000000000000341e+01,3.119055304634161044e-02
4.588000000000000256e+01,4.047010943315241388e-02
4.592000000000000171e+01,2.448587651884992153e-02
4.596000000000000085e+01,3.638533823439950299e-02
4.600000000000000000e+01,3.970407370602958147e-02
4.603999999999999915e+01,2.419391080603520983e-02
4.607999999999999829e+01,3.180084536478964413e-02
4.611999999999999744e+01,3.416366066639649895e-02
4.615999999999999659e+01,3.152068408157744639e-02
4.620000000000000284e+01,2.601687925349545349e-02
4.624000000000000199e+01,2.742375491507831331e-02
4.628000000000000114e+01,3.502632030082723780e-02
4.632000000000000028e+01,2.975821052299660111e-02
4.635999999999999943e+01,3.044745660860994838e-02
4.639999999999999858e+01,3.685572686027885347e-02
4.643999999999999773e+01,2.324342943671336287e-02
4.647999999999999687e+01,2.964992389584560767e-02
4.652000000000000313e+01,3.271891373693733285e-02
4.656000000000000227e+01,1.791229521929087534e-02
4.660000000000000142e+01,2.955935951383101626e-02
4.664000000000000057e+01,3.334065155328250207e-02
4.667999999999999972e+01,2.758786243592587992e-02
4.671999999999999886e+01,3.351231852933619915e-02
4.675999999999999801e+01,3.872088189931215119e-02
4.679999999999999716e+01,4.226023224629980174e-02
4.684000000000000341e+01,3.483551557881475053e-02
4.688000000000000256e+01,2.883986550439152086e-02
4.692000000000000171e+01,2.832488193863422904e-02
4.696000000000000085e+01,4.735200522746337015e-02
4.700000000000000000e+01,4.921848496305229748e-02
4.703999999999999915e+01,4.226585267399785711e-02
4.707999999999999829e+01,4.317717358082723278e-02
4.711999999999999744e+01,3.669935534067730876e-02
4.715999999999999659e+01,3.808548596974435652e-02
4.720000000000000284e+01,3.375077986355144027e-02
4.724000000000000199e+01,3.227509808475044484e-02
4.728000000000000114e+01,3.556507474244923611e-02
4.732000000000000028e+01,4.076075326465262300e-02
4.735999999999999943e+01,3.761396152365563406e-02
4.739999999999999858e+01,3.780284452482730179e-02
4.743999999999999773e+01,3.989742290050327100e-02
4.747999999999999687e+01,3.221954731864776211e-02
4.752000000000000313e+01,3.240560113600855774e-02
4.756000000000000227e+01,4.140890032547277222e-02
4.760000000000000142e+01,3.015323956897861951e-02
4.764000000000000057e+01,3.629468308390658426e-02
4.767999999999999972e+01,4.124352505062137131e-02
4.771999999999999886e+01,4.309312703334848560e-02
4.775999999999999801e+01,4.160515733469926508e-02
4.779999999999999716e+01,4.273785214271913491e-02
4.784000000000000341e+01,3.719635746592377806e-02
4.788000000000000256e+01,4.261705666106089391e-02
4.792000000000000171e+01,3.349868742089603946e-02
4.796000000000000085e+01,2.795429217028713720e-02
4.800000000000000000e+01,2.407723247345967127e-02
4.803999999999999915e+01,3.735892588066506981e-02
4.807999999999999829e+01,4.348975775494436785e-02
4.811999999999999744e+01,4.389970313729520124e-02
4.815999999999999659e+01,2.762560129784711813e-02
4.820000000000000284e+01,3.160852785181520602e-02
4.824000000000000199e+01,3.773543604767451431e-02
4.828000000000000114e+01,4.314636931342985537e-02
4.832000000000000028e+01,2.877496276133564498e-02
4.835999999999999943e+01,4.252545057314393445e-02
4.839999999999999858e+01,4.030686678531831407e-02
4.843999999999999773e+01,3.761062894811022933e-02
4.847999999999999687e+01,1.870698565054617485e-02
4.852000000000000313e+01,3.412179594898503282e-02
4.856000000000000227e+01,2.713262857496716307e-02
4.860000000000000142e+01,3.706385448425920243e-02
4.864000000000000057e+01,3.960585903990233164e-02
4.867999999999999972e+01,1.783724316064733834e-02
4.871999999999999886e+01,2.752711565206625299e-02
4.875999999999999801e+01,3.387936237877359896e-02
4.879999999999999716e+01,3.498734490499467997e-02
4.884000000000000341e+01,3.299602687389249778e-02
4.888000000000000256e+01,1.527394081721059754e-02
4.892000000000000171e+01,2.615037790587376731e-02
4.896000000000000085e+01,2.606263332339338323e-02
4.900000000000000000e+01,2.811882927946943514e-02
4.903999999999999915e+01,3.803887242809215335e-02
4.907999999999999829e+01,3.127481859824741972e-02
4.911999999999999744e+01,3.404291437266861176e-02
4.915999999999999659e+01,2.823011299983070252e-02
4.920000000000000284e+01,3.171112737053669722e-02
4.924000000000000199e+01,3.447611489113686783e-02
4.928000000000000114e+01,2.913685784258794598e-02
4.932000000000000028e+01,2.355822868537671769e-02
4.935999999999999943e+01,2.346013407349329880e-02
4.939999999999999858e+01,2.860424230954905153e-02
4.943999999999999773e+01,3.088734707233557059e-02
4.947999999999999687e+01,3.150109386879509227e-02
4.952000000000000313e+01,3.807202562535914186e-02
4.956000000000000227e+01,2.938881164778573210e-02
4.960000000000000142e+01,2.213451715660214730e-02
4.964000000000000057e+01,2.012241253335732630e-02
4.967999999999999972e+01,2.883407489798632192e-02
4.971999999999999886e+01,2.848815076057821180e-02
4.975999999999999801e+01,3.123944419461229666e-02
4.979999999999999716e+01,2.660145353832849002e-02
4.984000000000000341e+01,2.696731239926124582e-02
4.988000000000000256e+01,1.922889424104380976e-02
4.992000000000000171e+01,3.103242285074041956e-02
4.996000000000000085e+01,3.091839756973761497e-02
5.000000000000000000e+01,2.937331573312861044e-02
5.003999999999999915e+01,2.091559589431152971e-02
5.007999999999999829e+01,3.628974578306750493e-02
5.011999999999999744e+01,2.234827714176441243e-02
5.015999999999999659e+01,1.174233397262450587e-02
5.020000000000000284e+01,2.758987891566409487e-02
5.024000000000000199e+01,3.795475224415952031e-02
5.028000000000000114e+01,3.235045229635062636e-02
5.032000000000000028e+01,3.627823705280519562e-02
5.035999999999999943e+01,2.018524212735114259e-02
5.039999999999999858e+01,2.863908822496826975e-02
5.043999999999999773e+01,3.637684257247716935e-02
5.047999999999999687e+01,4.125353720004805436e-02
5.052000000000000313e+01,2.348781861776996077e-02
5.056000000000000227e+01,3.122225054145006187e-02
5.060000000000000142e+01,3.824058206168821222e-02
5.064000000000000057e+01,3.739292499349655685e-02
5.067999999999999972e+01,4.417069688712645797e-02
5.071999999999999886e+01,3.021268102668157179e-02
5.075999999999999801e+01,1.911349912028836862e-02
5.079999999999999716e+01,3.732772728473532364e-02
5.084000000000000341e+01,3.242286586455566527e-02
5.088000000000000256e+01,3.514342258953054299e-02
5.092000000000000171e+01,4.096113414927858576e-02
5.096000000000000085e+01,3.700620354148837637e-02
5.100000000000000000e+01,2.232531046660574808e-02
5.103999999999999915e+01,2.432634917763975071e-02
5.107999999999999829e+01,3.967270403448491106e-02
5.111999999999999744e+01,3.023164742498343771e-02
5.115999999999999659e+01,3.056095962379907355e-02
5.120000000000000284e+01,2.040262807291033653e-02
5.124000000000000199e+01,3.741271698969788478e-02
5.128000000000000114e+01,2.034053395865432004e-02
5.132000000000000028e+01,3.401171007944744223e-02
5.135999999999999943e+01,2.956868870743780200e-02
5.139999999999999858e+01,3.894762524268225584e-02
5.143999999999999773e+01,2.401579207302315458e-02
5.147999999999999687e+01,3.220076431210227436e-02
5.152000000000000313e+01,4.157622266351226892e-02
5.156000000000000227e+01,2.664090482001839691e-02
5.160000000000000142e+01,4.364057865530318603e-02
5.164000000000000057e+01,3.561448336685184984e-02
5.167999999999999972e+01,2.711055879901166921e-02
5.171999999999999886e+01,3.934013131935772817e-02
5.175999999999999801e+01,3.750708679250444599e-02
5.179999999999999716e+01,3.614952463248269354e-02
5.184000000000000341e+01,2.716423851808383999e-02
5.188000000000000256e+01,3.033257761255210572e-02
5.192000000000000171e+01,3.588302885629288119e-02
5.196000000000000085e+01,4.071730614325570069e-02
5.200000000000000000e+01,4.173712336739029277e-02
5.203999999999999915e+01,2.940929700315710396e-02
5.207999999999999829e+01,3.281002804195122524e-02
5.211999999999999744e+01,3.430292880035810260e-02
5.215999999999999659e+01,4.723445102213268132e-02
5.220000000000000284e+01,4.467335519570950209e-02
5.224000000000000199e+01,4.163439980322975603e-02
5.228000000000000114e+01,5.074904798628296354e-02
5.232000000000000028e+01,4.746935557385512788e-02
5.235999999999999943e+01,5.014669452485948087e-02
5.239999999999999858e+01,5.043952898403241542e-02
5.243999999999999773e+01,6.884419671678340680e-02
5.247999999999999687e+01,5.769478874874884450e-02
5.252000000000000313e+01,4.273089259455166433e-02
5.256000000000000227e+01,4.635548229204263654e-02
5.260000000000000142e+01,5.283880643024840146e-02
5.264000000000000057e+01,4.144619338303737188e-02
5.267999999999999972e+01,3.910887833530822533e-02
5.271999999999999886e+01,3.534035962530088226e-02
5.275999999999999801e+01,3.800550971350195872e-02
5.279999999999999716e+01,4.281439482358537219e-02
5.284000000000000341e+01,3.356060447646722761e-02
5.288000000000000256e+01,3.455374898243973592e-02
5.292000000000000171e+01,3.578398574785308234e-02
5.296000000000000085e+01,3.391469913260164448e-02
5.300000000000000000e+01,2.465595536035940227e-02
5.303999999999999915e+01,3.255569427547348738e-02
5.307999999999999829e+01,3.950086912641897346e-02
5.311999999999999744e+01,4.334651194336613250e-02
5.315999999999999659e+01,3.980268894998877788e-02
5.320000000000000284e+01,4.436081769653835161e-02
5.324000000000000199e+01,3.271128354605595812e-02
5.328000000000000114e+01,3.321529888777131900e-02
5.332000000000000028e+01,2.752148743610429230e-02
5.335999999999999943e+01,4.017778903540196456e-02
5.339999999999999858e+01,4.329964603787837818e-02
5.343999999999999773e+01,3.855536301858609322e-02
5.347999999999999687e+01,3.929139172128019025e-02
5.352000000000000313e+01,4.050280976746906125e-02
5.356000000000000227e+01,4.171295592570903321e-02
5.360000000000000142e+01,3.553361247695693836e-02
5.364000000000000057e+01,3.769452650551939621e-02
5.367999999999999972e+01,3.890084401991208973e-02
5.371999999999999886e+01,3.891423332274650954e-02
5.375999999999999801e+01,3.821135131879946356e-02
5.379999999999999716e+01,3.369391190202056935e-02
5.384000000000000341e+01,2.655356057935223321e-02
5.388000000000000256e+01,4.252988486541732505e-02
5.392000000000000171e+01,3.133535091124557692e-02
5.396000000000000085e+01,3.134101153638287063e-02
5.400000000000000000e+01,4.111688737316489262e-02
5.403999999999999915e+01,4.707819281711460996e-02
5.407999999999999829e+01,2.849025624210049096e-02
5.411999999999999744e+01,3.254232322770908570e-02
5.415999999999999659e+01,4.827123304406994581e-02
5.420000000000000284e+01,3.682926947686002150e-02
5.424000000000000199e+01,3.396586047101865513e-02
5.428000000000000114e+01,4.992917382758393918e-02
5.432000000000000028e+01,3.967492544679872279e-02
5.435999999999999943e+01,3.871421373954732348e-02
5.439999999999999858e+01,4.919200234899257645e-02
5.443999999999999773e+01,4.775199477439626833e-02
5.447999999999999687e+01,4.011409766974859820e-02
5.452000000000000313e+01,4.772796693667988310e-02
5.456000000000000227e+01,4.914394234689293400e-02
5.460000000000000142e+01,4.889028288410230544e-02
5.464000000000000057e+01,6.055176982611822772e-02
5.467999999999999972e+01,5.719716366137513053e-02
5.471999999999999886e+01,6.432772237044082075e-02
5.475999999999999801e+01,6.240042199745951534e-02
5.479999999999999716e+01,5.928013500291769849e-02
5.484000000000000341e+01,6.831331313057048549e-02
5.488000000000000256e+01,6.566700081156939817e-02
5.492000000000000171e+01,7.016922907293784983e-02
5.496000000000000085e+01,7.490843926374311790e-02
5.500000000000000000e+01,7.416472040332813820e-02
5.503999999999999915e+01,7.484962681595894174e-02
5.507999999999999829e+01,6.671498637393054321e-02
5.511999999999999744e+01,7.693036379619674903e-02
5.515999999999999659e+01,8.499941699068129519e-02
5.520000000000000284e+01,6.756584945664577402e-02
5.524000000000000199e+01,6.014075960497438506e-02
5.528000000000000114e+01,6.105583853394765809e-02
5.532000000000000028e+01,7.507767476133517248e-02
5.535999999999999943e+01,6.836347228797205744e-02
5.539999999999999858e+01,6.498451189009517293e-02
5.543999999999999773e+01,6.255749606381966199e-02
5.547999999999999687e+01,6.203574078203261122e-02
5.552000000000000313e+01,6.294258481329036148e-02
5.556000000000000227e+01,5.908145810882558385e-02
5.560000000000000142e+01,6.761208495727573375e-02
5.564000000000000057e+01,5.778995330219284521e-02
5.567999999999999972e+01,4.987307137493144499e-02
5.571999999999999886e+01,5.935285672574290572e-02
5.575999999999999801e+01,5.858308124089624952e-02
5.579999999999999716e+01,5.638193551709867746e-02
5.584000000000000341e+01,4.059461115420414518e-02
5.588000000000000256e+01,7.056515996861177642e-02
5.592000000000000171e+01,6.001828846902346887e-02
5.596000000000000085e+01,4.684839040687483608e-02
5.600000000000000000e+01,6.251496211411247672e-02
5.603999999999999915e+01,6.626365110397207381e-02
5.607999999999999829e+01,6.286104589422326916e-02
5.611999999999999744e+01,6.279364381995926336e-02
5.615999999999999659e+01,6.725309038812242457e-02
5.620000000000000284e+01,7.290276995860728304e-02
5.624000000000000199e+01,7.330778294859123523e-02
5.628000000000000114e+01,6.894478626285116540e-02
5.632000000000000028e+01,5.600050519317133213e-02
5.635999999999999943e+01,6.212116352661588292e-02
5.639999999999999858e+01,7.110035078410104070e-02
5.643999999999999773e+01,6.196506580544006854e-02
5.647999999999999687e+01,7.451633861450995822e-02
5.652000000000000313e+01,6.370988511155349643e-02
5.656000000000000227e+01,7.006172392261317272e-02
5.660000000000000142e+01,6.092070671879977473e-02
5.664000000000000057e+01,6.417138682123256499e-02
5.667999999999999972e+01,7.766879626008181547e-02
5.671999999999999886e+01,6.876178670645836932e-02
5.675999999999999801e+01,7.748971771829422928e-02
5.679999999999999716e+01,5.690166892339115073e-02
5.684000000000000341e+01,7.372990769385820431e-02
5.688000000000000256e+01,7.006035509096004976e-02
5.692000000000000171e+01,6.758099655038213305e-02
5.696000000000000085e+01,7.296505686233523136e-02
5.700000000000000000e+01,6.595452346879816796e-02
5.703999999999999915e+01,5.727422323891918909e-02
5.707999999999999829e+01,5.812564210995711800e-02
5.711999999999999744e+01,6.850877791857851173e-02
5.715999999999999659e+01,5.601081186994945338e-02
5.720000000000000284e+01,6.353105793066358975e-02
5.724000000000000199e+01,4.769353873935001931e-02
5.728000000000000114e+01,4.734596618366516269e-02
5.732000000000000028e+01,6.225000856622028844e-02
5.735999999999999943e+01,6.213781289867779944e-02
5.739999999999999858e+01,5.773420605018611540e-02
5.743999999999999773e+01,5.452076514068028568e-02
5.747999999999999687e+01,3.891270456568328429e-02
5.752000000000000313e+01,4.165453205497628847e-02
5.756000000000000227e+01,4.630150759542028815e-02
5.760000000000000142e+01,5.309195855773711503e-02
5.764000000000000057e+01,4.057622471362980904e-02
5.767999999999999972e+01,5.379858583618840617e-02
5.771999999999999886e+01,4.270983761049784722e-02
5.775999999999999801e+01,4.377439658366280573e-02
5.779999999999999716e+01,5.460896525179836231e-02
5.784000000000000341e+01,3.851079320707777309e-02
5.788000000000000256e+01,3.623422860959856634e-02
5.792000000000000171e+01,3.824608793382126837e-02
5.796000000000000085e+01,3.668149439259242583e-02
5.800000000000000000e+01,3.702202510584712974e-02
5.803999999999999915e+01,4.784754113623742450e-02
5.807999999999999829e+01,3.674522368892935154e-02
5.811999999999999744e+01,3.994115977697244857e-02
5.815999999999999659e+01,4.814049540888239165e-02
5.820000000000000284e+01,3.989357035636219989e-02
5.824000000000000199e+01,4.665988095135840258e-02
5.828000000000000114e+01,3.650326746714729204e-02
5.832000000000000028e+01,4.183654437189611441e-02
5.835999999999999943e+01,3.406016541565320271e-02
5.839999999999999858e+01,3.700708184060031575e-02
5.843999999999999773e+01,3.113426969088166005e-02
5.847999999999999687e+01,3.431644185730017144e-02
5.852000000000000313e+01,2.867888112238601780e-02
5.856000000000000227e+01,3.257295944505251423e-02
5.860000000000000142e+01,4.099375444680811859e-02
5.864000000000000057e+01,2.724835615014227497e-02
5.867999999999999972e+01,3.209111271515264346e-02
5.871999999999999886e+01,3.597900018598333000e-02
5.875999999999999801e+01,3.652872105874939435e-02
5.879999999999999716e+01,2.968867109117982739e-02
5.884000000000000341e+01,3.524019944651886338e-02
5.888000000000000256e+01,3.054199822619367913e-02
5.892000000000000171e+01,4.300196168321325507e-02
5.896000000000000085e+01,4.616550937412235156e-02
5.900000000000000000e+01,3.264442357987789450e-02
5.903999999999999915e+01,3.199156435998527087e-02
5.907999999999999829e+01,3.276711191646373283e-02
5.911999999999999744e+01,3.568605268814542542e-02
5.915999999999999659e+01,3.002355547921503609e-02
5.920000000000000284e+01,3.460765131669608224e-02
5.924000000000000199e+01,3.704520226638738367e-02
5.928000000000000114e+01,3.852785383523124607e-02
5.932000000000000028e+01,3.953226292800449820e-02
5.935999999999999943e+01,3.457684809810532972e-02
5.939999999999999858e+01,2.699822065897241816e-02
5.943999999999999773e+01,2.799786654786444798e-02
5.947999999999999687e+01,3.686079499928258257e-02
5.952000000000000313e+01,2.355748255894432250e-02
5.956000000000000227e+01,4.266539036214594266e-02
5.960000000000000142e+01,3.055053065282858568e-02
5.964000000000000057e+01,2.915889926136548682e-02
5.967999999999999972e+01,3.539221008170626015e-02
5.971999999999999886e+01,2.613249614716775873e-02
5.975999999999999801e+01,2.068444755288399023e-02
5.979999999999999716e+01,2.691293675934139373e-02
5.984000000000000341e+01,2.670491701501507761e-02
5.988000000000000256e+01,4.055672608531473572e-02
5.992000000000000171e+01,2.962064775591717602e-02
5.996000000000000085e+01,3.846430273180230508e-02
