2.003999999999999915e+01,4.350573696424355624e-02
2.007999999999999829e+01,6.760694301761605018e-02
2.012000000000000099e+01,8.713770459117714529e-02
2.016000000000000014e+01,2.858775109495426472e-02
2.019999999999999929e+01,6.638823760503129168e-02
2.023999999999999844e+01,5.601049522505598122e-02
2.028000000000000114e+01,4.604606097948939214e-02
2.032000000000000028e+01,5.933711110335102706e-02
2.035999999999999943e+01,3.109493269339845545e-02
2.039999999999999858e+01,3.856760945911685834e-02
2.044000000000000128e+01,5.268328378584485883e-02
2.048000000000000043e+01,8.174820243069065573e-02
2.051999999999999957e+01,8.090864148869010564e-02
2.055999999999999872e+01,6.096272134173619239e-02
2.060000000000000142e+01,6.925604220189758575e-02
2.064000000000000057e+01,3.643145618716042006e-02
2.067999999999999972e+01,6.922421823362878701e-02
2.071999999999999886e+01,1.812191219538049000e-02
2.076000000000000156e+01,6.295475266887082255e-02
2.080000000000000071e+01,5.504094804977256727e-02
2.083999999999999986e+01,7.495108021395069375e-02
2.087999999999999901e+01,3.879207180148055989e-02
2.092000000000000171e+01,3.087231512540357034e-02
2.096000000000000085e+01,6.323586738000547269e-02
2.100000000000000000e+01,5.282027574695625366e-02
2.103999999999999915e+01,7.728893620653887186e-02
2.107999999999999829e+01,4.319658917048677105e-02
2.112000000000000099e+01,3.900474965981593628e-02
2.116000000000000014e+01,5.972967176611730655e-02
2.119999999999999929e+01,3.933670577375585758e-02
2.123999999999999844e+01,6.421080534976074394e-02
2.128000000000000114e+01,6.873263304929473627e-02
2.132000000000000028e+01,1.469346130015265414e-02
2.135999999999999943e+01,4.413008805622097713e-02
2.139999999999999858e+01,4.740007516813334737e-02
2.144000000000000128e+01,0.000000000000000000e+00
2.148000000000000043e+01,2.735416967381018583e-02
2.151999999999999957e+01,5.969012403675227202e-02
2.155999999999999872e+01,2.142103114484986831e-02
2.160000000000000142e+01,5.084587851481392473e-02
2.164000000000000057e+01,6.739408695309830055e-02
2.167999999999999972e+01,7.978721548760933646e-02
2.171999999999999886e+01,5.853809423288827002e-02
2.176000000000000156e+01,6.802012650369892999e-02
2.180000000000000071e+01,6.130302704108942652e-02
2.183999999999999986e+01,6.122897208007944958e-02
2.187999999999999901e+01,5.824578073348685159e-02
2.192000000000000171e+01,5.152282980087696113e-02
2.196000000000000085e+01,4.604386787297858746e-02
2.200000000000000000e+01,4.928451716530585225e-02
2.203999999999999915e+01,3.715666731276585921e-02
2.207999999999999829e+01,7.112653573454118250e-02
2.212000000000000099e+01,6.854698188309921170e-02
2.216000000000000014e+01,7.261048326253405349e-02
2.219999999999999929e+01,4.801549819622236842e-02
2.223999999999999844e+01,9.319103620431964941e-02
2.228000000000000114e+01,2.996813445587938676e-02
2.232000000000000028e+01,8.178479598108934212e-02
2.235999999999999943e+01,4.223082353477684847e-02
2.239999999999999858e+01,3.174677698936160392e-02
2.244000000000000128e+01,5.946952764354788284e-02
2.248000000000000043e+01,7.805347796758529966e-02
2.251999999999999957e+01,7.586988572030595179e-02
2.255999999999999872e+01,3.464501232778097184e-02
2.260000000000000142e+01,6.734379678807676795e-02
2.264000000000000057e+01,1.573226526852476367e-02
2.267999999999999972e+01,4.219751699208712514e-02
2.271999999999999886e+01,2.671430703946111804e-02
2.276000000000000156e+01,3.988572278737218674e-02
2.280000000000000071e+01,8.420363920176526795e-02
2.283999999999999986e+01,4.005812363413484983e-02
2.287999999999999901e+01,6.942096303664531398e-02
2.292000000000000171e+01,4.188410572005757393e-02
2.296000000000000085e+01,5.379999985053992434e-02
2.300000000000000000e+01,7.651210008422709707e-02
2.303999999999999915e+01,1.823639591604364271e-02
2.307999999999999829e+01,3.471499023619196989e-02
2.312000000000000099e+01,3.167199891481128210e-02
2.316000000000000014e+01,4.523959085243890038e-02
2.319999999999999929e+01,5.049903114238803170e-02
2.323999999999999844e+01,5.783312789575444784e-02
2.328000000000000114e+01,9.091468188915247106e-02
2.332000000000000028e+01,5.795968261750551742e-02
2.335999999999999943e+01,4.701433283103217259e-02
2.339999999999999858e+01,5.641738478770295939e-02
2.344000000000000128e+01,4.837542318610957987e-02
2.348000000000000043e+01,5.985124146838453202e-02
2.351999999999999957e+01,6.468016791544825561e-02
2.355999999999999872e+01,6.037033024367612771e-02
2.360000000000000142e+01,5.356672612698634706e-02
2.364000000000000057e+01,6.628090725880418643e-02
2.367999999999999972e+01,2.707916440312746476e-02
2.371999999999999886e+01,9.793328451212129915e-02
2.376000000000000156e+01,3.754683959362772883e-02
2.380000000000000071e+01,3.654816328483521948e-02
2.383999999999999986e+01,4.551509670200727664e-02
2.387999999999999901e+01,6.735482708188550438e-02
2.392000000000000171e+01,6.925768637263134131e-02
2.396000000000000085e+01,5.662273543577153734e-02
2.400000000000000000e+01,7.762619902496939450e-02
2.403999999999999915e+01,2.221032672006096123e-02
2.407999999999999829e+01,5.193159320241376442e-02
2.412000000000000099e+01,3.056757499162397404e-02
2.416000000000000014e+01,3.661229260956897630e-02
2.419999999999999929e+01,5.220731975311857648e-02
2.423999999999999844e+01,5.700235649435739932e-02
2.428000000000000114e+01,4.642896919567306852e-02
2.432000000000000028e+01,1.006424274621329357e-01
2.435999999999999943e+01,5.268719977432261004e-02
2.439999999999999858e+01,4.999914360649552331e-02
2.444000000000000128e+01,4.398672461651053495e-02
2.448000000000000043e+01,5.707680676858919999e-02
2.451999999999999957e+01,5.978222017727218701e-02
2.455999999999999872e+01,5.376421526690961655e-02
2.460000000000000142e+01,6.643340325129244717e-02
2.464000000000000057e+01,4.919824978827877504e-02
2.467999999999999972e+01,2.365499430049573457e-02
2.471999999999999886e+01,2.510518114688638225e-02
2.476000000000000156e+01,6.642349206333128531e-02
2.480000000000000071e+01,5.167279383677909205e-02
2.483999999999999986e+01,3.733555663684319514e-02
2.487999999999999901e+01,7.781768927914828327e-02
2.492000000000000171e+01,6.513800269751836292e-02
2.496000000000000085e+01,7.114552108107106976e-02
2.500000000000000000e+01,6.219995183637287706e-02
2.503999999999999915e+01,4.494629263734309377e-02
2.507999999999999829e+01,5.593202465531627032e-02
2.512000000000000099e+01,6.027091848446702871e-02
2.516000000000000014e+01,5.007204232080301326e-02
2.519999999999999929e+01,4.028663925419234682e-02
2.523999999999999844e+01,6.829281499756548190e-02
2.528000000000000114e+01,3.483093817149112564e-02
2.532000000000000028e+01,1.797971702705017730e-02
2.535999999999999943e+01,8.086661806661391005e-02
2.539999999999999858e+01,7.148735151947588351e-02
2.544000000000000128e+01,5.338469615880590824e-02
2.548000000000000043e+01,4.940082821962309828e-02
2.551999999999999957e+01,4.873763000235310783e-02
2.555999999999999872e+01,3.852042245343566956e-02
2.560000000000000142e+01,5.197418857782554191e-02
2.564000000000000057e+01,5.172082534491239530e-02
2.567999999999999972e+01,6.101782126051293748e-02
2.571999999999999886e+01,2.836645608690347917e-02
2.576000000000000156e+01,5.468761296902336505e-02
2.580000000000000071e+01,3.739916236106281128e-02
2.583999999999999986e+01,5.125731434772240469e-02
2.587999999999999901e+01,5.265428183642945764e-02
2.592000000000000171e+01,2.954601031521777998e-02
2.596000000000000085e+01,4.921308899443357920e-02
2.600000000000000000e+01,4.894336632482218508e-02
2.603999999999999915e+01,6.569963574851607480e-02
2.607999999999999829e+01,6.667222921367635391e-02
2.612000000000000099e+01,5.518364622784274753e-02
2.616000000000000014e+01,5.449137529683142217e-02
2.619999999999999929e+01,5.961167051223333069e-02
2.623999999999999844e+01,2.361424661509601772e-02
2.628000000000000114e+01,5.904873033268831506e-02
2.632000000000000028e+01,7.703829705551547280e-02
2.635999999999999943e+01,2.483828973346141611e-02
2.639999999999999858e+01,6.525111986028549194e-02
2.644000000000000128e+01,5.707061670601523001e-02
2.648000000000000043e+01,3.684426144198554853e-02
2.651999999999999957e+01,5.648608925903745442e-02
2.655999999999999872e+01,3.542552096362556330e-02
2.660000000000000142e+01,4.468095620327326711e-02
2.664000000000000057e+01,8.425239631913997163e-02
2.667999999999999972e+01,5.155771176541607687e-02
2.671999999999999886e+01,5.623934337378750509e-02
2.676000000000000156e+01,6.341106173842832316e-02
2.680000000000000071e+01,5.313787920222075301e-02
2.683999999999999986e+01,2.708104618951419351e-02
2.687999999999999901e+01,7.951644951248935944e-02
2.692000000000000171e+01,7.214510433675502821e-02
2.696000000000000085e+01,5.148198633278582015e-02
2.700000000000000000e+01,3.164771404885485806e-02
2.703999999999999915e+01,3.797633734476532630e-02
2.707999999999999829e+01,7.337504345725956445e-02
2.712000000000000099e+01,4.855169550604597484e-02
2.716000000000000014e+01,5.362905759533068834e-02
2.719999999999999929e+01,7.614776294234937293e-02
2.723999999999999844e+01,6.627034039256850251e-02
2.728000000000000114e+01,5.929833430493076235e-02
2.732000000000000028e+01,4.609487606305177204e-02
2.735999999999999943e+01,8.189649902415216398e-02
2.739999999999999858e+01,5.000045643530860728e-02
2.744000000000000128e+01,3.886826331753708008e-02
2.748000000000000043e+01,8.047896586340107239e-02
2.751999999999999957e+01,3.611826696771249651e-02
2.755999999999999872e+01,5.986702043748436813e-02
2.760000000000000142e+01,3.959091449856515926e-02
2.764000000000000057e+01,2.886523342498597405e-02
2.767999999999999972e+01,4.679434301458830492e-02
2.771999999999999886e+01,1.280766407382776841e-02
2.776000000000000156e+01,3.571701289279501090e-02
2.780000000000000071e+01,4.491930477708359210e-02
2.783999999999999986e+01,5.287390919177684112e-02
2.787999999999999901e+01,8.366893918428611188e-02
2.792000000000000171e+01,8.289848862130588802e-02
2.796000000000000085e+01,6.177599015552673323e-02
2.800000000000000000e+01,8.592078391410506999e-02
2.803999999999999915e+01,5.731917533000292081e-02
2.807999999999999829e+01,2.746988732326373361e-02
2.812000000000000099e+01,4.454914464755097697e-02
2.816000000000000014e+01,8.197696331298788552e-02
2.819999999999999929e+01,6.458182364639583617e-02
2.823999999999999844e+01,5.092275717137486474e-02
2.828000000000000114e+01,4.307632658307185280e-02
2.832000000000000028e+01,7.094501672006288395e-02
2.835999999999999943e+01,4.938981341003077091e-02
2.839999999999999858e+01,4.859849175890400969e-02
2.844000000000000128e+01,4.323700458919775558e-02
2.848000000000000043e+01,5.365565451114674006e-02
2.851999999999999957e+01,7.819319378272131249e-02
2.855999999999999872e+01,6.493558989539953419e-02
2.860000000000000142e+01,4.170876633377048476e-02
2.864000000000000057e+01,7.288612641259820113e-02
2.867999999999999972e+01,6.834490870999636314e-02
2.871999999999999886e+01,2.019418142197300023e-02
2.876000000000000156e+01,5.759606210769425277e-02
2.880000000000000071e+01,3.768313095399757062e-02
2.883999999999999986e+01,6.802126743858194491e-02
2.887999999999999901e+01,5.474989970238361425e-02
2.892000000000000171e+01,7.719367280887494409e-02
2.896000000000000085e+01,7.596293337518049416e-02
2.900000000000000000e+01,8.137547851067382376e-02
2.903999999999999915e+01,5.148477020597235637e-02
2.907999999999999829e+01,4.111202954749891558e-02
2.912000000000000099e+01,7.559130639505760862e-02
2.916000000000000014e+01,3.614329264173767042e-02
2.919999999999999929e+01,3.656355182720003039e-02
2.923999999999999844e+01,3.449023367126459461e-02
2.928000000000000114e+01,4.902770397177350775e-02
2.932000000000000028e+01,3.698348790695214078e-02
2.935999999999999943e+01,3.282850529414811647e-02
2.939999999999999858e+01,4.445369061967286567e-02
2.944000000000000128e+01,4.527905989364917200e-02
2.948000000000000043e+01,7.143678201661507465e-02
2.951999999999999957e+01,3.737253054545572328e-02
2.955999999999999872e+01,2.864063460560534180e-02
2.960000000000000142e+01,4.540493000073532806e-03
2.964000000000000057e+01,3.069144585601681421e-02
2.967999999999999972e+01,4.064353118700341633e-02
2.971999999999999886e+01,4.851736754130601265e-02
2.976000000000000156e+01,7.092544709198241037e-02
2.980000000000000071e+01,4.847811645615726639e-02
2.983999999999999986e+01,5.053252619816397256e-02
2.987999999999999901e+01,3.306557695463292063e-02
2.992000000000000171e+01,5.505161251996125438e-02
2.996000000000000085e+01,8.326565257151301302e-02
3.000000000000000000e+01,5.707210691402037073e-02
3.003999999999999915e+01,7.739185869242301563e-02
3.007999999999999829e+01,5.950120600520125008e-02
3.012000000000000099e+01,5.282231041841095598e-02
3.016000000000000014e+01,6.856860458474314801e-02
3.019999999999999929e+01,5.316480691248657436e-02
3.023999999999999844e+01,3.236027953224273473e-02
3.028000000000000114e+01,4.228719134454951567e-02
3.032000000000000028e+01,6.217993015069405577e-02
3.035999999999999943e+01,1.603635173590303720e-02
3.039999999999999858e+01,5.752199763639213176e-02
3.044000000000000128e+01,5.955131432930185070e-02
3.048000000000000043e+01,5.659522163197999722e-02
3.051999999999999957e+01,6.568152398828179528e-02
3.055999999999999872e+01,8.016522640660765642e-02
3.060000000000000142e+01,7.138978354309362395e-02
3.064000000000000057e+01,6.510455752834080900e-02
3.067999999999999972e+01,4.220518524682665557e-02
3.071999999999999886e+01,1.473572389283660938e-02
3.076000000000000156e+01,5.371457311389425671e-02
3.080000000000000071e+01,3.994711253229159265e-02
3.083999999999999986e+01,5.857235900266508088e-02
3.087999999999999901e+01,6.598252543244251256e-02
3.092000000000000171e+01,4.556512233088561709e-02
3.096000000000000085e+01,4.009731493129135155e-02
3.100000000000000000e+01,4.168817142966783212e-02
3.103999999999999915e+01,6.362768583269318157e-02
3.107999999999999829e+01,2.659121575921432820e-02
3.112000000000000099e+01,4.852744745686650429e-02
3.116000000000000014e+01,4.180549312854774102e-02
3.119999999999999929e+01,2.719096765529015192e-02
3.123999999999999844e+01,5.410603260314970908e-02
3.128000000000000114e+01,4.945572965293545953e-02
3.132000000000000028e+01,6.723065534947525457e-02
3.135999999999999943e+01,5.717802626743750949e-02
3.139999999999999858e+01,5.459938676576511080e-02
3.144000000000000128e+01,6.406317316438972509e-02
3.148000000000000043e+01,6.646502234778838003e-02
3.151999999999999957e+01,5.515993932436168146e-02
3.155999999999999872e+01,5.465134941231865329e-02
3.160000000000000142e+01,6.203206805723705808e-02
3.164000000000000057e+01,2.995649772936741576e-02
3.167999999999999972e+01,3.608803440899220616e-02
3.171999999999999886e+01,1.397671610967948612e-02
3.176000000000000156e+01,4.419312470729400838e-02
3.180000000000000071e+01,5.821073686141636089e-02
3.183999999999999986e+01,5.976736435038338541e-02
3.187999999999999901e+01,2.186771091352055982e-02
3.192000000000000171e+01,5.977993970010080961e-03
3.196000000000000085e+01,3.950882473364308173e-02
3.200000000000000000e+01,5.559492894719038347e-02
3.203999999999999915e+01,5.963536747217828421e-02
3.207999999999999829e+01,3.626358763026080179e-02
3.211999999999999744e+01,5.525205225656940750e-02
3.215999999999999659e+01,3.353830853277354335e-02
3.220000000000000284e+01,4.131013156480226045e-02
3.224000000000000199e+01,4.783441465480384874e-02
3.228000000000000114e+01,5.892553093510217305e-02
3.232000000000000028e+01,5.547911729017445531e-02
3.235999999999999943e+01,6.698234628779937971e-02
3.239999999999999858e+01,8.554428612398480569e-02
3.243999999999999773e+01,6.464996381057647179e-02
3.247999999999999687e+01,3.503248872774521877e-02
3.252000000000000313e+01,3.905371383799059043e-02
3.256000000000000227e+01,1.940054711242415048e-02
3.260000000000000142e+01,2.674108692949461047e-02
3.264000000000000057e+01,3.615659838251454594e-02
3.267999999999999972e+01,3.975614966749223961e-02
3.271999999999999886e+01,2.508037400166410538e-02
3.275999999999999801e+01,2.950737709796003028e-02
3.279999999999999716e+01,3.393279584085705930e-02
3.284000000000000341e+01,3.420350886354055903e-02
3.288000000000000256e+01,4.610138379747309723e-02
3.292000000000000171e+01,3.930862621560090447e-02
3.296000000000000085e+01,5.701771362201816379e-02
3.300000000000000000e+01,1.544651793739452994e-01
3.303999999999999915e+01,1.568045588068161800e-01
3.307999999999999829e+01,6.901960051135984375e-02
3.311999999999999744e+01,4.103803558661517359e-02
3.315999999999999659e+01,4.212675733473026513e-02
3.320000000000000284e+01,4.944359220300544033e-02
3.324000000000000199e+01,2.727168624401985625e-02
3.328000000000000114e+01,5.285912316725842330e-02
3.332000000000000028e+01,5.477219373671998737e-02
3.335999999999999943e+01,6.332869506177785102e-02
3.339999999999999858e+01,3.741271367464441000e-02
3.343999999999999773e+01,4.305890197327357644e-02
3.347999999999999687e+01,4.579634282263699702e-02
3.352000000000000313e+01,4.562503756389409137e-02
3.356000000000000227e+01,6.123403972409005580e-02
3.360000000000000142e+01,5.026149902304469924e-02
3.364000000000000057e+01,5.797645431883968054e-02
3.367999999999999972e+01,6.153673205877504410e-02
3.371999999999999886e+01,3.145516235739163891e-02
3.375999999999999801e+01,3.875014486221277366e-02
3.379999999999999716e+01,5.725700785415908239e-02
3.384000000000000341e+01,5.125889738580964583e-02
3.388000000000000256e+01,1.992519025672915070e-02
3.392000000000000171e+01,1.392398484536623744e-02
3.396000000000000085e+01,4.488402607520896453e-02
3.400000000000000000e+01,2.808161204473773320e-02
3.403999999999999915e+01,3.993420192184271578e-02
3.407999999999999829e+01,5.635368534143156416e-02
3.411999999999999744e+01,4.577633106405793600e-02
3.415999999999999659e+01,3.062900305394385472e-02
3.420000000000000284e+01,6.116448741874008083e-02
3.424000000000000199e+01,4.019971413300362645e-02
3.428000000000000114e+01,4.290620555223220028e-02
3.432000000000000028e+01,3.190585864581517439e-02
3.435999999999999943e+01,3.253272327355674620e-02
3.439999999999999858e+01,5.018586029698329787e-02
3.443999999999999773e+01,5.039435258106639975e-02
3.447999999999999687e+01,6.139943588119226026e-02
3.452000000000000313e+01,1.841239729411852516e-02
3.456000000000000227e+01,5.807097525336561705e-02
3.460000000000000142e+01,4.539868309092246618e-02
3.464000000000000057e+01,2.607987193566813425e-02
3.467999999999999972e+01,4.413764383329169677e-02
3.471999999999999886e+01,4.267421902570248810e-02
3.475999999999999801e+01,5.906770322583067279e-02
3.479999999999999716e+01,4.514187436233196848e-02
3.484000000000000341e+01,3.038390500298486507e-02
3.488000000000000256e+01,3.140628732084701363e-02
3.492000000000000171e+01,4.696308584468570496e-02
3.496000000000000085e+01,3.427713802352352207e-02
3.500000000000000000e+01,3.031123729949314338e-02
3.503999999999999915e+01,4.129506907571593721e-02
3.507999999999999829e+01,7.428894329690827192e-02
3.511999999999999744e+01,4.913759304032223885e-02
3.515999999999999659e+01,8.835813953236498763e-02
3.520000000000000284e+01,2.250317762883724190e-02
3.524000000000000199e+01,2.475792559343454463e-02
3.528000000000000114e+01,5.192990860438207595e-02
3.532000000000000028e+01,2.220261065574223591e-02
3.535999999999999943e+01,3.732753943404963637e-02
3.539999999999999858e+01,6.075721645028844820e-02
3.543999999999999773e+01,2.853355334281124436e-02
3.547999999999999687e+01,1.375151111312879031e-02
3.552000000000000313e+01,2.222546289356505667e-02
3.556000000000000227e+01,3.817354373497676423e-02
3.560000000000000142e+01,4.913638685460012395e-02
3.564000000000000057e+01,4.639243590684834911e-02
3.567999999999999972e+01,2.911106769128632074e-02
3.571999999999999886e+01,4.962162966955228210e-02
3.575999999999999801e+01,3.026072854368301243e-02
3.579999999999999716e+01,5.914596401823999684e-03
3.584000000000000341e+01,3.348101568438528741e-02
3.588000000000000256e+01,6.561438886161756467e-02
3.592000000000000171e+01,2.880444534353202024e-02
3.596000000000000085e+01,5.470517631407977033e-02
3.600000000000000000e+01,4.405695039383007716e-02
3.603999999999999915e+01,2.883881377534633014e-02
3.607999999999999829e+01,2.690919544407846184e-02
3.611999999999999744e+01,2.830060224204757058e-02
3.615999999999999659e+01,3.716615821838763906e-02
3.620000000000000284e+01,4.478430702751207138e-02
3.624000000000000199e+01,4.326411686542915025e-02
3.628000000000000114e+01,3.883527313526016073e-02
3.632000000000000028e+01,3.232840171975977228e-02
3.635999999999999943e+01,5.364598745750389502e-02
3.639999999999999858e+01,7.681521677036655220e-03
3.643999999999999773e+01,5.100773181015581803e-02
3.647999999999999687e+01,5.612375206320449617e-02
3.652000000000000313e+01,2.967458011010136454e-02
3.656000000000000227e+01,5.306142236830618114e-02
3.660000000000000142e+01,5.028213462304553794e-02
3.664000000000000057e+01,4.957795262970572658e-02
3.667999999999999972e+01,4.887231637545914192e-02
3.671999999999999886e+01,5.605616034661703440e-02
3.675999999999999801e+01,3.375138151256879687e-02
3.679999999999999716e+01,3.594857641814235699e-02
3.684000000000000341e+01,3.689838561505558168e-02
3.688000000000000256e+01,7.605547617022592743e-02
3.692000000000000171e+01,3.048741726876838878e-02
3.696000000000000085e+01,3.184820009463363438e-02
3.700000000000000000e+01,5.148127930395759999e-02
3.703999999999999915e+01,5.408511322011676226e-02
3.707999999999999829e+01,5.502625720377656016e-02
3.711999999999999744e+01,5.098221442971707928e-02
3.715999999999999659e+01,6.437984886216015223e-02
3.720000000000000284e+01,4.662762615896417356e-02
3.724000000000000199e+01,5.005489378176729287e-02
3.728000000000000114e+01,3.728354869995879201e-02
3.732000000000000028e+01,3.780076348131718861e-02
3.735999999999999943e+01,6.572715667411560547e-02
3.739999999999999858e+01,5.378214175032709071e-02
3.743999999999999773e+01,2.729976856975548788e-02
3.747999999999999687e+01,5.023812817636797573e-02
3.752000000000000313e+01,4.991757452177036231e-02
3.756000000000000227e+01,2.966060711350210211e-02
3.760000000000000142e+01,1.314002672817751391e-02
3.764000000000000057e+01,3.025831820437259803e-02
3.767999999999999972e+01,1.788801772203490320e-02
3.771999999999999886e+01,2.420535003482827269e-02
3.775999999999999801e+01,3.176720111041934913e-02
3.779999999999999716e+01,3.725107412358823200e-02
3.784000000000000341e+01,3.733447224911528445e-02
3.788000000000000256e+01,7.687112207428457855e-02
3.792000000000000171e+01,3.957358911697019671e-02
3.796000000000000085e+01,5.252742958235109838e-02
3.800000000000000000e+01,4.928268148399523457e-02
3.803999999999999915e+01,3.357715660023937593e-02
3.807999999999999829e+01,3.116021706168502561e-02
3.811999999999999744e+01,1.752844023244243959e-02
3.815999999999999659e+01,2.632212138826461184e-02
3.820000000000000284e+01,5.463407597472921817e-02
3.824000000000000199e+01,5.511870646208687219e-02
3.828000000000000114e+01,4.272725594020521794e-02
3.832000000000000028e+01,4.113252518569867483e-02
3.835999999999999943e+01,4.202827012377793880e-02
3.839999999999999858e+01,6.867197926025993271e-02
3.843999999999999773e+01,6.375056056625638679e-02
3.847999999999999687e+01,9.828241368929069299e-02
3.852000000000000313e+01,3.646042741975698970e-02
3.856000000000000227e+01,6.143731452048968589e-02
3.860000000000000142e+01,6.938500863328642132e-02
3.864000000000000057e+01,7.234756695243295399e-02
3.867999999999999972e+01,7.074030308988635274e-02
3.871999999999999886e+01,4.919666436730076031e-02
3.875999999999999801e+01,7.624317680741486691e-02
3.879999999999999716e+01,5.594270719717798351e-02
3.884000000000000341e+01,6.678927605846732285e-02
3.888000000000000256e+01,6.475978402791306154e-02
3.892000000000000171e+01,6.023703921661133914e-02
3.896000000000000085e+01,6.817228471442982052e-02
3.900000000000000000e+01,6.198553653149174031e-02
3.903999999999999915e+01,5.372085186208255814e-02
3.907999999999999829e+01,7.494196462796817726e-02
3.911999999999999744e+01,7.622671594541198525e-02
3.915999999999999659e+01,6.629666484231996892e-02
3.920000000000000284e+01,9.000553790597647097e-02
3.924000000000000199e+01,7.467368908798756311e-02
3.928000000000000114e+01,8.924295668188945985e-02
3.932000000000000028e+01,1.121171039473745773e-01
3.935999999999999943e+01,1.109017751034016980e-01
3.939999999999999858e+01,9.473384144867427747e-02
3.943999999999999773e+01,1.209263976943999452e-01
3.947999999999999687e+01,1.313357272700956258e-01
3.952000000000000313e+01,1.135024633929977295e-01
3.956000000000000227e+01,1.396909425230217772e-01
3.960000000000000142e+01,1.513421358188873633e-01
3.964000000000000057e+01,1.484560446217541851e-01
3.967999999999999972e+01,1.837773286640579096e-01
3.971999999999999886e+01,2.112063272284413207e-01
3.975999999999999801e+01,2.398799116136083598e-01
3.979999999999999716e+01,3.080068120740837023e-01
3.984000000000000341e+01,2.702277351719201692e-01
3.988000000000000256e+01,3.719922342895695122e-01
3.992000000000000171e+01,4.064747999110621124e-01
3.996000000000000085e+01,5.032528618663615338e-01
4.000000000000000000e+01,5.884008372946817333e-01
4.003999999999999915e+01,6.947283969301809581e-01
4.007999999999999829e+01,8.118527353440826433e-01
4.011999999999999744e+01,9.555557201678493984e-01
4.015999999999999659e+01,9.061371614907907102e-01
4.020000000000000284e+01,1.000000000000000000e+00
4.024000000000000199e+01,9.946018708909262207e-01
4.028000000000000114e+01,8.957571472958940628e-01
4.032000000000000028e+01,8.317973222324748228e-01
4.035999999999999943e+01,7.138455710911738583e-01
4.039999999999999858e+01,6.723099482435498375e-01
4.043999999999999773e+01,5.364971117330111783e-01
4.047999999999999687e+01,4.704554098657096617e-01
4.052000000000000313e+01,4.218554978623267337e-01
4.056000000000000227e+01,3.906973770640217447e-01
4.060000000000000142e+01,3.387723198985895801e-01
4.064000000000000057e+01,3.150871756612885211e-01
4.067999999999999972e+01,2.772800940719387097e-01
4.071999999999999886e+01,2.569148090523057371e-01
4.075999999999999801e+01,2.461003887983980731e-01
4.079999999999999716e+01,2.132731020707691327e-01
4.084000000000000341e+01,2.012101141027159423e-01
4.088000000000000256e+01,2.148951734849676165e-01
4.092000000000000171e+01,2.447760993303424171e-01
4.096000000000000085e+01,1.998995056753588850e-01
4.100000000000000000e+01,1.886618965393108971e-01
4.103999999999999915e+01,1.836526633907264450e-01
4.107999999999999829e+01,1.690899412804622859e-01
4.111999999999999744e+01,1.744609027762968056e-01
4.115999999999999659e+01,1.715243148051633915e-01
4.120000000000000284e+01,1.768926695401196181e-01
4.124000000000000199e+01,2.092550205082105153e-01
4.128000000000000114e+01,1.867948517034982436e-01
4.132000000000000028e+01,1.713936928159624506e-01
4.135999999999999943e+01,1.742649764982938110e-01
4.139999999999999858e+01,1.439099825127686805e-01
4.143999999999999773e+01,1.442868019033536064e-01
4.147999999999999687e+01,1.924232391139039378e-01
4.152000000000000313e+01,1.404681270816875160e-01
4.156000000000000227e+01,1.362726355517556442e-01
4.160000000000000142e+01,1.378902265147260164e-01
4.164000000000000057e+01,1.515505853737197928e-01
4.167999999999999972e+01,1.054046906219383573e-01
4.171999999999999886e+01,1.331830947973196289e-01
4.175999999999999801e+01,1.364567910620281266e-01
4.179999999999999716e+01,1.559263832953734497e-01
4.184000000000000341e+01,1.230653481569363578e-01
4.188000000000000256e+01,1.192748920641764077e-01
4.192000000000000171e+01,8.931848434219283317e-02
4.196000000000000085e+01,1.249801381783811755e-01
4.200000000000000000e+01,1.419514639420195179e-01
4.203999999999999915e+01,1.215434107883819198e-01
4.207999999999999829e+01,1.144240770959171066e-01
4.211999999999999744e+01,6.867943035610360458e-02
4.215999999999999659e+01,1.163787740236898460e-01
4.220000000000000284e+01,9.638094837042551766e-02
4.224000000000000199e+01,1.025465279376934907e-01
4.228000000000000114e+01,8.337679248777016272e-02
4.232000000000000028e+01,8.995515266990117276e-02
4.235999999999999943e+01,9.071787724464037972e-02
4.239999999999999858e+01,8.151184484517279283e-02
4.243999999999999773e+01,7.064330222860706887e-02
4.247999999999999687e+01,1.091956600441893466e-01
4.252000000000000313e+01,8.586523105936298694e-02
4.256000000000000227e+01,8.537571985796708895e-02
4.260000000000000142e+01,8.073183017932746008e-02
4.264000000000000057e+01,6.238138113626222336e-02
4.267999999999999972e+01,7.019435206648627634e-02
4.271999999999999886e+01,8.132856941729980915e-02
4.275999999999999801e+01,8.166341732274899623e-02
4.279999999999999716e+01,8.822670022668913092e-02
4.284000000000000341e+01,7.111593597286360036e-02
4.288000000000000256e+01,1.104863941663396520e-01
4.292000000000000171e+01,3.938254328770262463e-02
4.296000000000000085e+01,6.421458326444434705e-02
4.300000000000000000e+01,7.575538821799547573e-02
4.303999999999999915e+01,7.732745765589511822e-02
4.307999999999999829e+01,8.222078558482158461e-02
4.311999999999999744e+01,6.676257391047993317e-02
4.315999999999999659e+01,6.625436699181304345e-02
4.320000000000000284e+01,5.743867900532347026e-02
4.324000000000000199e+01,6.481893526922041793e-02
4.328000000000000114e+01,4.395672414933649713e-02
4.332000000000000028e+01,5.548763852325901830e-02
4.335999999999999943e+01,6.784794715154164602e-02
4.339999999999999858e+01,6.193328691866131080e-02
4.343999999999999773e+01,8.758113166147148132e-02
4.347999999999999687e+01,4.677778681293445068e-02
4.352000000000000313e+01,5.290350364191286070e-02
4.356000000000000227e+01,6.235049505583475232e-02
4.360000000000000142e+01,4.272440527365852642e-02
4.364000000000000057e+01,6.462832167211036982e-02
4.367999999999999972e+01,5.995103318156823347e-02
4.371999999999999886e+01,5.610315101582363795e-02
4.375999999999999801e+01,5.266936424523865901e-02
4.379999999999999716e+01,6.127841779330164829e-02
4.384000000000000341e+01,4.829001906657907212e-02
4.388000000000000256e+01,7.101726277627837258e-02
4.392000000000000171e+01,7.754611641387834653e-02
4.396000000000000085e+01,6.953783040372857327e-02
4.400000000000000000e+01,5.903646194011442222e-02
4.403999999999999915e+01,5.434825778014493181e-02
4.407999999999999829e+01,5.921102970215659511e-02
4.411999999999999744e+01,6.905634406853737584e-02
4.415999999999999659e+01,5.938077824339744321e-02
4.420000000000000284e+01,5.967150479451547446e-02
4.424000000000000199e+01,7.075914960464568804e-02
4.428000000000000114e+01,6.066466916354480710e-02
4.432000000000000028e+01,4.683118018586499703e-02
4.435999999999999943e+01,3.756492942871510199e-02
4.439999999999999858e+01,7.356652077140470036e-02
4.443999999999999773e+01,6.471319279204729158e-02
4.447999999999999687e+01,7.247116290982483222e-02
4.452000000000000313e+01,7.150638394725274127e-02
4.456000000000000227e+01,5.351261182954172857e-02
4.460000000000000142e+01,5.711388908201427139e-02
4.464000000000000057e+01,4.659336175724954759e-02
4.467999999999999972e+01,4.811570425664646322e-02
4.471999999999999886e+01,2.471812582039170994e-02
4.475999999999999801e+01,7.275307461465330139e-02
4.479999999999999716e+01,5.433687807583778562e-02
4.484000000000000341e+01,4.131856039306360667e-02
4.488000000000000256e+01,5.570967325975523243e-02
4.492000000000000171e+01,3.812056329303716018e-02
4.496000000000000085e+01,5.001744791209163793e-02
4.500000000000000000e+01,5.153035046152317639e-02
4.503999999999999915e+01,5.387270359402261677e-02
4.507999999999999829e+01,6.368950498350905987e-02
4.511999999999999744e+01,3.820359207900471399e-02
4.515999999999999659e+01,7.833584802544939218e-02
4.520000000000000284e+01,4.080354073888309979e-02
4.524000000000000199e+01,5.144628961209253559e-02
4.528000000000000114e+01,6.042662349054336163e-02
4.532000000000000028e+01,5.653111240386434616e-02
4.535999999999999943e+01,4.225163131799985344e-02
4.539999999999999858e+01,5.330503686269026653e-02
4.543999999999999773e+01,5.106728919493233598e-02
4.547999999999999687e+01,5.962650136213801244e-02
4.552000000000000313e+01,6.943049247712555772e-02
4.556000000000000227e+01,5.971365034118240878e-02
4.560000000000000142e+01,4.501190577337885190e-02
4.564000000000000057e+01,7.723929396455564422e-02
4.567999999999999972e+01,5.630555899368756140e-02
4.571999999999999886e+01,5.987409684105703817e-02
4.575999999999999801e+01,7.880803889027988840e-02
4.579999999999999716e+01,5.704022992486038751e-02
4.584000000000000341e+01,8.967718129857395193e-02
4.588000000000000256e+01,7.621332481959773586e-02
4.592000000000000171e+01,7.437706746993677509e-02
4.596000000000000085e+01,1.070105854846104820e-01
4.600000000000000000e+01,7.693080883817553228e-02
4.603999999999999915e+01,7.301456482244560175e-02
4.607999999999999829e+01,9.193935661220105360e-02
4.611999999999999744e+01,1.100323861131468489e-01
4.615999999999999659e+01,9.988304479381103496e-02
4.620000000000000284e+01,1.200503641777936753e-01
4.624000000000000199e+01,1.040843822786627765e-01
4.628000000000000114e+01,1.213422496607517165e-01
4.632000000000000028e+01,1.435827332509940213e-01
4.635999999999999943e+01,1.433952245179175022e-01
4.639999999999999858e+01,1.681253236735912593e-01
4.643999999999999773e+01,1.675202472926835828e-01
4.647999999999999687e+01,1.997237146279969289e-01
4.652000000000000313e+01,2.248657490241361689e-01
4.656000000000000227e+01,2.234266750947806468e-01
4.660000000000000142e+01,2.377683458024300589e-01
4.664000000000000057e+01,2.666448256758516822e-01
4.667999999999999972e+01,2.751698853092195973e-01
4.671999999999999886e+01,2.924153849995147492e-01
4.675999999999999801e+01,2.972004002772271614e-01
4.679999999999999716e+01,3.148589810021609758e-01
4.684000000000000341e+01,2.610827375435936237e-01
4.688000000000000256e+01,2.725094083350454444e-01
4.692000000000000171e+01,2.278678116448213109e-01
4.696000000000000085e+01,2.118816520567601835e-01
4.700000000000000000e+01,1.867575142694541945e-01
4.703999999999999915e+01,1.819825708506818962e-01
4.707999999999999829e+01,1.610093433114273276e-01
4.711999999999999744e+01,1.416962606371407196e-01
4.715999999999999659e+01,1.601754917283595703e-01
4.720000000000000284e+01,1.146955315808689535e-01
4.724000000000000199e+01,9.205664613249515960e-02
4.728000000000000114e+01,1.117785134518779894e-01
4.732000000000000028e+01,9.329055434547221803e-02
4.735999999999999943e+01,8.352305675454921308e-02
4.739999999999999858e+01,8.206070974947124452e-02
4.743999999999999773e+01,6.066228025717148448e-02
4.747999999999999687e+01,5.712118626137745875e-02
4.752000000000000313e+01,8.306617268557742184e-02
4.756000000000000227e+01,7.786164933450369363e-02
4.760000000000000142e+01,5.770479611041642864e-02
4.764000000000000057e+01,3.547029474919621839e-02
4.767999999999999972e+01,3.856875646463438223e-02
4.771999999999999886e+01,8.776579613776308575e-02
4.775999999999999801e+01,5.389929889173555172e-02
4.779999999999999716e+01,3.747483560069399255e-02
4.784000000000000341e+01,5.967333341646813283e-02
4.788000000000000256e+01,6.858075983053631142e-02
4.792000000000000171e+01,5.298368487252750475e-02
4.796000000000000085e+01,5.856645967132045189e-02
4.800000000000000000e+01,4.919691800869710474e-02
4.803999999999999915e+01,4.024161524532257617e-02
4.807999999999999829e+01,4.332929630468515536e-02
4.811999999999999744e+01,5.804465025714722337e-02
4.815999999999999659e+01,6.902112442436279804e-02
4.820000000000000284e+01,4.054186485891106417e-02
4.824000000000000199e+01,3.656496260475878418e-02
4.828000000000000114e+01,3.964730362957281928e-02
4.832000000000000028e+01,4.978888927451296381e-02
4.835999999999999943e+01,3.002692877976584698e-02
4.839999999999999858e+01,3.435201869015960113e-02
4.843999999999999773e+01,4.199854680698160425e-02
4.847999999999999687e+01,4.549089359703727825e-02
4.852000000000000313e+01,4.109124996430949667e-02
4.856000000000000227e+01,3.585992585351442663e-02
4.860000000000000142e+01,4.765535025010225051e-02
4.864000000000000057e+01,3.079317470751312402e-02
4.867999999999999972e+01,3.926399577057523155e-02
4.871999999999999886e+01,3.735095949186769543e-02
4.875999999999999801e+01,3.045312673291707822e-02
4.879999999999999716e+01,4.764235779070430388e-02
4.884000000000000341e+01,5.278648644701128267e-02
4.888000000000000256e+01,4.837738766778229560e-02
4.892000000000000171e+01,5.642661314644190074e-02
4.896000000000000085e+01,4.246324574796153661e-02
4.900000000000000000e+01,5.092569978882791754e-02
4.903999999999999915e+01,3.114587957291204204e-02
4.907999999999999829e+01,3.005407304148523251e-02
4.911999999999999744e+01,3.228372751620179476e-02
4.915999999999999659e+01,4.074203023380332245e-02
4.920000000000000284e+01,4.089305305753897224e-02
4.924000000000000199e+01,3.107554824537881594e-02
4.928000000000000114e+01,3.330106749074696060e-02
4.932000000000000028e+01,4.300117715603151564e-02
4.935999999999999943e+01,4.024088958411452949e-02
4.939999999999999858e+01,4.121738467725619831e-02
4.943999999999999773e+01,4.551535150581883377e-02
4.947999999999999687e+01,5.479604049415192496e-02
4.952000000000000313e+01,4.704790263115036369e-02
4.956000000000000227e+01,2.974656013232809121e-02
4.960000000000000142e+01,3.902418189822257771e-02
4.964000000000000057e+01,4.248641214779280001e-02
4.967999999999999972e+01,3.224231907704683958e-02
4.971999999999999886e+01,4.151688569094032222e-02
4.975999999999999801e+01,1.922670402254667704e-02
4.979999999999999716e+01,4.220454551055372733e-02
4.984000000000000341e+01,3.901670091895998588e-02
4.988000000000000256e+01,4.081159189873380388e-02
4.992000000000000171e+01,4.177484799987067621e-02
4.996000000000000085e+01,1.491117296169606338e-02
5.000000000000000000e+01,3.290021551492319785e-02
5.003999999999999915e+01,3.053795048551238497e-02
5.007999999999999829e+01,3.523498908725493373e-02
5.011999999999999744e+01,6.900288301357540566e-02
5.015999999999999659e+01,3.465856223903049371e-02
5.020000000000000284e+01,5.305789890683728499e-02
5.024000000000000199e+01,7.187154823767730183e-02
5.028000000000000114e+01,3.461704274425696226e-02
5.032000000000000028e+01,3.598558150955438045e-02
5.035999999999999943e+01,4.441343329412316548e-02
5.039999999999999858e+01,5.200966629397144048e-02
5.043999999999999773e+01,4.257710328915854936e-02
5.047999999999999687e+01,4.435698003507062420e-02
5.052000000000000313e+01,5.776461014366478935e-02
5.056000000000000227e+01,5.538938508346923084e-02
5.060000000000000142e+01,3.847724300803594816e-02
5.064000000000000057e+01,4.108379146391551856e-02
5.067999999999999972e+01,4.742716550196447028e-02
5.071999999999999886e+01,2.594363388273656160e-02
5.075999999999999801e+01,2.107161092271846170e-02
5.079999999999999716e+01,3.114984887988000647e-02
5.084000000000000341e+01,5.991615953255806371e-02
5.088000000000000256e+01,4.424307906070008151e-02
5.092000000000000171e+01,5.224182121624740271e-02
5.096000000000000085e+01,3.864334982343779062e-02
5.100000000000000000e+01,3.418077426244209988e-02
5.103999999999999915e+01,3.054785045847116520e-02
5.107999999999999829e+01,4.601831966777256144e-02
5.111999999999999744e+01,3.906095615176081309e-02
5.115999999999999659e+01,4.746917789416373046e-02
5.120000000000000284e+01,2.721988553161126465e-02
5.124000000000000199e+01,6.137553456475306618e-02
5.128000000000000114e+01,2.534244509551410868e-02
5.132000000000000028e+01,4.869804695385812621e-02
5.135999999999999943e+01,4.630332596746787599e-02
5.139999999999999858e+01,3.601671112179329060e-02
5.143999999999999773e+01,3.320475777749970492e-02
5.147999999999999687e+01,2.914590958900057510e-02
5.152000000000000313e+01,3.297703785499921797e-02
5.156000000000000227e+01,3.390002487592187752e-02
5.160000000000000142e+01,5.974079413635730723e-02
5.164000000000000057e+01,4.280344683748094070e-02
5.167999999999999972e+01,4.455420039847498431e-02
5.171999999999999886e+01,5.128775122418344906e-02
5.175999999999999801e+01,4.182317484509593536e-02
5.179999999999999716e+01,3.692608614224479613e-02
5.184000000000000341e+01,3.285867601961268980e-02
5.188000000000000256e+01,4.457218756706730900e-02
5.192000000000000171e+01,4.673257360712404496e-02
5.196000000000000085e+01,3.352546368977844804e-02
5.200000000000000000e+01,4.897395986071981927e-02
5.203999999999999915e+01,4.863965048578067912e-02
5.207999999999999829e+01,4.165940686366471912e-02
5.211999999999999744e+01,5.046009295859390370e-02
5.215999999999999659e+01,4.721578796829876273e-02
5.220000000000000284e+01,5.601460494019114278e-02
5.224000000000000199e+01,4.861531080120429921e-02
5.228000000000000114e+01,5.325914130672434327e-02
5.232000000000000028e+01,4.502736155006397539e-02
5.235999999999999943e+01,2.724247103876271600e-02
5.239999999999999858e+01,3.728257548575058394e-02
5.243999999999999773e+01,2.531020373649336616e-02
5.247999999999999687e+01,4.199345416943954523e-02
5.252000000000000313e+01,5.203078510796583372e-02
5.256000000000000227e+01,2.178190395863837531e-02
5.260000000000000142e+01,3.430926622210671989e-02
5.264000000000000057e+01,4.019071301463426893e-02
5.267999999999999972e+01,4.108749476057036581e-02
5.271999999999999886e+01,4.032211096745443035e-02
5.275999999999999801e+01,3.997112433043342045e-02
5.279999999999999716e+01,4.418765889864161717e-02
5.284000000000000341e+01,9.363927579506419602e-03
5.288000000000000256e+01,4.431174666311907956e-02
5.292000000000000171e+01,3.731211664612589518e-02
5.296000000000000085e+01,4.650875678132906921e-02
5.300000000000000000e+01,6.525667207712929074e-02
5.303999999999999915e+01,2.876714963028441027e-02
5.307999999999999829e+01,5.415825114683435471e-02
5.311999999999999744e+01,3.012628939422284588e-02
5.315999999999999659e+01,4.513277939346607703e-02
5.320000000000000284e+01,5.640055859358649587e-02
5.324000000000000199e+01,4.150276571268164683e-02
5.328000000000000114e+01,3.615625738049185051e-02
5.332000000000000028e+01,7.109414297718806564e-02
5.335999999999999943e+01,1.881555670911307446e-02
5.339999999999999858e+01,2.094198425935671348e-02
5.343999999999999773e+01,3.884938578491597266e-02
5.347999999999999687e+01,5.094152454548318831e-02
5.352000000000000313e+01,4.725090738307931998e-02
5.356000000000000227e+01,3.816034240880045864e-02
5.360000000000000142e+01,5.564887581520948368e-02
5.364000000000000057e+01,4.406466465660829196e-02
5.367999999999999972e+01,3.663269193795243295e-02
5.371999999999999886e+01,2.297015223046541127e-02
5.375999999999999801e+01,4.253171260106446833e-02
5.379999999999999716e+01,4.381865281202571016e-02
5.384000000000000341e+01,5.258033499395084465e-02
5.388000000000000256e+01,4.472864878174728082e-02
5.392000000000000171e+01,5.307326490957330056e-02
5.396000000000000085e+01,4.978826257515970438e-02
5.400000000000000000e+01,4.401051307720982297e-02
5.403999999999999915e+01,3.781657911087066282e-02
5.407999999999999829e+01,5.695582280674379300e-02
5.411999999999999744e+01,3.622421899078974439e-02
5.415999999999999659e+01,3.501142372820297000e-02
5.420000000000000284e+01,5.622462425572544165e-02
5.424000000000000199e+01,4.130479173207691340e-02
5.428000000000000114e+01,4.507314724367985498e-02
5.432000000000000028e+01,3.679658409268302122e-02
5.435999999999999943e+01,3.474884353533398001e-02
5.439999999999999858e+01,3.186961830923550065e-02
5.443999999999999773e+01,3.189672019272454806e-02
5.447999999999999687e+01,3.939858550573277496e-02
5.452000000000000313e+01,4.233115973629385936e-02
5.456000000000000227e+01,4.692412828752916265e-02
5.460000000000000142e+01,5.649999066697801442e-02
5.464000000000000057e+01,3.492658065642231802e-02
5.467999999999999972e+01,2.290450213517141592e-02
5.471999999999999886e+01,3.538499819309329913e-02
5.475999999999999801e+01,4.661870938190600111e-02
5.479999999999999716e+01,4.040845848166851884e-02
5.484000000000000341e+01,4.665673033095693589e-02
5.488000000000000256e+01,3.712229185670456316e-02
5.492000000000000171e+01,3.049419658595613897e-02
5.496000000000000085e+01,3.757056490060515369e-02
5.500000000000000000e+01,5.129108953825466805e-02
5.503999999999999915e+01,5.587390554976139068e-02
5.507999999999999829e+01,4.093620750634868743e-02
5.511999999999999744e+01,4.177953976695950034e-02
5.515999999999999659e+01,2.559423427975513615e-02
5.520000000000000284e+01,4.097182806919675430e-02
5.524000000000000199e+01,4.471984631350930245e-02
5.528000000000000114e+01,5.220484437335830979e-02
5.532000000000000028e+01,4.432245913322062358e-02
5.535999999999999943e+01,4.308424228652085741e-02
5.539999999999999858e+01,4.682894609122885410e-02
5.543999999999999773e+01,4.766563874335303513e-02
5.547999999999999687e+01,4.434838477166042764e-02
5.552000000000000313e+01,4.186093276688027803e-02
5.556000000000000227e+01,4.809421721532402411e-02
5.560000000000000142e+01,6.097167810416374845e-02
5.564000000000000057e+01,5.142145781873798394e-02
5.567999999999999972e+01,4.394698167725603205e-02
5.571999999999999886e+01,6.222105045633188891e-02
5.575999999999999801e+01,4.477744941910303395e-02
5.579999999999999716e+01,5.183645917235914224e-02
5.584000000000000341e+01,4.975778712266677034e-02
5.588000000000000256e+01,4.726299229793180096e-02
5.592000000000000171e+01,6.137987914200950662e-02
5.596000000000000085e+01,7.798783178894638790e-02
5.600000000000000000e+01,4.060438275144895998e-02
5.603999999999999915e+01,4.225948202930553815e-02
5.607999999999999829e+01,5.471189654944941250e-02
5.611999999999999744e+01,5.262757913439575913e-02
5.615999999999999659e+01,6.217120418554362982e-02
5.620000000000000284e+01,5.551685090062376954e-02
5.624000000000000199e+01,4.969232372349108307e-02
5.628000000000000114e+01,3.597606630855900572e-02
5.632000000000000028e+01,3.679494262004937011e-02
5.635999999999999943e+01,5.131832945752724112e-02
5.639999999999999858e+01,4.382937287357142192e-02
5.643999999999999773e+01,4.796836814393509035e-02
5.647999999999999687e+01,2.967971040438730640e-02
5.652000000000000313e+01,6.994929380159005394e-02
5.656000000000000227e+01,5.165905931182262351e-02
5.660000000000000142e+01,4.790396793659578573e-02
5.664000000000000057e+01,4.041028110198133239e-02
5.667999999999999972e+01,3.831487010668301746e-02
5.671999999999999886e+01,5.947616393615062780e-02
5.675999999999999801e+01,7.316105589253296682e-02
5.679999999999999716e+01,5.611206015233228400e-02
5.684000000000000341e+01,2.867947932578346348e-02
5.688000000000000256e+01,4.693047131170191566e-02
5.692000000000000171e+01,4.898350910242725564e-02
5.696000000000000085e+01,3.608453085151160783e-02
5.700000000000000000e+01,3.398289868955661763e-02
5.703999999999999915e+01,5.513798208164540082e-02
5.707999999999999829e+01,3.932950310330749627e-02
5.711999999999999744e+01,4.677774236133277336e-02
5.715999999999999659e+01,4.342709499149028513e-02
5.720000000000000284e+01,5.876473356155836186e-02
5.724000000000000199e+01,6.081161456129325488e-02
5.728000000000000114e+01,5.953523383099351696e-02
5.732000000000000028e+01,2.752498283918706351e-02
5.735999999999999943e+01,5.822612385645976885e-02
5.739999999999999858e+01,4.241153100424229633e-02
5.743999999999999773e+01,5.691397572122223331e-02
5.747999999999999687e+01,4.317442916611911874e-02
5.752000000000000313e+01,4.480068111382485424e-02
5.756000000000000227e+01,3.895055801163929687e-02
5.760000000000000142e+01,4.888154836537945275e-02
5.764000000000000057e+01,5.673522587191465183e-02
5.767999999999999972e+01,6.126565506001233063e-02
5.771999999999999886e+01,4.336847281414938499e-02
5.775999999999999801e+01,3.876053576406628121e-02
5.779999999999999716e+01,6.197777472883350680e-02
5.784000000000000341e+01,6.816646580348607876e-02
5.788000000000000256e+01,5.234286307961439483e-02
5.792000000000000171e+01,5.562288270732580059e-02
5.796000000000000085e+01,5.308778977993277443e-02
5.800000000000000000e+01,5.470508013773400097e-02
5.803999999999999915e+01,5.590632014311717329e-02
5.807999999999999829e+01,4.963120253368553947e-02
5.811999999999999744e+01,6.910471031439449630e-02
5.815999999999999659e+01,5.992093735193798620e-02
5.820000000000000284e+01,5.488955438047436741e-02
5.824000000000000199e+01,7.519148855183299673e-02
5.828000000000000114e+01,6.434427237872064609e-02
5.832000000000000028e+01,5.764945022008032688e-02
5.835999999999999943e+01,5.552233568786890672e-02
5.839999999999999858e+01,5.505574422766415510e-02
5.843999999999999773e+01,4.545155813989203847e-02
5.847999999999999687e+01,5.204382728435685140e-02
5.852000000000000313e+01,5.946599898271238971e-02
5.856000000000000227e+01,4.861371011943578513e-02
5.860000000000000142e+01,5.894162776144472315e-02
5.864000000000000057e+01,6.802289062683623821e-02
5.867999999999999972e+01,6.132157057885950086e-02
5.871999999999999886e+01,4.838985118701563670e-02
5.875999999999999801e+01,4.625553689515955746e-02
5.879999999999999716e+01,3.622957685856601634e-02
5.884000000000000341e+01,7.147194308046793398e-02
5.888000000000000256e+01,6.476706003456104976e-02
5.892000000000000171e+01,6.802896291168586407e-02
5.896000000000000085e+01,6.339922540871205381e-02
5.900000000000000000e+01,5.253909794998910116e-02
5.903999999999999915e+01,7.864105803961121688e-02
5.907999999999999829e+01,6.030390194243815533e-02
5.911999999999999744e+01,4.570385441213398875e-02
5.915999999999999659e+01,6.765058618285654801e-02
5.920000000000000284e+01,3.809789718670659325e-02
5.924000000000000199e+01,6.004323192261101089e-02
5.928000000000000114e+01,6.579069159174538717e-02
5.932000000000000028e+01,6.987620701318018879e-02
5.935999999999999943e+01,6.274759729973375388e-02
5.939999999999999858e+01,6.309391597845120936e-02
5.943999999999999773e+01,5.139548766301180183e-02
5.947999999999999687e+01,6.046198308757393114e-02
5.952000000000000313e+01,4.917748878434990284e-02
5.956000000000000227e+01,5.990385771583908031e-02
5.960000000000000142e+01,6.481516907977218078e-02
5.964000000000000057e+01,6.723392238368859630e-02
5.967999999999999972e+01,5.843856128200132505e-02
5.971999999999999886e+01,4.424345890703464818e-02
5.975999999999999801e+01,6.161140870092100819e-02
5.979999999999999716e+01,5.322931863477244063e-02
5.984000000000000341e+01,6.893466254544224070e-02
5.988000000000000256e+01,5.888996927839661166e-02
5.992000000000000171e+01,4.552210279785723346e-02
5.996000000000000085e+01,4.502824300608416347e-02
