2.003999999999999915e+01,1.385387508813882840e-01
2.007999999999999829e+01,1.256842324939739519e-01
2.012000000000000099e+01,5.567275592079911489e-02
2.016000000000000014e+01,8.863909132436471883e-02
2.019999999999999929e+01,1.012936315076578137e-01
2.023999999999999844e+01,9.505349531185044998e-02
2.028000000000000114e+01,7.133580157811612865e-02
2.032000000000000028e+01,8.162930914780913705e-02
2.035999999999999943e+01,9.050596780536548924e-02
2.039999999999999858e+01,8.521167752398249584e-02
2.044000000000000128e+01,5.913319978631322721e-02
2.048000000000000043e+01,1.218612907924132432e-01
2.051999999999999957e+01,8.208449277898387242e-02
2.055999999999999872e+01,1.164706645878329089e-01
2.060000000000000142e+01,1.055091907200730594e-01
2.064000000000000057e+01,7.612538397923383771e-02
2.067999999999999972e+01,1.095675628294186660e-01
2.071999999999999886e+01,1.132504276208945448e-01
2.076000000000000156e+01,9.000821908163134100e-02
2.080000000000000071e+01,8.140984284540159210e-02
2.083999999999999986e+01,8.036968643259170819e-02
2.087999999999999901e+01,7.649551962772849212e-02
2.092000000000000171e+01,9.482315938527864640e-02
2.096000000000000085e+01,6.591363020653524807e-02
2.100000000000000000e+01,8.991020904623683863e-02
2.103999999999999915e+01,1.191031226699068996e-01
2.107999999999999829e+01,6.515843708820467928e-02
2.112000000000000099e+01,1.245837175581040734e-01
2.116000000000000014e+01,9.473053122192613695e-02
2.119999999999999929e+01,9.321999163824540302e-02
2.123999999999999844e+01,1.077703727425252112e-01
2.128000000000000114e+01,8.453103979083290143e-02
2.132000000000000028e+01,7.782499539811804645e-02
2.135999999999999943e+01,1.079643168961879895e-01
2.139999999999999858e+01,7.386097331452366743e-02
2.144000000000000128e+01,7.849248538145890686e-02
2.148000000000000043e+01,8.217943722103675241e-02
2.151999999999999957e+01,1.151537593726473796e-01
2.155999999999999872e+01,8.483015218655737266e-02
2.160000000000000142e+01,6.489895073061718866e-02
2.164000000000000057e+01,9.078819912914154466e-02
2.167999999999999972e+01,7.841532905318240876e-02
2.171999999999999886e+01,9.438506613660249678e-02
2.176000000000000156e+01,6.642419110709921193e-02
2.180000000000000071e+01,9.184173714581624071e-02
2.183999999999999986e+01,5.018234082933446111e-02
2.187999999999999901e+01,7.371070854647078507e-02
2.192000000000000171e+01,8.165088970413764136e-02
2.196000000000000085e+01,7.967136880390122966e-02
2.200000000000000000e+01,6.399315110201009293e-02
2.203999999999999915e+01,9.649722260966761556e-02
2.207999999999999829e+01,9.357338896019176677e-02
2.212000000000000099e+01,7.458897956085827619e-02
2.216000000000000014e+01,6.316268947933620370e-02
2.219999999999999929e+01,8.102371793422945279e-02
2.223999999999999844e+01,6.487395093628918474e-02
2.228000000000000114e+01,8.131811411937706069e-02
2.232000000000000028e+01,7.839506858862342609e-02
2.235999999999999943e+01,9.294998035514145940e-02
2.239999999999999858e+01,7.396645844859313368e-02
2.244000000000000128e+01,4.648031982344512369e-02
2.248000000000000043e+01,1.129967112457641865e-01
2.251999999999999957e+01,1.025162553296843637e-01
2.255999999999999872e+01,7.125145053921869143e-02
2.260000000000000142e+01,6.549494213079695704e-02
2.264000000000000057e+01,7.863349158707241826e-02
2.267999999999999972e+01,7.382192680568364085e-02
2.271999999999999886e+01,3.358240813716881212e-02
2.276000000000000156e+01,6.797806574384951395e-02
2.280000000000000071e+01,9.292633129677792259e-02
2.283999999999999986e+01,8.905986929742856772e-02
2.287999999999999901e+01,7.385651330401477033e-02
2.292000000000000171e+01,5.392949574263331686e-02
2.296000000000000085e+01,7.935045356784128923e-02
2.300000000000000000e+01,7.265005392241283277e-02
2.303999999999999915e+01,3.855203338338210328e-02
2.307999999999999829e+01,4.791248324500348155e-02
2.312000000000000099e+01,8.608780763141127279e-02
2.316000000000000014e+01,1.115090948175846697e-01
2.319999999999999929e+01,1.057537572295308981e-01
2.323999999999999844e+01,7.874164502920823205e-02
2.328000000000000114e+01,6.684555026546359913e-02
2.332000000000000028e+01,6.486935630774792738e-02
2.335999999999999943e+01,4.872198803487787916e-02
2.339999999999999858e+01,6.327896881648580052e-02
2.344000000000000128e+01,7.830836202193199036e-02
2.348000000000000043e+01,6.263348309604470365e-02
2.351999999999999957e+01,3.562166144610030838e-02
2.355999999999999872e+01,6.576711855502390125e-02
2.360000000000000142e+01,7.654526949012145642e-02
2.364000000000000057e+01,1.303094742248621651e-01
2.367999999999999972e+01,1.316401893359174791e-01
2.371999999999999886e+01,1.287195559287806768e-01
2.376000000000000156e+01,8.092341020296320298e-02
2.380000000000000071e+01,1.224059543963451763e-01
2.383999999999999986e+01,1.525515315006736039e-01
2.387999999999999901e+01,8.019196375301262947e-02
2.392000000000000171e+01,1.188402790519072078e-01
2.396000000000000085e+01,1.319803992568988060e-01
2.400000000000000000e+01,8.182240434109391836e-02
2.403999999999999915e+01,1.181088372971463157e-01
2.407999999999999829e+01,1.038512460223312284e-01
2.412000000000000099e+01,1.358862897355261334e-01
2.416000000000000014e+01,1.008442144472998514e-01
2.419999999999999929e+01,1.234317431502149065e-01
2.423999999999999844e+01,1.025608448737524575e-01
2.428000000000000114e+01,2.878403732697091752e-02
2.432000000000000028e+01,5.373335935158705251e-02
2.435999999999999943e+01,8.671300714693129519e-02
2.439999999999999858e+01,6.773148445961481301e-02
2.444000000000000128e+01,7.284099616881610506e-02
2.448000000000000043e+01,6.850298790803478755e-02
2.451999999999999957e+01,6.322018795243214417e-02
2.455999999999999872e+01,1.165117125018820810e-01
2.460000000000000142e+01,8.477587398193787982e-02
2.464000000000000057e+01,7.571393274359165815e-02
2.467999999999999972e+01,7.420991894871128980e-02
2.471999999999999886e+01,4.672527823079618975e-02
2.476000000000000156e+01,5.183437886518865723e-02
2.480000000000000071e+01,8.906484384399790399e-02
2.483999999999999986e+01,3.985080559286866692e-02
2.487999999999999901e+01,5.960329465164462825e-02
2.492000000000000171e+01,4.203816646488239828e-02
2.496000000000000085e+01,2.494533496822657140e-02
2.500000000000000000e+01,1.163141485191346476e-02
2.503999999999999915e+01,1.135766581650618640e-01
2.507999999999999829e+01,4.405006676666935878e-02
2.512000000000000099e+01,8.694838893289419390e-02
2.516000000000000014e+01,4.623642727777937250e-02
2.519999999999999929e+01,1.103913896997787830e-01
2.523999999999999844e+01,5.834225881284523657e-02
2.528000000000000114e+01,7.242538100597667450e-02
2.532000000000000028e+01,6.997530983702228424e-02
2.535999999999999943e+01,7.224887056232164040e-02
2.539999999999999858e+01,5.184837032483054220e-02
2.544000000000000128e+01,6.451393362629577466e-02
2.548000000000000043e+01,4.175133289254290975e-02
2.551999999999999957e+01,4.638630205930713984e-02
2.555999999999999872e+01,4.771453053368295699e-02
2.560000000000000142e+01,5.518349451536262024e-02
2.564000000000000057e+01,5.178772831715117847e-02
2.567999999999999972e+01,6.256304889351448073e-02
2.571999999999999886e+01,7.144873848178878717e-02
2.576000000000000156e+01,7.088681064009576260e-02
2.580000000000000071e+01,5.001266119069595895e-02
2.583999999999999986e+01,6.881778029572931110e-02
2.587999999999999901e+01,5.077758302250178629e-02
2.592000000000000171e+01,3.320960934439194656e-02
2.596000000000000085e+01,6.618549621595688770e-02
2.600000000000000000e+01,6.467792738371611061e-02
2.603999999999999915e+01,5.844645942479546191e-02
2.607999999999999829e+01,3.568174023692324837e-02
2.612000000000000099e+01,6.062662564263190251e-02
2.616000000000000014e+01,4.872617335070819622e-02
2.619999999999999929e+01,3.918741918359373161e-02
2.623999999999999844e+01,6.932790311466770217e-02
2.628000000000000114e+01,1.103328104000870086e-01
2.632000000000000028e+01,4.599814327682604648e-02
2.635999999999999943e+01,5.110226473762857075e-02
2.639999999999999858e+01,9.730273400091851710e-02
2.644000000000000128e+01,7.264691896406239024e-02
2.648000000000000043e+01,4.799091092131457792e-02
2.651999999999999957e+01,6.821023324230762741e-02
2.655999999999999872e+01,7.567525948498153576e-02
2.660000000000000142e+01,5.149102811307794403e-02
2.664000000000000057e+01,8.162959721335856511e-02
2.667999999999999972e+01,5.791732638131679572e-02
2.671999999999999886e+01,9.088971974153960132e-02
2.676000000000000156e+01,1.101630538707893125e-01
2.680000000000000071e+01,1.006213589309335604e-01
2.683999999999999986e+01,6.698837149900675747e-02
2.687999999999999901e+01,7.067270362394602323e-02
2.692000000000000171e+01,4.176300584477971034e-02
2.696000000000000085e+01,9.788039172008232425e-02
2.700000000000000000e+01,8.455857254329314510e-02
2.703999999999999915e+01,5.895479470295660746e-02
2.707999999999999829e+01,5.602472836112201704e-02
2.712000000000000099e+01,4.506406292488386589e-02
2.716000000000000014e+01,4.827437157511273863e-02
2.719999999999999929e+01,5.809766786993091070e-02
2.723999999999999844e+01,6.319697366933273164e-02
2.728000000000000114e+01,4.656682328612303523e-02
2.732000000000000028e+01,6.772633292017553319e-02
2.735999999999999943e+01,5.345753537465747218e-02
2.739999999999999858e+01,3.210286533989558516e-02
2.744000000000000128e+01,7.026704844975216468e-02
2.748000000000000043e+01,3.757486807322484718e-02
2.751999999999999957e+01,5.448168154248405476e-02
2.755999999999999872e+01,5.296563524562052094e-02
2.760000000000000142e+01,8.593260991078663369e-02
2.764000000000000057e+01,6.930003720903453457e-02
2.767999999999999972e+01,3.067914094739704941e-03
2.771999999999999886e+01,2.894842620203605735e-02
2.776000000000000156e+01,3.829555916415076228e-02
2.780000000000000071e+01,5.000426842609372730e-02
2.783999999999999986e+01,5.887843735731649458e-02
2.787999999999999901e+01,1.579117083654426809e-02
2.792000000000000171e+01,4.733868770540383686e-02
2.796000000000000085e+01,4.818159133298343527e-02
2.800000000000000000e+01,4.855181225867345046e-02
2.803999999999999915e+01,7.206804555014272029e-02
2.807999999999999829e+01,1.386326853874520273e-02
2.812000000000000099e+01,6.430418497199894001e-02
2.816000000000000014e+01,2.499372765261738752e-02
2.819999999999999929e+01,2.300048938449271441e-02
2.823999999999999844e+01,2.809253353698501141e-02
2.828000000000000114e+01,6.058193744190245450e-02
2.832000000000000028e+01,3.827562861936004146e-02
2.835999999999999943e+01,2.541646289189071137e-02
2.839999999999999858e+01,2.625580287426229620e-02
2.844000000000000128e+01,4.268314136991399610e-02
2.848000000000000043e+01,4.682841155953568896e-02
2.851999999999999957e+01,4.672196775602231039e-02
2.855999999999999872e+01,5.228366012133233570e-02
2.860000000000000142e+01,2.194457693044559940e-02
2.864000000000000057e+01,2.797793136441401388e-02
2.867999999999999972e+01,0.000000000000000000e+00
2.871999999999999886e+01,5.941088809390528830e-02
2.876000000000000156e+01,5.079955901503731969e-02
2.880000000000000071e+01,5.399720934070136036e-02
2.883999999999999986e+01,7.892368923285704441e-02
2.887999999999999901e+01,6.086376281545569783e-02
2.892000000000000171e+01,2.910461270335710018e-02
2.896000000000000085e+01,3.135600603978836581e-02
2.900000000000000000e+01,2.463190921293169355e-02
2.903999999999999915e+01,6.231057691320440739e-02
2.907999999999999829e+01,4.708296986821540464e-02
2.912000000000000099e+01,3.563396050424258443e-02
2.916000000000000014e+01,4.544138237949894854e-02
2.919999999999999929e+01,4.910754263693997007e-02
2.923999999999999844e+01,4.993905596680196096e-02
2.928000000000000114e+01,4.982541517252381952e-02
2.932000000000000028e+01,2.892691079331479592e-02
2.935999999999999943e+01,4.770740695358104133e-02
2.939999999999999858e+01,5.089914702259182994e-02
2.944000000000000128e+01,3.047177059620299888e-02
2.948000000000000043e+01,2.185332179872967462e-02
2.951999999999999957e+01,2.173717984868653308e-02
2.955999999999999872e+01,4.476693453069046508e-02
2.960000000000000142e+01,7.440949411981201411e-02
2.964000000000000057e+01,3.697451745695210651e-02
2.967999999999999972e+01,8.692828715742279000e-02
2.971999999999999886e+01,7.027688847692914464e-02
2.976000000000000156e+01,5.551454289839616307e-02
2.980000000000000071e+01,9.102696055323496183e-03
2.983999999999999986e+01,3.827023433643670508e-02
2.987999999999999901e+01,5.043185809200287362e-02
2.992000000000000171e+01,8.621172503126124653e-02
2.996000000000000085e+01,4.074281248556627100e-02
3.000000000000000000e+01,2.267112873044138319e-02
3.003999999999999915e+01,4.238889789011107689e-02
3.007999999999999829e+01,5.879958220182099349e-02
3.012000000000000099e+01,8.843626729925146979e-02
3.016000000000000014e+01,5.524674221197459906e-02
3.019999999999999929e+01,6.220852766832355579e-02
3.023999999999999844e+01,4.035502213185798021e-02
3.028000000000000114e+01,2.889326142501988728e-02
3.032000000000000028e+01,4.482870514375573989e-02
3.035999999999999943e+01,6.643214797821134221e-02
3.039999999999999858e+01,2.568173631647817715e-02
3.044000000000000128e+01,5.909354220776574795e-02
3.048000000000000043e+01,7.975075354953095608e-02
3.051999999999999957e+01,9.001523710747851015e-02
3.055999999999999872e+01,1.111438181379477697e-01
3.060000000000000142e+01,1.369956320858579379e-01
3.064000000000000057e+01,1.056896868487567503e-01
3.067999999999999972e+01,9.658480504168427683e-02
3.071999999999999886e+01,1.224350806001940767e-01
3.076000000000000156e+01,1.435610976483298606e-01
3.080000000000000071e+01,1.179215704988050006e-01
3.083999999999999986e+01,1.286543134647864794e-01
3.087999999999999901e+01,1.417483982175079538e-01
3.092000000000000171e+01,1.118559213338221059e-01
3.096000000000000085e+01,6.590219561725856046e-02
3.100000000000000000e+01,1.588258776453953802e-01
3.103999999999999915e+01,1.327107809754475565e-01
3.107999999999999829e+01,1.250177255811566468e-01
3.112000000000000099e+01,1.518074231339368307e-01
3.116000000000000014e+01,1.209669479463210406e-01
3.119999999999999929e+01,1.236644716899956420e-01
3.123999999999999844e+01,1.055769856587624594e-01
3.128000000000000114e+01,1.257512320902293701e-01
3.132000000000000028e+01,1.095521219007657976e-01
3.135999999999999943e+01,1.675151592149586866e-01
3.139999999999999858e+01,1.598176481564889950e-01
3.144000000000000128e+01,1.875476136046259068e-01
3.148000000000000043e+01,2.063019000607542730e-01
3.151999999999999957e+01,1.934065542904880863e-01
3.155999999999999872e+01,1.639775400407106065e-01
3.160000000000000142e+01,2.531138074738333299e-01
3.164000000000000057e+01,2.189598848641112483e-01
3.167999999999999972e+01,2.263742819967047570e-01
3.171999999999999886e+01,2.805531094109143253e-01
3.176000000000000156e+01,2.756845965135620857e-01
3.180000000000000071e+01,2.911275659196887466e-01
3.183999999999999986e+01,2.768103745834880614e-01
3.187999999999999901e+01,2.870560251199094082e-01
3.192000000000000171e+01,2.302239658037518177e-01
3.196000000000000085e+01,2.631423490616562888e-01
3.200000000000000000e+01,2.620491937343424338e-01
3.203999999999999915e+01,2.396985937573643533e-01
3.207999999999999829e+01,2.622229008023180263e-01
3.211999999999999744e+01,2.280617099364184996e-01
3.215999999999999659e+01,2.208252094350991179e-01
3.220000000000000284e+01,2.183118200262396669e-01
3.224000000000000199e+01,1.884001092301369751e-01
3.228000000000000114e+01,1.924986890957284258e-01
3.232000000000000028e+01,2.088783543131601250e-01
3.235999999999999943e+01,1.510946667421547984e-01
3.239999999999999858e+01,1.802271444697466363e-01
3.243999999999999773e+01,1.422818727516402815e-01
3.247999999999999687e+01,1.444877379765616698e-01
3.252000000000000313e+01,1.311046095515149557e-01
3.256000000000000227e+01,1.134694595252559307e-01
3.260000000000000142e+01,1.284274539088972600e-01
3.264000000000000057e+01,9.803688588294770523e-02
3.267999999999999972e+01,8.701298523220526993e-02
3.271999999999999886e+01,9.677287079784324675e-02
3.275999999999999801e+01,8.149626519444855277e-02
3.279999999999999716e+01,1.233762348106564599e-01
3.284000000000000341e+01,7.644922226069141014e-02
3.288000000000000256e+01,1.017947456315874133e-01
3.292000000000000171e+01,1.446174222548801680e-01
3.296000000000000085e+01,1.477599996507759361e-01
3.300000000000000000e+01,1.891641785475171589e-01
3.303999999999999915e+01,2.201754377860958845e-01
3.307999999999999829e+01,9.483021998073606906e-02
3.311999999999999744e+01,1.135583620869013571e-01
3.315999999999999659e+01,1.086671044545860498e-01
3.320000000000000284e+01,1.231424746043594809e-01
3.324000000000000199e+01,1.144708128866692154e-01
3.328000000000000114e+01,7.320463701057358663e-02
3.332000000000000028e+01,9.901484996854489906e-02
3.335999999999999943e+01,8.183831550701287094e-02
3.339999999999999858e+01,9.205875095796638152e-02
3.343999999999999773e+01,9.660997591717057631e-02
3.347999999999999687e+01,9.076824771634238453e-02
3.352000000000000313e+01,6.650320595133743518e-02
3.356000000000000227e+01,9.183669814281546218e-02
3.360000000000000142e+01,1.034706103015262529e-01
3.364000000000000057e+01,1.004601914573140381e-01
3.367999999999999972e+01,1.210677295080884730e-01
3.371999999999999886e+01,9.207525725701692920e-02
3.375999999999999801e+01,1.230735309041546544e-01
3.379999999999999716e+01,1.148640153280460208e-01
3.384000000000000341e+01,1.406646716342752068e-01
3.388000000000000256e+01,1.338707680977312131e-01
3.392000000000000171e+01,1.502224292201611300e-01
3.396000000000000085e+01,1.868854081823452529e-01
3.400000000000000000e+01,1.597771366553358829e-01
3.403999999999999915e+01,1.723475093297317795e-01
3.407999999999999829e+01,1.792486227823860689e-01
3.411999999999999744e+01,1.445800528354687364e-01
3.415999999999999659e+01,1.854905390852885916e-01
3.420000000000000284e+01,1.966406849009344204e-01
3.424000000000000199e+01,1.643316423310714758e-01
3.428000000000000114e+01,2.236623615381115593e-01
3.432000000000000028e+01,2.173323100418983467e-01
3.435999999999999943e+01,2.308411719669281048e-01
3.439999999999999858e+01,2.056145729466098970e-01
3.443999999999999773e+01,2.375444242752885460e-01
3.447999999999999687e+01,2.127885980012675093e-01
3.452000000000000313e+01,2.210981439094353018e-01
3.456000000000000227e+01,2.109842970671889639e-01
3.460000000000000142e+01,2.334634423536168513e-01
3.464000000000000057e+01,2.077596291756320379e-01
3.467999999999999972e+01,2.359056303370361540e-01
3.471999999999999886e+01,1.927223427917515164e-01
3.475999999999999801e+01,1.405631265132471497e-01
3.479999999999999716e+01,1.847673720411855125e-01
3.484000000000000341e+01,1.788991480275253787e-01
3.488000000000000256e+01,1.517732631248595587e-01
3.492000000000000171e+01,1.459033708914909688e-01
3.496000000000000085e+01,1.362536482817046091e-01
3.500000000000000000e+01,1.421914247027762368e-01
3.503999999999999915e+01,1.651338189958788116e-01
3.507999999999999829e+01,1.058822960395569418e-01
3.511999999999999744e+01,1.510245678832014826e-01
3.515999999999999659e+01,1.904974982732421385e-01
3.520000000000000284e+01,1.222683083146282601e-01
3.524000000000000199e+01,1.404826934530042648e-01
3.528000000000000114e+01,1.553895978122322163e-01
3.532000000000000028e+01,1.717127579693460415e-01
3.535999999999999943e+01,1.445766444634644099e-01
3.539999999999999858e+01,1.410583568907150809e-01
3.543999999999999773e+01,1.446248035261685216e-01
3.547999999999999687e+01,1.585825990600610580e-01
3.552000000000000313e+01,1.437247015787017634e-01
3.556000000000000227e+01,1.798823076593966397e-01
3.560000000000000142e+01,1.848623448222613264e-01
3.564000000000000057e+01,1.973994749274719240e-01
3.567999999999999972e+01,1.867893873821228068e-01
3.571999999999999886e+01,2.002694753671757921e-01
3.575999999999999801e+01,2.231961430067646579e-01
3.579999999999999716e+01,2.045529993305515992e-01
3.584000000000000341e+01,2.052762824252083729e-01
3.588000000000000256e+01,2.437885737734789282e-01
3.592000000000000171e+01,2.676563605182283867e-01
3.596000000000000085e+01,2.867994928214150363e-01
3.600000000000000000e+01,2.988560978260852985e-01
3.603999999999999915e+01,3.076051641847412643e-01
3.607999999999999829e+01,3.172980545121511509e-01
3.611999999999999744e+01,3.199044084041712255e-01
3.615999999999999659e+01,2.776343058339076908e-01
3.620000000000000284e+01,3.090536082844671517e-01
3.624000000000000199e+01,3.267731296910409977e-01
3.628000000000000114e+01,3.600800526684879155e-01
3.632000000000000028e+01,3.126100858689477291e-01
3.635999999999999943e+01,3.095423262472491999e-01
3.639999999999999858e+01,3.060012443425108586e-01
3.643999999999999773e+01,2.897051140901961142e-01
3.647999999999999687e+01,2.974991015014172291e-01
3.652000000000000313e+01,3.256042118324229406e-01
3.656000000000000227e+01,2.908826246787971082e-01
3.660000000000000142e+01,2.665523011461236602e-01
3.664000000000000057e+01,2.374972713962708315e-01
3.667999999999999972e+01,2.372560837044897786e-01
3.671999999999999886e+01,2.256769482325580722e-01
3.675999999999999801e+01,2.008703660857875384e-01
3.679999999999999716e+01,2.166869659168621509e-01
3.684000000000000341e+01,2.036877722270755420e-01
3.688000000000000256e+01,1.547871725368151485e-01
3.692000000000000171e+01,1.786311751216048405e-01
3.696000000000000085e+01,1.694080093882670279e-01
3.700000000000000000e+01,1.497916224799385188e-01
3.703999999999999915e+01,1.471797011624146057e-01
3.707999999999999829e+01,1.233099514465363644e-01
3.711999999999999744e+01,1.235302706642015941e-01
3.715999999999999659e+01,1.280009493546197807e-01
3.720000000000000284e+01,8.806746635878254237e-02
3.724000000000000199e+01,9.678748919744015189e-02
3.728000000000000114e+01,9.936563520212818301e-02
3.732000000000000028e+01,1.043046326480076003e-01
3.735999999999999943e+01,1.139663483007831019e-01
3.739999999999999858e+01,8.205813081277579801e-02
3.743999999999999773e+01,7.376758393105013745e-02
3.747999999999999687e+01,8.342621706279103322e-02
3.752000000000000313e+01,6.379663093578794020e-02
3.756000000000000227e+01,6.731233231592713417e-02
3.760000000000000142e+01,7.696785551601270647e-02
3.764000000000000057e+01,9.748693711307904186e-02
3.767999999999999972e+01,7.690843821225670784e-02
3.771999999999999886e+01,6.246975199450739008e-02
3.775999999999999801e+01,7.495532975390446773e-02
3.779999999999999716e+01,6.051453674651514902e-02
3.784000000000000341e+01,3.898707634188117166e-02
3.788000000000000256e+01,8.736990134371337702e-02
3.792000000000000171e+01,4.883485323412114359e-02
3.796000000000000085e+01,4.997815085473104879e-02
3.800000000000000000e+01,1.758182700870992293e-02
3.803999999999999915e+01,5.037203676399813757e-02
3.807999999999999829e+01,7.418606499923112441e-02
3.811999999999999744e+01,5.548535734790820129e-02
3.815999999999999659e+01,7.173924057600591930e-02
3.820000000000000284e+01,6.909707993959178507e-02
3.824000000000000199e+01,5.133786409116795901e-02
3.828000000000000114e+01,6.003049866450590327e-02
3.832000000000000028e+01,6.777729080256097993e-02
3.835999999999999943e+01,5.993464462946707788e-02
3.839999999999999858e+01,3.272356540147264986e-02
3.843999999999999773e+01,3.999468177126157264e-02
3.847999999999999687e+01,5.387792691952319329e-02
3.852000000000000313e+01,3.941762459295961030e-02
3.856000000000000227e+01,5.802238684050797790e-02
3.860000000000000142e+01,6.434431023902111024e-02
3.864000000000000057e+01,3.193044985598642027e-02
3.867999999999999972e+01,4.297387208003927705e-02
3.871999999999999886e+01,1.811574820489005380e-02
3.875999999999999801e+01,4.899662386449187695e-02
3.879999999999999716e+01,2.744285865433760546e-02
3.884000000000000341e+01,3.753701481212606134e-02
3.888000000000000256e+01,5.188139948081292585e-02
3.892000000000000171e+01,7.650272633413992759e-03
3.896000000000000085e+01,6.025466480977312994e-02
3.900000000000000000e+01,1.791074428432616258e-02
3.903999999999999915e+01,6.815097103099544695e-02
3.907999999999999829e+01,3.666934992805354759e-02
3.911999999999999744e+01,4.250411642087324054e-02
3.915999999999999659e+01,4.361398482216812672e-02
3.920000000000000284e+01,7.731649510531687919e-02
3.924000000000000199e+01,5.716720913004221666e-02
3.928000000000000114e+01,2.851402422824239266e-02
3.932000000000000028e+01,4.190095131674000106e-02
3.935999999999999943e+01,5.386958282145131588e-02
3.939999999999999858e+01,4.930394890424411036e-02
3.943999999999999773e+01,8.583366991592915329e-02
3.947999999999999687e+01,4.347575639535303238e-02
3.952000000000000313e+01,6.535951586344722342e-02
3.956000000000000227e+01,5.795490074594655122e-02
3.960000000000000142e+01,4.110161441239276736e-02
3.964000000000000057e+01,8.187675645891376308e-02
3.967999999999999972e+01,3.242727365067014228e-02
3.971999999999999886e+01,6.942102482946969910e-02
3.975999999999999801e+01,2.374812845850962292e-02
3.979999999999999716e+01,4.562350149270914812e-02
3.984000000000000341e+01,7.883463937680623701e-02
3.988000000000000256e+01,7.472702095179274695e-02
3.992000000000000171e+01,7.250768204011068252e-02
3.996000000000000085e+01,7.359374148293292006e-02
4.000000000000000000e+01,9.310116302714258052e-02
4.003999999999999915e+01,8.662679117412432073e-02
4.007999999999999829e+01,8.156831268967335014e-02
4.011999999999999744e+01,1.114642758490414498e-01
4.015999999999999659e+01,7.853326741757064855e-02
4.020000000000000284e+01,9.756215718024083272e-02
4.024000000000000199e+01,6.651816624200142247e-02
4.028000000000000114e+01,7.987608401040029171e-02
4.032000000000000028e+01,1.272436802699637437e-01
4.035999999999999943e+01,1.472123368805052790e-01
4.039999999999999858e+01,1.600941311738324768e-01
4.043999999999999773e+01,1.427427359532937867e-01
4.047999999999999687e+01,1.480640319470407917e-01
4.052000000000000313e+01,1.581078055433465523e-01
4.056000000000000227e+01,1.549238431304836017e-01
4.060000000000000142e+01,1.777191805308941386e-01
4.064000000000000057e+01,1.920105154535455827e-01
4.067999999999999972e+01,1.973254708905474164e-01
4.071999999999999886e+01,2.494041713436471186e-01
4.075999999999999801e+01,2.830590069745309578e-01
4.079999999999999716e+01,3.370246396433752012e-01
4.084000000000000341e+01,3.267461270589661071e-01
4.088000000000000256e+01,3.726788265534738409e-01
4.092000000000000171e+01,4.266405909301558830e-01
4.096000000000000085e+01,4.678469628036899808e-01
4.100000000000000000e+01,5.246403768644034571e-01
4.103999999999999915e+01,6.069406832742542113e-01
4.107999999999999829e+01,7.293914718178601264e-01
4.111999999999999744e+01,7.620898998264844515e-01
4.115999999999999659e+01,8.755629646324787352e-01
4.120000000000000284e+01,9.007007846990399136e-01
4.124000000000000199e+01,1.000000000000000000e+00
4.128000000000000114e+01,9.991546154136314861e-01
4.132000000000000028e+01,9.666588524228595380e-01
4.135999999999999943e+01,9.299103977934801701e-01
4.139999999999999858e+01,8.430889741400798831e-01
4.143999999999999773e+01,7.751611769078500247e-01
4.147999999999999687e+01,7.299059947492929634e-01
4.152000000000000313e+01,6.473319314110196343e-01
4.156000000000000227e+01,6.507285879987952937e-01
4.160000000000000142e+01,5.856296758060589580e-01
4.164000000000000057e+01,5.606812031083344694e-01
4.167999999999999972e+01,5.258115268598152481e-01
4.171999999999999886e+01,5.003879764677777731e-01
4.175999999999999801e+01,4.933856541696485243e-01
4.179999999999999716e+01,4.707936316366609919e-01
4.184000000000000341e+01,4.458383767666350139e-01
4.188000000000000256e+01,4.355253491555167722e-01
4.192000000000000171e+01,4.426887895312769938e-01
4.196000000000000085e+01,4.205636725839710377e-01
4.200000000000000000e+01,4.149702696077626762e-01
4.203999999999999915e+01,3.800883032172390208e-01
4.207999999999999829e+01,3.981108398010353988e-01
4.211999999999999744e+01,4.147148706529530937e-01
4.215999999999999659e+01,3.968342153687575147e-01
4.220000000000000284e+01,3.411622531669629144e-01
4.224000000000000199e+01,3.317815462852681807e-01
4.228000000000000114e+01,3.228718173382603696e-01
4.232000000000000028e+01,3.030960881859338651e-01
4.235999999999999943e+01,2.823742089902475660e-01
4.239999999999999858e+01,2.295294951960299978e-01
4.243999999999999773e+01,2.281721350787142277e-01
4.247999999999999687e+01,2.400398346491407764e-01
4.252000000000000313e+01,2.160056987860356770e-01
4.256000000000000227e+01,2.118098519911459365e-01
4.260000000000000142e+01,1.787977731054632979e-01
4.264000000000000057e+01,1.868808054987108613e-01
4.267999999999999972e+01,1.703989653703092133e-01
4.271999999999999886e+01,1.680869145804345932e-01
4.275999999999999801e+01,1.601049436682961402e-01
4.279999999999999716e+01,1.549557809090550131e-01
4.284000000000000341e+01,1.871227225024943708e-01
4.288000000000000256e+01,1.800811835159203123e-01
4.292000000000000171e+01,1.782343133566992865e-01
4.296000000000000085e+01,1.617424025640405438e-01
4.300000000000000000e+01,1.471385367716245840e-01
4.303999999999999915e+01,1.136382585941291129e-01
4.307999999999999829e+01,1.538268615900385272e-01
4.311999999999999744e+01,1.538622178076554659e-01
4.315999999999999659e+01,1.595645985411440759e-01
4.320000000000000284e+01,1.652655131976896175e-01
4.324000000000000199e+01,1.341197896749302121e-01
4.328000000000000114e+01,1.828037936069091263e-01
4.332000000000000028e+01,1.705500811927752325e-01
4.335999999999999943e+01,1.639633780663903306e-01
4.339999999999999858e+01,1.724911604274471377e-01
4.343999999999999773e+01,1.545645165509254848e-01
4.347999999999999687e+01,1.578932135800525660e-01
4.352000000000000313e+01,1.673612816766965605e-01
4.356000000000000227e+01,1.843858396820304835e-01
4.360000000000000142e+01,1.588952445502483934e-01
4.364000000000000057e+01,1.778063022926443248e-01
4.367999999999999972e+01,1.702629155237145309e-01
4.371999999999999886e+01,2.142067849717016192e-01
4.375999999999999801e+01,1.735942064584130584e-01
4.379999999999999716e+01,2.066704542972875869e-01
4.384000000000000341e+01,2.123474975178066826e-01
4.388000000000000256e+01,2.251086323197537542e-01
4.392000000000000171e+01,2.175561658460839209e-01
4.396000000000000085e+01,2.572395716551912348e-01
4.400000000000000000e+01,2.770817440596984316e-01
4.403999999999999915e+01,2.803892977498425587e-01
4.407999999999999829e+01,2.912533017555575254e-01
4.411999999999999744e+01,3.214831020878656243e-01
4.415999999999999659e+01,2.917198700404775580e-01
4.420000000000000284e+01,2.940765252096115834e-01
4.424000000000000199e+01,2.832051641721209378e-01
4.428000000000000114e+01,2.713875069012929298e-01
4.432000000000000028e+01,2.614577941250986748e-01
4.435999999999999943e+01,2.529436488356475166e-01
4.439999999999999858e+01,2.354528408174660359e-01
4.443999999999999773e+01,1.952865221192197631e-01
4.447999999999999687e+01,1.603147534689698395e-01
4.452000000000000313e+01,1.579352216325119462e-01
4.456000000000000227e+01,1.291011782809887709e-01
4.460000000000000142e+01,1.309698698029450048e-01
4.464000000000000057e+01,1.493700742847804130e-01
4.467999999999999972e+01,1.332854007561571630e-01
4.471999999999999886e+01,1.025555525866169715e-01
4.475999999999999801e+01,9.638756559860217621e-02
4.479999999999999716e+01,8.880086882186535857e-02
4.484000000000000341e+01,1.015246614750120041e-01
4.488000000000000256e+01,7.976356088957753387e-02
4.492000000000000171e+01,8.067481345410645877e-02
4.496000000000000085e+01,7.024749083983261588e-02
4.500000000000000000e+01,7.257266207669003932e-02
4.503999999999999915e+01,5.930788638310278277e-02
4.507999999999999829e+01,5.123761505314408660e-02
4.511999999999999744e+01,7.764903070167292198e-02
4.515999999999999659e+01,7.099265367904648849e-02
4.520000000000000284e+01,6.338991037371889681e-02
4.524000000000000199e+01,6.523302490991457481e-02
4.528000000000000114e+01,5.432041801551339144e-02
4.532000000000000028e+01,5.143654098458887158e-02
4.535999999999999943e+01,3.863118020541377734e-02
4.539999999999999858e+01,4.991525791550552316e-02
4.543999999999999773e+01,5.175021974836338523e-02
4.547999999999999687e+01,1.579362492241127153e-02
4.552000000000000313e+01,5.447047341129952758e-02
4.556000000000000227e+01,5.110439348973593726e-02
4.560000000000000142e+01,6.568687531986042161e-02
4.564000000000000057e+01,3.775404868601813652e-02
4.567999999999999972e+01,5.469509356176892323e-02
4.571999999999999886e+01,3.904067708988703811e-02
4.575999999999999801e+01,4.936516754571464854e-02
4.579999999999999716e+01,7.480396075151259094e-02
4.584000000000000341e+01,5.631030837842340014e-02
4.588000000000000256e+01,6.662979756976547541e-02
4.592000000000000171e+01,7.127912603450636819e-02
4.596000000000000085e+01,6.411742921756519165e-02
4.600000000000000000e+01,4.372758218651993239e-02
4.603999999999999915e+01,5.167849057514201094e-02
4.607999999999999829e+01,7.427130643209667316e-02
4.611999999999999744e+01,3.261957501336072013e-02
4.615999999999999659e+01,5.568138497188958314e-02
4.620000000000000284e+01,4.236870533716460829e-02
4.624000000000000199e+01,7.392985457328934973e-02
4.628000000000000114e+01,5.211104548334009184e-02
4.632000000000000028e+01,6.005009238048400477e-02
4.635999999999999943e+01,4.720297825664925701e-02
4.639999999999999858e+01,7.450594119850753594e-02
4.643999999999999773e+01,7.535424948094784914e-02
4.647999999999999687e+01,8.092458156789252011e-02
4.652000000000000313e+01,5.531651328151154096e-02
4.656000000000000227e+01,6.135577855753990978e-02
4.660000000000000142e+01,7.164468453893331479e-02
4.664000000000000057e+01,4.555906742520292318e-02
4.667999999999999972e+01,2.844682454824707177e-02
4.671999999999999886e+01,6.990721890035656028e-02
4.675999999999999801e+01,7.263121120913944295e-02
4.679999999999999716e+01,5.740325276866919263e-02
4.684000000000000341e+01,5.917901374099494155e-02
4.688000000000000256e+01,4.489231372188193236e-02
4.692000000000000171e+01,6.178054589229167726e-02
4.696000000000000085e+01,4.749034418750602837e-02
4.700000000000000000e+01,4.784197990168895936e-02
4.703999999999999915e+01,5.149847489483534019e-02
4.707999999999999829e+01,9.247075140446255059e-02
4.711999999999999744e+01,7.628401393177391965e-02
4.715999999999999659e+01,6.623637037477018985e-02
4.720000000000000284e+01,7.177529693314430026e-02
4.724000000000000199e+01,8.817705093861291643e-02
4.728000000000000114e+01,6.678711123216783674e-02
4.732000000000000028e+01,6.381797627782222204e-02
4.735999999999999943e+01,9.202374001112938184e-02
4.739999999999999858e+01,5.551248504649532872e-02
4.743999999999999773e+01,6.293021965944348151e-02
4.747999999999999687e+01,7.081853627589002054e-02
4.752000000000000313e+01,9.004203298232539565e-02
4.756000000000000227e+01,7.194618861974121093e-02
4.760000000000000142e+01,5.526566504831376819e-02
4.764000000000000057e+01,7.259426261876275599e-02
4.767999999999999972e+01,6.016149337957241855e-02
4.771999999999999886e+01,1.001604237193781527e-01
4.775999999999999801e+01,8.016604757328039954e-02
4.779999999999999716e+01,7.008970831100226617e-02
4.784000000000000341e+01,6.709715911332379823e-02
4.788000000000000256e+01,5.796192599117648558e-02
4.792000000000000171e+01,6.346846023863375597e-02
4.796000000000000085e+01,7.039028786662682169e-02
4.800000000000000000e+01,7.400366620687266750e-02
4.803999999999999915e+01,5.163464202498543876e-02
4.807999999999999829e+01,1.001198745398420437e-01
4.811999999999999744e+01,7.727479806379383698e-02
4.815999999999999659e+01,6.576485294774195300e-02
4.820000000000000284e+01,5.992154859887154073e-02
4.824000000000000199e+01,9.895192083962456309e-02
4.828000000000000114e+01,8.129556473721637200e-02
4.832000000000000028e+01,6.458210064245742399e-02
4.835999999999999943e+01,7.762633720794082093e-02
4.839999999999999858e+01,7.460799704825345213e-02
4.843999999999999773e+01,6.166793862722692865e-02
4.847999999999999687e+01,5.770111738987123567e-02
4.852000000000000313e+01,4.428494576219331458e-02
4.856000000000000227e+01,5.117898032131783931e-02
4.860000000000000142e+01,6.137775538004922732e-02
4.864000000000000057e+01,6.401666676064828032e-02
4.867999999999999972e+01,4.445211858724854720e-02
4.871999999999999886e+01,7.212308026730736288e-02
4.875999999999999801e+01,6.625360120773787775e-02
4.879999999999999716e+01,4.715575874034743514e-02
4.884000000000000341e+01,6.159457208383187915e-02
4.888000000000000256e+01,5.619178045652439141e-02
4.892000000000000171e+01,6.637542798274004285e-02
4.896000000000000085e+01,6.285832595637080855e-02
4.900000000000000000e+01,4.469572340726055137e-02
4.903999999999999915e+01,3.408919351628027922e-02
4.907999999999999829e+01,7.071814606813754678e-02
4.911999999999999744e+01,4.262994896019896285e-02
4.915999999999999659e+01,5.044025310946838314e-02
4.920000000000000284e+01,8.942531584766263975e-02
4.924000000000000199e+01,7.455782092130225358e-02
4.928000000000000114e+01,6.393976264346346028e-02
4.932000000000000028e+01,5.143027645906569911e-02
4.935999999999999943e+01,6.300992724710677284e-02
4.939999999999999858e+01,6.466778667882010223e-02
4.943999999999999773e+01,6.726845284069611630e-02
4.947999999999999687e+01,6.797767891351490233e-02
4.952000000000000313e+01,6.112697430446180358e-02
4.956000000000000227e+01,4.293734426978534913e-02
4.960000000000000142e+01,4.789208500926873946e-02
4.964000000000000057e+01,4.764875574133597969e-02
4.967999999999999972e+01,5.779569417513573393e-02
4.971999999999999886e+01,5.093520745362384305e-02
4.975999999999999801e+01,6.769145328603953793e-02
4.979999999999999716e+01,5.752041466431127154e-02
4.984000000000000341e+01,5.159877005236140901e-02
4.988000000000000256e+01,5.653975187628735438e-02
4.992000000000000171e+01,7.801184463765505062e-02
4.996000000000000085e+01,3.712859359244115309e-02
5.000000000000000000e+01,2.175155267647121277e-02
5.003999999999999915e+01,3.943870224037451105e-02
5.007999999999999829e+01,3.633940754021836722e-02
5.011999999999999744e+01,5.969106175696439059e-02
5.015999999999999659e+01,5.517065618441399644e-02
5.020000000000000284e+01,6.812608815446527522e-02
5.024000000000000199e+01,4.328960103638814644e-02
5.028000000000000114e+01,4.254218084138565448e-02
5.032000000000000028e+01,3.895850867467933604e-02
5.035999999999999943e+01,4.718217432088629704e-02
5.039999999999999858e+01,5.871044341359651919e-02
5.043999999999999773e+01,5.086936271842420337e-02
5.047999999999999687e+01,5.719748051062091554e-02
5.052000000000000313e+01,6.163407902752284645e-02
5.056000000000000227e+01,4.953556239326373928e-02
5.060000000000000142e+01,5.066148718496836512e-02
5.064000000000000057e+01,4.281027413051673169e-02
5.067999999999999972e+01,4.015313905226013114e-02
5.071999999999999886e+01,4.977568833856203107e-02
5.075999999999999801e+01,4.286310724558026891e-02
5.079999999999999716e+01,5.342631801083237708e-02
5.084000000000000341e+01,5.831899343766663857e-02
5.088000000000000256e+01,7.738083689562456902e-02
5.092000000000000171e+01,8.037991175406668243e-02
5.096000000000000085e+01,5.078312628806336271e-02
5.100000000000000000e+01,5.991894575413491547e-02
5.103999999999999915e+01,6.999745012538804989e-02
5.107999999999999829e+01,4.464584126172697898e-02
5.111999999999999744e+01,6.133344592912823995e-02
5.115999999999999659e+01,6.904387315725453445e-02
5.120000000000000284e+01,7.013898971181041497e-02
5.124000000000000199e+01,4.100009443387832297e-02
5.128000000000000114e+01,6.570974956115725740e-02
5.132000000000000028e+01,9.041732034971421139e-02
5.135999999999999943e+01,6.883015545187055884e-02
5.139999999999999858e+01,7.322146804867826764e-02
5.143999999999999773e+01,7.335932150949783792e-02
5.147999999999999687e+01,6.924371278870471158e-02
5.152000000000000313e+01,5.567852525574986527e-02
5.156000000000000227e+01,4.494547888392123880e-02
5.160000000000000142e+01,7.058312194847046750e-02
5.164000000000000057e+01,5.748399140350091835e-02
5.167999999999999972e+01,6.516720344888678185e-02
5.171999999999999886e+01,4.639535881241733245e-02
5.175999999999999801e+01,6.210469558076404939e-02
5.179999999999999716e+01,4.521810806655029991e-02
5.184000000000000341e+01,5.478233850738407212e-02
5.188000000000000256e+01,7.001292951794295394e-02
5.192000000000000171e+01,7.201491956196801048e-02
5.196000000000000085e+01,9.763347465057181651e-02
5.200000000000000000e+01,6.939926192652884351e-02
5.203999999999999915e+01,6.147499041995447416e-02
5.207999999999999829e+01,1.003135989721125471e-01
5.211999999999999744e+01,7.490720340490128470e-02
5.215999999999999659e+01,6.697649614468992318e-02
5.220000000000000284e+01,5.904363754201710085e-02
5.224000000000000199e+01,8.984328945705911951e-02
5.228000000000000114e+01,7.482050959860211958e-02
5.232000000000000028e+01,7.302204020425415165e-02
5.235999999999999943e+01,8.208600841706152618e-02
5.239999999999999858e+01,6.800148590825773331e-02
5.243999999999999773e+01,7.044788246255051511e-02
5.247999999999999687e+01,8.706332522298602938e-02
5.252000000000000313e+01,7.013804095508786862e-02
5.256000000000000227e+01,5.840669151903196687e-02
5.260000000000000142e+01,7.454322405795528461e-02
5.264000000000000057e+01,7.934059665816677043e-02
5.267999999999999972e+01,9.783462627413250234e-02
5.271999999999999886e+01,7.145093853926109961e-02
5.275999999999999801e+01,8.710633946484666601e-02
5.279999999999999716e+01,6.260775657100489666e-02
5.284000000000000341e+01,6.786653322745846151e-02
5.288000000000000256e+01,7.784684638849224958e-02
5.292000000000000171e+01,6.704049904612542632e-02
5.296000000000000085e+01,5.717669041896282500e-02
5.300000000000000000e+01,4.542117368778485903e-02
5.303999999999999915e+01,4.925178241080401670e-02
5.307999999999999829e+01,5.874866033481243588e-02
5.311999999999999744e+01,7.296705648965400026e-02
5.315999999999999659e+01,6.403690405601841773e-02
5.320000000000000284e+01,6.266250753556204534e-02
5.324000000000000199e+01,5.561739293921623417e-02
5.328000000000000114e+01,3.581594778736871959e-02
5.332000000000000028e+01,6.939052375161537667e-02
5.335999999999999943e+01,5.336359401237385225e-02
5.339999999999999858e+01,6.662160722241863842e-02
5.343999999999999773e+01,3.783609203398020232e-02
5.347999999999999687e+01,6.762269936406216375e-02
5.352000000000000313e+01,5.394865031761420654e-02
5.356000000000000227e+01,4.499608600012978965e-02
5.360000000000000142e+01,5.540859619622560961e-02
5.364000000000000057e+01,6.392934955831384991e-02
5.367999999999999972e+01,5.497000228599627919e-02
5.371999999999999886e+01,6.820996416398096562e-02
5.375999999999999801e+01,7.955816007108430787e-02
5.379999999999999716e+01,6.634063677292033334e-02
5.384000000000000341e+01,7.296054367685569919e-02
5.388000000000000256e+01,4.651199396348928289e-02
5.392000000000000171e+01,5.029309553082194489e-02
5.396000000000000085e+01,7.816298382377308285e-02
5.400000000000000000e+01,7.910526787200504450e-02
5.403999999999999915e+01,8.949273972436463942e-02
5.407999999999999829e+01,5.925375633504605805e-02
5.411999999999999744e+01,5.971678296056995294e-02
5.415999999999999659e+01,7.529347580053827316e-02
5.420000000000000284e+01,7.811376803564053228e-02
5.424000000000000199e+01,8.234887548822841796e-02
5.428000000000000114e+01,6.201822718805460183e-02
5.432000000000000028e+01,7.380669556139815568e-02
5.435999999999999943e+01,8.795471793988531017e-02
5.439999999999999858e+01,5.628014712677356646e-02
5.443999999999999773e+01,6.475504120882512316e-02
5.447999999999999687e+01,1.039319178950984246e-01
5.452000000000000313e+01,8.736633904531626582e-02
5.456000000000000227e+01,9.111050953865765245e-02
5.460000000000000142e+01,7.879163123502687383e-02
5.464000000000000057e+01,6.458091995677524288e-02
5.467999999999999972e+01,9.051965529993978576e-02
5.471999999999999886e+01,8.386224402995348659e-02
5.475999999999999801e+01,1.031830544221585683e-01
5.479999999999999716e+01,8.660109437410248856e-02
5.484000000000000341e+01,9.080123631206429846e-02
5.488000000000000256e+01,8.413442171860671670e-02
5.492000000000000171e+01,1.020286947180447656e-01
5.496000000000000085e+01,8.779917679285059728e-02
5.500000000000000000e+01,1.071058456523543978e-01
5.503999999999999915e+01,1.079875624016870123e-01
5.507999999999999829e+01,1.036707949386678068e-01
5.511999999999999744e+01,8.706993078368444050e-02
5.515999999999999659e+01,1.181764600988769454e-01
5.520000000000000284e+01,8.031401115895284160e-02
5.524000000000000199e+01,8.779707978662602830e-02
5.528000000000000114e+01,1.028357459550032355e-01
5.532000000000000028e+01,1.131482835995474140e-01
5.535999999999999943e+01,1.083424625047850198e-01
5.539999999999999858e+01,1.158159694365116510e-01
5.543999999999999773e+01,1.025026239904924946e-01
5.547999999999999687e+01,8.871450349853497730e-02
5.552000000000000313e+01,8.295433623579999416e-02
5.556000000000000227e+01,9.608672028877809912e-02
5.560000000000000142e+01,1.120509378948052470e-01
5.564000000000000057e+01,9.494656487605142303e-02
5.567999999999999972e+01,8.161876724362959745e-02
5.571999999999999886e+01,9.568624006520795588e-02
5.575999999999999801e+01,9.321820180443703141e-02
5.579999999999999716e+01,8.602399847233876962e-02
5.584000000000000341e+01,1.175620315517480197e-01
5.588000000000000256e+01,1.061116025250460199e-01
5.592000000000000171e+01,9.371399098827015717e-02
5.596000000000000085e+01,8.887192521658129896e-02
5.600000000000000000e+01,1.147317263153820183e-01
5.603999999999999915e+01,9.287931350291497856e-02
5.607999999999999829e+01,1.097591188282082686e-01
5.611999999999999744e+01,9.971115849068243331e-02
5.615999999999999659e+01,1.194203049166165098e-01
5.620000000000000284e+01,1.150359233620778660e-01
5.624000000000000199e+01,1.352125288948253512e-01
5.628000000000000114e+01,1.053150324312285557e-01
5.632000000000000028e+01,9.856139507687150525e-02
5.635999999999999943e+01,1.536862786919303281e-01
5.639999999999999858e+01,1.270879957019585005e-01
5.643999999999999773e+01,1.094623438163769419e-01
5.647999999999999687e+01,1.277346358387153047e-01
5.652000000000000313e+01,1.341950985344969038e-01
5.656000000000000227e+01,1.052250307448042294e-01
5.660000000000000142e+01,1.234898728205385543e-01
5.664000000000000057e+01,1.403351036026915521e-01
5.667999999999999972e+01,1.302525260832822773e-01
5.671999999999999886e+01,1.319768021224866916e-01
5.675999999999999801e+01,1.242511003727166802e-01
5.679999999999999716e+01,1.226637585431209349e-01
5.684000000000000341e+01,1.102093109465040743e-01
5.688000000000000256e+01,1.199539318958518647e-01
5.692000000000000171e+01,1.046602221189535664e-01
5.696000000000000085e+01,1.304605332874052837e-01
5.700000000000000000e+01,1.198855325439812797e-01
5.703999999999999915e+01,1.130870036356551450e-01
5.707999999999999829e+01,1.058135778564096852e-01
5.711999999999999744e+01,8.625590310397372729e-02
5.715999999999999659e+01,1.007066246347774335e-01
5.720000000000000284e+01,8.870187223316569614e-02
5.724000000000000199e+01,1.069265183254174689e-01
5.728000000000000114e+01,1.076707896770563028e-01
5.732000000000000028e+01,1.121915115444213212e-01
5.735999999999999943e+01,8.836725144780954722e-02
5.739999999999999858e+01,1.056369787946780242e-01
5.743999999999999773e+01,8.936560450139605094e-02
5.747999999999999687e+01,6.884031118282260553e-02
5.752000000000000313e+01,1.049973369256293337e-01
5.756000000000000227e+01,8.871829340077758141e-02
5.760000000000000142e+01,9.133164586478786928e-02
5.764000000000000057e+01,6.937898674357666218e-02
5.767999999999999972e+01,8.710317185967643427e-02
5.771999999999999886e+01,8.545745288422988695e-02
5.775999999999999801e+01,8.758815092263987079e-02
5.779999999999999716e+01,6.468045123106423711e-02
5.784000000000000341e+01,7.105735642445246136e-02
5.788000000000000256e+01,8.876865289107739587e-02
5.792000000000000171e+01,5.309910475489155318e-02
5.796000000000000085e+01,4.954839614039112383e-02
5.800000000000000000e+01,5.591494777545615025e-02
5.803999999999999915e+01,9.156608906736256326e-02
5.807999999999999829e+01,7.619824338528939645e-02
5.811999999999999744e+01,7.358189258950323386e-02
5.815999999999999659e+01,6.057070948335242094e-02
5.820000000000000284e+01,6.503475479489839728e-02
5.824000000000000199e+01,7.374755453507225722e-02
5.828000000000000114e+01,6.970364301667864027e-02
5.832000000000000028e+01,7.510459342058854737e-02
5.835999999999999943e+01,5.168811175764247146e-02
5.839999999999999858e+01,5.377720064279014472e-02
5.843999999999999773e+01,6.247689853977250046e-02
5.847999999999999687e+01,6.645022730858440863e-02
5.852000000000000313e+01,6.286294013000609526e-02
5.856000000000000227e+01,7.391661018490848500e-02
5.860000000000000142e+01,7.552016235210835815e-02
5.864000000000000057e+01,4.547201735948539630e-02
5.867999999999999972e+01,4.518078725597715617e-02
5.871999999999999886e+01,7.039510333556653343e-02
5.875999999999999801e+01,7.293281840151094597e-02
5.879999999999999716e+01,5.940716487990787414e-02
5.884000000000000341e+01,8.036215368758012345e-02
5.888000000000000256e+01,5.313233838237747114e-02
5.892000000000000171e+01,7.313725629637919667e-02
5.896000000000000085e+01,5.818383494970100905e-02
5.900000000000000000e+01,6.306745091955832938e-02
5.903999999999999915e+01,7.031026455648965723e-02
5.907999999999999829e+01,6.621342790916054377e-02
5.911999999999999744e+01,5.786254736593452602e-02
5.915999999999999659e+01,7.076581384354337090e-02
5.920000000000000284e+01,7.658078656041086840e-02
5.924000000000000199e+01,8.569968964076167539e-02
5.928000000000000114e+01,4.757850607652380076e-02
5.932000000000000028e+01,3.543519697328148532e-02
5.935999999999999943e+01,7.147133551190551493e-02
5.939999999999999858e+01,5.176464694828203372e-02
5.943999999999999773e+01,7.315179050128786664e-02
5.947999999999999687e+01,6.241479897409017014e-02
5.952000000000000313e+01,5.167509875514296469e-02
5.956000000000000227e+01,5.604865359132917002e-02
5.960000000000000142e+01,5.238913628599727729e-02
5.964000000000000057e+01,4.872690115204220823e-02
5.967999999999999972e+01,6.915301721939841328e-02
5.971999999999999886e+01,4.706275276295484450e-02
5.975999999999999801e+01,5.000558134110526243e-02
5.979999999999999716e+01,4.491532254961484727e-02
5.984000000000000341e+01,4.265657447497386845e-02
5.988000000000000256e+01,7.062702388297778522e-02
5.992000000000000171e+01,5.560870357679354586e-02
5.996000000000000085e+01,5.475885994496564740e-02
