2.003999999999999915e+01,7.382709409369478393e-02
2.007999999999999829e+01,4.691514957854391737e-02
2.012000000000000099e+01,8.140282747287541643e-02
2.016000000000000014e+01,8.344841358455637459e-02
2.019999999999999929e+01,5.117507167985661104e-02
2.023999999999999844e+01,6.099676541965855930e-02
2.028000000000000114e+01,5.097796276066384608e-02
2.032000000000000028e+01,8.788033696578877174e-02
2.035999999999999943e+01,5.131837524849602178e-02
2.039999999999999858e+01,5.256153437343456108e-02
2.044000000000000128e+01,4.951510144868064706e-02
2.048000000000000043e+01,7.569397169971241179e-02
2.051999999999999957e+01,5.387981995311821870e-02
2.055999999999999872e+01,5.351551124902736989e-02
2.060000000000000142e+01,5.797765457903788361e-02
2.064000000000000057e+01,6.619377124258250811e-02
2.067999999999999972e+01,6.180858940898050630e-02
2.071999999999999886e+01,6.198173446271152548e-02
2.076000000000000156e+01,5.545219894979896980e-02
2.080000000000000071e+01,5.669841647750984565e-02
2.083999999999999986e+01,5.767680972452317312e-02
2.087999999999999901e+01,4.069151097155219304e-02
2.092000000000000171e+01,7.652598114733223655e-02
2.096000000000000085e+01,6.972979099340512188e-02
2.100000000000000000e+01,6.829627133219765001e-02
2.103999999999999915e+01,7.517473112896146115e-02
2.107999999999999829e+01,5.872710542290269370e-02
2.112000000000000099e+01,8.276575652200425515e-02
2.116000000000000014e+01,8.535515238296725871e-02
2.119999999999999929e+01,5.925607321763521479e-02
2.123999999999999844e+01,7.873752926512006534e-02
2.128000000000000114e+01,4.808097208924214105e-02
2.132000000000000028e+01,5.201205986024400041e-02
2.135999999999999943e+01,5.379846324062740465e-02
2.139999999999999858e+01,8.239705143460861192e-02
2.144000000000000128e+01,6.112573762421838475e-02
2.148000000000000043e+01,7.819572929007601036e-02
2.151999999999999957e+01,4.807700674941044194e-02
2.155999999999999872e+01,6.032137337144690553e-02
2.160000000000000142e+01,7.283411626426188057e-02
2.164000000000000057e+01,7.730353892881325351e-02
2.167999999999999972e+01,5.683813117897777711e-02
2.171999999999999886e+01,6.640232245793588339e-02
2.176000000000000156e+01,4.700989167732280011e-02
2.180000000000000071e+01,6.193696278967894542e-02
2.183999999999999986e+01,7.096565714712932404e-02
2.187999999999999901e+01,5.720446456355095244e-02
2.192000000000000171e+01,5.121896930948746651e-02
2.196000000000000085e+01,4.791490501855189682e-02
2.200000000000000000e+01,4.970534230055349834e-02
2.203999999999999915e+01,6.597445038605467826e-02
2.207999999999999829e+01,4.926513282870605137e-02
2.212000000000000099e+01,5.373746153852414914e-02
2.216000000000000014e+01,6.705795235064737625e-02
2.219999999999999929e+01,5.651606359339722552e-02
2.223999999999999844e+01,5.669916720313623176e-02
2.228000000000000114e+01,7.270152556688665169e-02
2.232000000000000028e+01,6.859516688031411236e-02
2.235999999999999943e+01,4.035830148791690053e-02
2.239999999999999858e+01,6.574548893918429060e-02
2.244000000000000128e+01,5.922670955134491655e-02
2.248000000000000043e+01,6.236043388151527728e-02
2.251999999999999957e+01,6.093634352078465544e-02
2.255999999999999872e+01,5.924434332301131007e-02
2.260000000000000142e+01,8.221951482659189958e-02
2.264000000000000057e+01,6.283206161152353475e-02
2.267999999999999972e+01,3.566935561416923611e-02
2.271999999999999886e+01,6.105820983213469666e-02
2.276000000000000156e+01,4.381631418468261846e-02
2.280000000000000071e+01,6.143010904358106594e-02
2.283999999999999986e+01,6.242071029666139415e-02
2.287999999999999901e+01,5.107802279778162619e-02
2.292000000000000171e+01,5.099653219673205146e-02
2.296000000000000085e+01,5.520513788307716829e-02
2.300000000000000000e+01,6.182700362308524850e-02
2.303999999999999915e+01,4.887635485392891749e-02
2.307999999999999829e+01,4.718689502387309054e-02
2.312000000000000099e+01,6.131664816449715338e-02
2.316000000000000014e+01,7.303350820107136487e-02
2.319999999999999929e+01,4.935881428419573030e-02
2.323999999999999844e+01,5.785859720995067956e-02
2.328000000000000114e+01,4.893080711021669665e-02
2.332000000000000028e+01,3.973506936947354684e-02
2.335999999999999943e+01,6.646747099041164231e-02
2.339999999999999858e+01,4.198927722393197559e-02
2.344000000000000128e+01,3.627959146560670589e-02
2.348000000000000043e+01,4.746157748170434787e-02
2.351999999999999957e+01,5.354946070939717306e-02
2.355999999999999872e+01,4.355035287243055192e-02
2.360000000000000142e+01,6.170391630513327730e-02
2.364000000000000057e+01,4.017599705433870516e-02
2.367999999999999972e+01,5.564867795865102024e-02
2.371999999999999886e+01,7.246210639145708732e-02
2.376000000000000156e+01,5.978257492512717430e-02
2.380000000000000071e+01,3.825525825451778217e-02
2.383999999999999986e+01,1.887304067651870629e-02
2.387999999999999901e+01,7.107878723125936327e-02
2.392000000000000171e+01,3.266039340768218946e-02
2.396000000000000085e+01,4.545290223066264512e-02
2.400000000000000000e+01,4.859325836778709967e-02
2.403999999999999915e+01,4.288581736253730542e-02
2.407999999999999829e+01,3.851910597863929947e-02
2.412000000000000099e+01,8.321833586079885325e-02
2.416000000000000014e+01,4.587322711362692984e-02
2.419999999999999929e+01,2.890530363697023375e-02
2.423999999999999844e+01,4.840171410442375977e-02
2.428000000000000114e+01,5.797783878052278905e-02
2.432000000000000028e+01,5.843803320874917800e-02
2.435999999999999943e+01,3.476762144702857243e-02
2.439999999999999858e+01,4.514846307119640967e-02
2.444000000000000128e+01,4.453653423439527664e-02
2.448000000000000043e+01,6.135246578539835932e-02
2.451999999999999957e+01,5.484214072088838821e-02
2.455999999999999872e+01,2.661427211751087388e-02
2.460000000000000142e+01,5.549589623563964957e-02
2.464000000000000057e+01,4.174667697327602567e-02
2.467999999999999972e+01,4.757026157207468881e-02
2.471999999999999886e+01,5.473454395730602273e-02
2.476000000000000156e+01,5.331911256360004348e-02
2.480000000000000071e+01,5.941111606455138500e-02
2.483999999999999986e+01,2.877088814646605597e-02
2.487999999999999901e+01,2.521079111732672101e-02
2.492000000000000171e+01,5.597004078592528187e-02
2.496000000000000085e+01,1.406908325178831895e-02
2.500000000000000000e+01,5.984318480255943623e-02
2.503999999999999915e+01,3.697886283704919508e-02
2.507999999999999829e+01,5.701369329762828037e-02
2.512000000000000099e+01,4.326558936632757257e-02
2.516000000000000014e+01,3.782925995570607380e-02
2.519999999999999929e+01,4.311777567557258800e-02
2.523999999999999844e+01,5.269627427093398486e-02
2.528000000000000114e+01,4.162967022402876138e-02
2.532000000000000028e+01,1.045419990061706959e-02
2.535999999999999943e+01,4.416364064866246802e-02
2.539999999999999858e+01,3.041605501326578864e-02
2.544000000000000128e+01,4.830659843252246843e-02
2.548000000000000043e+01,4.287083748388748061e-02
2.551999999999999957e+01,4.628307150423188743e-02
2.555999999999999872e+01,4.460110126236703498e-02
2.560000000000000142e+01,4.828157269974010096e-02
2.564000000000000057e+01,4.284604822971958132e-02
2.567999999999999972e+01,4.170048474868700422e-02
2.571999999999999886e+01,4.296804602291112718e-02
2.576000000000000156e+01,2.895286433310459429e-02
2.580000000000000071e+01,3.745974174828605591e-02
2.583999999999999986e+01,5.025657219372576395e-02
2.587999999999999901e+01,2.712547702154886539e-02
2.592000000000000171e+01,2.356712403037838216e-02
2.596000000000000085e+01,4.574825231812133797e-02
2.600000000000000000e+01,4.513928872754334465e-02
2.603999999999999915e+01,3.514619015502581240e-02
2.607999999999999829e+01,3.668225047314651460e-02
2.612000000000000099e+01,5.484173206892721530e-02
2.616000000000000014e+01,3.492832069754403523e-02
2.619999999999999929e+01,4.182685537786476337e-02
2.623999999999999844e+01,3.907312595011241951e-02
2.628000000000000114e+01,3.497882493396461956e-02
2.632000000000000028e+01,4.911665031339215726e-02
2.635999999999999943e+01,4.609486863950365554e-02
2.639999999999999858e+01,5.111668062841701748e-02
2.644000000000000128e+01,7.088506373348164857e-02
2.648000000000000043e+01,5.606608726429975625e-02
2.651999999999999957e+01,4.419643411216802459e-02
2.655999999999999872e+01,7.200842963521950080e-02
2.660000000000000142e+01,4.190669115322537969e-02
2.664000000000000057e+01,7.132741651842450237e-02
2.667999999999999972e+01,6.776948742729232977e-02
2.671999999999999886e+01,6.126224979492988360e-02
2.676000000000000156e+01,8.692931391314259737e-02
2.680000000000000071e+01,6.379868612042105536e-02
2.683999999999999986e+01,6.479878076727131619e-02
2.687999999999999901e+01,5.426974522708062632e-02
2.692000000000000171e+01,4.669001310711551334e-02
2.696000000000000085e+01,5.385682623742999581e-02
2.700000000000000000e+01,4.037845116913268972e-02
2.703999999999999915e+01,6.979913103248441830e-02
2.707999999999999829e+01,6.141499134369749618e-02
2.712000000000000099e+01,5.061776157229824075e-02
2.716000000000000014e+01,5.188587532555365839e-02
2.719999999999999929e+01,2.071154711204849577e-02
2.723999999999999844e+01,4.691469947872956708e-02
2.728000000000000114e+01,4.121164425472770981e-02
2.732000000000000028e+01,5.320442732879736292e-02
2.735999999999999943e+01,3.811714403180249677e-02
2.739999999999999858e+01,2.463854439023740323e-02
2.744000000000000128e+01,3.287756474351597596e-02
2.748000000000000043e+01,3.065990177540196815e-02
2.751999999999999957e+01,4.050756442480017705e-02
2.755999999999999872e+01,3.158684526408132853e-02
2.760000000000000142e+01,3.687640116328033679e-02
2.764000000000000057e+01,3.948472193627420440e-02
2.767999999999999972e+01,3.994804394882271736e-02
2.771999999999999886e+01,5.140420491958649918e-02
2.776000000000000156e+01,5.267178781890170108e-02
2.780000000000000071e+01,4.026524134670933508e-02
2.783999999999999986e+01,3.724281279735704164e-02
2.787999999999999901e+01,4.280014264799859858e-02
2.792000000000000171e+01,5.291544124313238978e-02
2.796000000000000085e+01,4.050866964322653863e-02
2.800000000000000000e+01,2.997867103123496094e-02
2.803999999999999915e+01,5.108667214453780497e-02
2.807999999999999829e+01,3.573039985224692183e-02
2.812000000000000099e+01,3.270754250995312057e-02
2.816000000000000014e+01,2.512658993153314702e-02
2.819999999999999929e+01,4.462560309841591411e-02
2.823999999999999844e+01,4.133441296476064730e-02
2.828000000000000114e+01,2.463718876112957340e-02
2.832000000000000028e+01,4.520845308716242572e-02
2.835999999999999943e+01,2.529364241400546692e-02
2.839999999999999858e+01,4.881405737873696637e-02
2.844000000000000128e+01,2.460917556643889628e-02
2.848000000000000043e+01,4.732506472304118250e-02
2.851999999999999957e+01,2.955487092172379843e-02
2.855999999999999872e+01,2.519054689478160761e-02
2.860000000000000142e+01,4.763804953859620411e-02
2.864000000000000057e+01,4.488225638555674163e-02
2.867999999999999972e+01,3.301031610925763554e-02
2.871999999999999886e+01,1.684837191899946074e-02
2.876000000000000156e+01,3.849113272734083074e-02
2.880000000000000071e+01,2.393770349352577001e-02
2.883999999999999986e+01,0.000000000000000000e+00
2.887999999999999901e+01,3.946585960339063330e-03
2.892000000000000171e+01,3.443686349625409843e-02
2.896000000000000085e+01,2.685410878723396358e-02
2.900000000000000000e+01,4.822811427391651695e-02
2.903999999999999915e+01,2.750729587047980040e-02
2.907999999999999829e+01,2.662718164085718653e-02
2.912000000000000099e+01,1.743525593463178883e-02
2.916000000000000014e+01,4.417118108613253546e-02
2.919999999999999929e+01,1.540631550272013144e-02
2.923999999999999844e+01,3.034475295158621175e-02
2.928000000000000114e+01,4.099315863093890011e-02
2.932000000000000028e+01,2.751071139972088159e-02
2.935999999999999943e+01,2.850657086011432195e-02
2.939999999999999858e+01,3.432844462447072476e-02
2.944000000000000128e+01,1.601945950920910522e-02
2.948000000000000043e+01,2.264542304764149624e-02
2.951999999999999957e+01,4.080037436402147305e-02
2.955999999999999872e+01,2.436781290060614780e-02
2.960000000000000142e+01,1.705116263628199749e-02
2.964000000000000057e+01,3.198826128970923971e-02
2.967999999999999972e+01,2.896123021301330591e-02
2.971999999999999886e+01,1.091937837144577560e-02
2.976000000000000156e+01,4.382002149475951180e-02
2.980000000000000071e+01,3.328520703538097314e-02
2.983999999999999986e+01,2.355459732763908950e-02
2.987999999999999901e+01,2.267176571348999622e-02
2.992000000000000171e+01,2.795551842603827622e-02
2.996000000000000085e+01,2.573177541181612474e-02
3.000000000000000000e+01,3.155144698897562050e-02
3.003999999999999915e+01,2.691430790506571871e-02
3.007999999999999829e+01,4.962516022910464647e-02
3.012000000000000099e+01,2.192944043223842704e-02
3.016000000000000014e+01,6.314018061075465926e-02
3.019999999999999929e+01,3.437164471534750326e-02
3.023999999999999844e+01,4.742952786610851040e-02
3.028000000000000114e+01,4.734939664049264696e-02
3.032000000000000028e+01,5.102275724525819067e-02
3.035999999999999943e+01,5.255098578085459077e-02
3.039999999999999858e+01,5.086160354671412365e-02
3.044000000000000128e+01,4.836768115264591938e-02
3.048000000000000043e+01,5.552586454009757200e-02
3.051999999999999957e+01,5.812583530015871108e-02
3.055999999999999872e+01,5.777630650947447599e-02
3.060000000000000142e+01,7.780364464011402248e-02
3.064000000000000057e+01,6.512025051358109884e-02
3.067999999999999972e+01,8.058917548292411637e-02
3.071999999999999886e+01,9.659414225316870217e-02
3.076000000000000156e+01,9.409868721642143663e-02
3.080000000000000071e+01,1.076901823090452154e-01
3.083999999999999986e+01,1.068030392811314677e-01
3.087999999999999901e+01,1.241477958249939534e-01
3.092000000000000171e+01,1.144123089160537510e-01
3.096000000000000085e+01,1.078940436471333558e-01
3.100000000000000000e+01,1.118322158270245864e-01
3.103999999999999915e+01,1.104077919804898750e-01
3.107999999999999829e+01,7.707697152343939706e-02
3.112000000000000099e+01,1.013915578250990379e-01
3.116000000000000014e+01,8.146626136169927979e-02
3.119999999999999929e+01,7.414234582046937139e-02
3.123999999999999844e+01,8.665902701020138099e-02
3.128000000000000114e+01,1.163351111640002072e-01
3.132000000000000028e+01,8.756098817478193130e-02
3.135999999999999943e+01,9.230153401126352242e-02
3.139999999999999858e+01,8.336777140481732573e-02
3.144000000000000128e+01,8.542666271611849826e-02
3.148000000000000043e+01,1.102754497752210100e-01
3.151999999999999957e+01,8.739878685174551354e-02
3.155999999999999872e+01,1.197544362009816538e-01
3.160000000000000142e+01,1.271747616945835824e-01
3.164000000000000057e+01,1.134134298309669719e-01
3.167999999999999972e+01,1.009924495490370638e-01
3.171999999999999886e+01,1.250354311405992846e-01
3.176000000000000156e+01,1.337953713157636060e-01
3.180000000000000071e+01,1.444318954590098347e-01
3.183999999999999986e+01,1.226257468323316280e-01
3.187999999999999901e+01,1.405009822530708108e-01
3.192000000000000171e+01,1.280784943462908720e-01
3.196000000000000085e+01,1.279892303799929909e-01
3.200000000000000000e+01,1.257547527675454690e-01
3.203999999999999915e+01,1.213750595192658183e-01
3.207999999999999829e+01,1.247705582211592196e-01
3.211999999999999744e+01,1.010857537797763966e-01
3.215999999999999659e+01,1.114518167258871234e-01
3.220000000000000284e+01,8.937518899493125668e-02
3.224000000000000199e+01,1.142191452027254972e-01
3.228000000000000114e+01,7.337362871664940278e-02
3.232000000000000028e+01,1.070649674952505181e-01
3.235999999999999943e+01,8.981338437528679775e-02
3.239999999999999858e+01,9.454729370726440429e-02
3.243999999999999773e+01,7.193276480078490687e-02
3.247999999999999687e+01,7.264432025548814287e-02
3.252000000000000313e+01,5.485536635717181558e-02
3.256000000000000227e+01,6.119685037383719439e-02
3.260000000000000142e+01,5.654515803431391791e-02
3.264000000000000057e+01,7.441518456407963944e-02
3.267999999999999972e+01,5.179892120895102786e-02
3.271999999999999886e+01,5.250873027691044942e-02
3.275999999999999801e+01,3.203682627654276527e-02
3.279999999999999716e+01,5.392745233810915251e-02
3.284000000000000341e+01,5.383200381881972363e-02
3.288000000000000256e+01,5.373625130213706413e-02
3.292000000000000171e+01,4.586473664446157061e-02
3.296000000000000085e+01,4.630460851938768968e-02
3.300000000000000000e+01,7.275173066683753020e-02
3.303999999999999915e+01,1.265466969857348967e-01
3.307999999999999829e+01,8.355032620144445255e-02
3.311999999999999744e+01,7.996715860669433018e-02
3.315999999999999659e+01,4.930363613692444885e-02
3.320000000000000284e+01,5.161845261201943036e-02
3.324000000000000199e+01,3.677331980841701264e-02
3.328000000000000114e+01,5.544276032575710944e-02
3.332000000000000028e+01,5.078550649744564827e-02
3.335999999999999943e+01,5.578021519351753638e-02
3.339999999999999858e+01,4.147001323039226778e-02
3.343999999999999773e+01,3.144938625785994452e-02
3.347999999999999687e+01,2.893576241889352432e-02
3.352000000000000313e+01,4.384954929949801822e-02
3.356000000000000227e+01,5.206001891507555657e-02
3.360000000000000142e+01,4.471923641114153303e-02
3.364000000000000057e+01,4.756664085925647184e-02
3.367999999999999972e+01,6.971828231226145922e-02
3.371999999999999886e+01,5.915903830254542334e-02
3.375999999999999801e+01,5.637490267633952362e-02
3.379999999999999716e+01,7.557618986318909160e-02
3.384000000000000341e+01,8.297988148053032920e-02
3.388000000000000256e+01,7.027428102932103959e-02
3.392000000000000171e+01,6.561190018061327511e-02
3.396000000000000085e+01,8.186245747534610928e-02
3.400000000000000000e+01,9.087343726310261049e-02
3.403999999999999915e+01,8.084759373446384623e-02
3.407999999999999829e+01,8.610417964807148827e-02
3.411999999999999744e+01,9.350535330590022121e-02
3.415999999999999659e+01,9.286258396485892741e-02
3.420000000000000284e+01,1.091109531633443347e-01
3.424000000000000199e+01,1.033731781420882540e-01
3.428000000000000114e+01,1.177439678136492779e-01
3.432000000000000028e+01,9.806324628864626636e-02
3.435999999999999943e+01,9.983168136570190476e-02
3.439999999999999858e+01,1.176868875007080761e-01
3.443999999999999773e+01,1.017586956478241933e-01
3.447999999999999687e+01,1.048665818284600648e-01
3.452000000000000313e+01,1.087784399678861924e-01
3.456000000000000227e+01,1.084000036997157246e-01
3.460000000000000142e+01,1.021225559679386080e-01
3.464000000000000057e+01,9.638095504818304515e-02
3.467999999999999972e+01,1.032405619482243131e-01
3.471999999999999886e+01,8.865023910777715399e-02
3.475999999999999801e+01,9.095102695130248549e-02
3.479999999999999716e+01,9.432389200356219860e-02
3.484000000000000341e+01,8.777594598830129602e-02
3.488000000000000256e+01,9.222048277809724581e-02
3.492000000000000171e+01,8.996163465366303902e-02
3.496000000000000085e+01,7.510077771544815262e-02
3.500000000000000000e+01,8.597895238791315731e-02
3.503999999999999915e+01,9.283492795431358413e-02
3.507999999999999829e+01,9.352374900319661288e-02
3.511999999999999744e+01,6.257409166135813328e-02
3.515999999999999659e+01,8.068982643322132609e-02
3.520000000000000284e+01,8.432670620916003779e-02
3.524000000000000199e+01,9.841981252757107945e-02
3.528000000000000114e+01,9.347603384943098392e-02
3.532000000000000028e+01,8.370568460428527702e-02
3.535999999999999943e+01,6.964500115789405699e-02
3.539999999999999858e+01,8.614947462434134617e-02
3.543999999999999773e+01,9.702301402157181842e-02
3.547999999999999687e+01,7.920736807587287764e-02
3.552000000000000313e+01,8.069586760967130401e-02
3.556000000000000227e+01,7.038668601761609300e-02
3.560000000000000142e+01,9.922246507706822261e-02
3.564000000000000057e+01,1.084851028773846371e-01
3.567999999999999972e+01,1.011239083838169628e-01
3.571999999999999886e+01,8.866800424869797359e-02
3.575999999999999801e+01,1.024873322757348798e-01
3.579999999999999716e+01,1.259585014565260397e-01
3.584000000000000341e+01,1.148418454773775105e-01
3.588000000000000256e+01,1.072102855850287501e-01
3.592000000000000171e+01,1.191509704530742120e-01
3.596000000000000085e+01,1.453015145374057793e-01
3.600000000000000000e+01,1.374004638585104576e-01
3.603999999999999915e+01,1.260134026869318691e-01
3.607999999999999829e+01,1.384884851605580891e-01
3.611999999999999744e+01,1.565936052046597582e-01
3.615999999999999659e+01,1.347485006169364952e-01
3.620000000000000284e+01,1.485627775251071314e-01
3.624000000000000199e+01,1.650577750797717347e-01
3.628000000000000114e+01,1.418706612112853316e-01
3.632000000000000028e+01,1.277991242752387069e-01
3.635999999999999943e+01,1.590392512743224462e-01
3.639999999999999858e+01,1.481841882817161726e-01
3.643999999999999773e+01,1.703073030696964640e-01
3.647999999999999687e+01,1.487265088202943120e-01
3.652000000000000313e+01,1.282177062232812137e-01
3.656000000000000227e+01,1.267448781963006199e-01
3.660000000000000142e+01,1.284889912641144494e-01
3.664000000000000057e+01,1.270151831717295232e-01
3.667999999999999972e+01,1.059681820884652431e-01
3.671999999999999886e+01,1.157543914362399451e-01
3.675999999999999801e+01,8.398163124062542340e-02
3.679999999999999716e+01,1.119989486905833970e-01
3.684000000000000341e+01,1.014066035727212295e-01
3.688000000000000256e+01,7.660343906999310393e-02
3.692000000000000171e+01,8.182911751672793110e-02
3.696000000000000085e+01,7.498892602100219740e-02
3.700000000000000000e+01,7.163377490096760336e-02
3.703999999999999915e+01,7.578544983276107316e-02
3.707999999999999829e+01,6.250886529862095808e-02
3.711999999999999744e+01,6.397832063541844527e-02
3.715999999999999659e+01,7.402707276588182950e-02
3.720000000000000284e+01,6.450260603959394323e-02
3.724000000000000199e+01,4.398473215395341807e-02
3.728000000000000114e+01,4.840141893392955336e-02
3.732000000000000028e+01,4.316529046379446316e-02
3.735999999999999943e+01,5.589262005915775211e-02
3.739999999999999858e+01,5.280038933745560131e-02
3.743999999999999773e+01,4.166405246292264469e-02
3.747999999999999687e+01,4.849116768484074136e-02
3.752000000000000313e+01,4.646981524139925934e-02
3.756000000000000227e+01,4.069425751962015697e-02
3.760000000000000142e+01,3.250508841842732893e-02
3.764000000000000057e+01,4.683738947621761406e-02
3.767999999999999972e+01,4.776318888865670187e-02
3.771999999999999886e+01,4.466665588630717304e-02
3.775999999999999801e+01,3.298976245822460296e-02
3.779999999999999716e+01,4.946483396254227477e-02
3.784000000000000341e+01,3.215633835596155843e-02
3.788000000000000256e+01,3.361563248217129540e-02
3.792000000000000171e+01,3.105258424518012733e-02
3.796000000000000085e+01,4.109058067402489300e-02
3.800000000000000000e+01,4.093948967271439365e-02
3.803999999999999915e+01,2.764999829663203346e-02
3.807999999999999829e+01,3.071521410543627886e-02
3.811999999999999744e+01,2.278697898187400511e-02
3.815999999999999659e+01,3.228592377471856123e-02
3.820000000000000284e+01,3.427696296620844074e-02
3.824000000000000199e+01,4.002110003095480512e-02
3.828000000000000114e+01,5.809814666635641084e-02
3.832000000000000028e+01,4.239160231467037354e-02
3.835999999999999943e+01,4.545282381958531959e-02
3.839999999999999858e+01,4.985406263953554712e-02
3.843999999999999773e+01,4.031252365472558219e-02
3.847999999999999687e+01,2.674861445116043235e-02
3.852000000000000313e+01,2.578572205787700231e-02
3.856000000000000227e+01,1.999609793330955551e-02
3.860000000000000142e+01,6.648912494240863391e-02
3.864000000000000057e+01,3.200956976801498655e-02
3.867999999999999972e+01,2.407322068667989284e-02
3.871999999999999886e+01,3.597709626568885294e-02
3.875999999999999801e+01,2.106845759185661457e-02
3.879999999999999716e+01,5.924681763644241983e-02
3.884000000000000341e+01,3.736588141138316027e-02
3.888000000000000256e+01,3.666575777654465518e-02
3.892000000000000171e+01,4.427672421162290317e-02
3.896000000000000085e+01,4.598846230770754773e-02
3.900000000000000000e+01,3.482987145436284432e-02
3.903999999999999915e+01,3.305484141277263699e-02
3.907999999999999829e+01,2.591681541858418397e-02
3.911999999999999744e+01,5.363366814030702534e-02
3.915999999999999659e+01,5.078431822426613534e-02
3.920000000000000284e+01,2.728917325646654582e-02
3.924000000000000199e+01,3.811266268008842162e-02
3.928000000000000114e+01,4.062383524776556204e-02
3.932000000000000028e+01,4.340250265689650500e-02
3.935999999999999943e+01,5.368788071627351305e-02
3.939999999999999858e+01,2.911713735625157465e-02
3.943999999999999773e+01,4.315492528277943551e-02
3.947999999999999687e+01,4.083681107331182947e-02
3.952000000000000313e+01,5.085154475434348897e-02
3.956000000000000227e+01,3.566243945521264946e-02
3.960000000000000142e+01,5.103828215226323406e-02
3.964000000000000057e+01,6.024674350799736483e-02
3.967999999999999972e+01,6.033851057779843208e-02
3.971999999999999886e+01,6.203834848083526754e-02
3.975999999999999801e+01,6.588249358286796253e-02
3.979999999999999716e+01,3.460237819095605266e-02
3.984000000000000341e+01,4.595256185458855558e-02
3.988000000000000256e+01,5.354842483830145328e-02
3.992000000000000171e+01,4.344776791090556450e-02
3.996000000000000085e+01,7.088313969330238551e-02
4.000000000000000000e+01,4.710709037006550332e-02
4.003999999999999915e+01,4.585239182486477300e-02
4.007999999999999829e+01,7.703945164370505638e-02
4.011999999999999744e+01,7.310223505114112064e-02
4.015999999999999659e+01,8.873705231263183391e-02
4.020000000000000284e+01,8.479850149118774161e-02
4.024000000000000199e+01,1.071349599874654168e-01
4.028000000000000114e+01,8.469484371564299507e-02
4.032000000000000028e+01,8.611666018268586409e-02
4.035999999999999943e+01,1.036249512449945731e-01
4.039999999999999858e+01,1.039729368754477024e-01
4.043999999999999773e+01,1.043202424585248367e-01
4.047999999999999687e+01,1.113698454475755689e-01
4.052000000000000313e+01,1.221724328979833796e-01
4.056000000000000227e+01,1.179596603795760590e-01
4.060000000000000142e+01,1.113331272555714985e-01
4.064000000000000057e+01,1.430469465499218384e-01
4.067999999999999972e+01,1.525061821079351787e-01
4.071999999999999886e+01,1.769793976431871252e-01
4.075999999999999801e+01,1.901909117493096324e-01
4.079999999999999716e+01,2.109090648771100307e-01
4.084000000000000341e+01,2.485180262571506371e-01
4.088000000000000256e+01,2.858581665255870430e-01
4.092000000000000171e+01,3.312411782020965867e-01
4.096000000000000085e+01,3.881526086073732729e-01
4.100000000000000000e+01,4.713390105264052554e-01
4.103999999999999915e+01,5.277127847806964978e-01
4.107999999999999829e+01,6.017817128822969819e-01
4.111999999999999744e+01,7.278650475898486016e-01
4.115999999999999659e+01,8.255270335972840767e-01
4.120000000000000284e+01,9.012025291802323590e-01
4.124000000000000199e+01,9.626669885029273122e-01
4.128000000000000114e+01,1.000000000000000000e+00
4.132000000000000028e+01,9.786141877557220647e-01
4.135999999999999943e+01,9.641987483221249322e-01
4.139999999999999858e+01,8.961587455445169104e-01
4.143999999999999773e+01,7.600157418362664119e-01
4.147999999999999687e+01,6.648942405402522571e-01
4.152000000000000313e+01,5.678951712313867750e-01
4.156000000000000227e+01,5.081639318672951378e-01
4.160000000000000142e+01,4.406564986011192175e-01
4.164000000000000057e+01,3.868224036608791105e-01
4.167999999999999972e+01,3.292338985050092259e-01
4.171999999999999886e+01,2.936304222050701296e-01
4.175999999999999801e+01,2.727727549729045964e-01
4.179999999999999716e+01,2.387765003358170990e-01
4.184000000000000341e+01,2.232797192752363213e-01
4.188000000000000256e+01,2.083184248941539751e-01
4.192000000000000171e+01,1.887983508261832089e-01
4.196000000000000085e+01,1.690094019251821567e-01
4.200000000000000000e+01,1.730823021963835695e-01
4.203999999999999915e+01,1.666977949017811322e-01
4.207999999999999829e+01,1.694285780253458606e-01
4.211999999999999744e+01,1.606294728928567284e-01
4.215999999999999659e+01,1.333293788938778590e-01
4.220000000000000284e+01,1.298911241186893051e-01
4.224000000000000199e+01,1.361043901583806615e-01
4.228000000000000114e+01,1.323964750496160470e-01
4.232000000000000028e+01,1.246659987125811331e-01
4.235999999999999943e+01,1.155941509348062529e-01
4.239999999999999858e+01,1.006229037053471970e-01
4.243999999999999773e+01,1.057598152734858937e-01
4.247999999999999687e+01,1.106278261427223880e-01
4.252000000000000313e+01,1.120095041907188532e-01
4.256000000000000227e+01,1.091004898946291296e-01
4.260000000000000142e+01,1.072631648191963022e-01
4.264000000000000057e+01,9.845395164309950209e-02
4.267999999999999972e+01,1.105572428596695161e-01
4.271999999999999886e+01,9.638406120027838420e-02
4.275999999999999801e+01,9.507980462255084808e-02
4.279999999999999716e+01,1.023545642932637278e-01
4.284000000000000341e+01,1.082879286470473379e-01
4.288000000000000256e+01,1.059087970734659545e-01
4.292000000000000171e+01,1.126449141347202199e-01
4.296000000000000085e+01,8.318413680623132356e-02
4.300000000000000000e+01,9.501290545976701085e-02
4.303999999999999915e+01,7.600715929862024434e-02
4.307999999999999829e+01,9.587788254064165405e-02
4.311999999999999744e+01,1.082404554503671595e-01
4.315999999999999659e+01,8.494236237737964879e-02
4.320000000000000284e+01,1.099049039587579740e-01
4.324000000000000199e+01,9.893865640033713826e-02
4.328000000000000114e+01,9.360209025923335591e-02
4.332000000000000028e+01,1.030112555882878173e-01
4.335999999999999943e+01,9.767304084847704126e-02
4.339999999999999858e+01,9.555142895744447862e-02
4.343999999999999773e+01,9.396522614829484754e-02
4.347999999999999687e+01,1.140958454713268538e-01
4.352000000000000313e+01,1.149210507455021846e-01
4.356000000000000227e+01,1.318325714403473237e-01
4.360000000000000142e+01,1.267574823297579756e-01
4.364000000000000057e+01,1.235583882412457091e-01
4.367999999999999972e+01,1.426123446919455584e-01
4.371999999999999886e+01,1.402159237236060285e-01
4.375999999999999801e+01,1.413042068746239999e-01
4.379999999999999716e+01,1.705441565056748099e-01
4.384000000000000341e+01,1.818192720590156575e-01
4.388000000000000256e+01,1.853180802983728226e-01
4.392000000000000171e+01,2.089249737170770227e-01
4.396000000000000085e+01,2.413789448611520505e-01
4.400000000000000000e+01,2.614985767009341266e-01
4.403999999999999915e+01,2.655301987586431434e-01
4.407999999999999829e+01,3.132643856764421031e-01
4.411999999999999744e+01,3.162218068166258722e-01
4.415999999999999659e+01,3.280262957337682361e-01
4.420000000000000284e+01,3.132861189789775680e-01
4.424000000000000199e+01,3.098060786212720741e-01
4.428000000000000114e+01,2.988178302304796419e-01
4.432000000000000028e+01,2.744227499070497345e-01
4.435999999999999943e+01,2.476137219478723728e-01
4.439999999999999858e+01,2.371590868037546651e-01
4.443999999999999773e+01,1.956017480283475107e-01
4.447999999999999687e+01,1.824641610860928964e-01
4.452000000000000313e+01,1.591371623954439263e-01
4.456000000000000227e+01,1.274975842107669288e-01
4.460000000000000142e+01,1.269589436674080085e-01
4.464000000000000057e+01,1.135496936293944187e-01
4.467999999999999972e+01,8.646547457387999958e-02
4.471999999999999886e+01,1.068374570316343170e-01
4.475999999999999801e+01,8.270076105457556392e-02
4.479999999999999716e+01,8.430260921599694313e-02
4.484000000000000341e+01,8.188177079915374967e-02
4.488000000000000256e+01,7.275705203715070180e-02
4.492000000000000171e+01,6.631262216055036629e-02
4.496000000000000085e+01,7.166453122219353100e-02
4.500000000000000000e+01,5.100797317369743650e-02
4.503999999999999915e+01,5.394499390381655296e-02
4.507999999999999829e+01,5.875793802744452149e-02
4.511999999999999744e+01,4.989589124706465817e-02
4.515999999999999659e+01,5.336641181195893313e-02
4.520000000000000284e+01,4.235757996031653400e-02
4.524000000000000199e+01,4.689874160723873919e-02
4.528000000000000114e+01,5.117086327748725932e-02
4.532000000000000028e+01,4.552165258341372284e-02
4.535999999999999943e+01,5.059628421987433233e-02
4.539999999999999858e+01,2.885807131620718793e-02
4.543999999999999773e+01,3.500332413787118901e-02
4.547999999999999687e+01,4.382883798938348036e-02
4.552000000000000313e+01,2.798645475349103087e-02
4.556000000000000227e+01,4.136812716248877697e-02
4.560000000000000142e+01,3.437180534825731715e-02
4.564000000000000057e+01,4.936031740107657551e-02
4.567999999999999972e+01,3.270982578700797061e-02
4.571999999999999886e+01,3.992099830467408378e-02
4.575999999999999801e+01,4.042824670416660798e-02
4.579999999999999716e+01,5.192743472540761740e-02
4.584000000000000341e+01,3.366444536507974539e-02
4.588000000000000256e+01,4.221242313269112090e-02
4.592000000000000171e+01,4.459270717884153412e-02
4.596000000000000085e+01,3.276172018221006066e-02
4.600000000000000000e+01,3.996623819055334509e-02
4.603999999999999915e+01,4.100305650838834137e-02
4.607999999999999829e+01,3.185038548021340565e-02
4.611999999999999744e+01,4.548688197606372274e-02
4.615999999999999659e+01,3.820911803768788778e-02
4.620000000000000284e+01,4.889437244498939794e-02
4.624000000000000199e+01,4.215091174907656391e-02
4.628000000000000114e+01,4.398629419923126560e-02
4.632000000000000028e+01,5.037873013995183141e-02
4.635999999999999943e+01,5.355276142763863712e-02
4.639999999999999858e+01,4.519669156324952058e-02
4.643999999999999773e+01,4.729629113024709508e-02
4.647999999999999687e+01,4.456876500883590747e-02
4.652000000000000313e+01,3.889094545338246667e-02
4.656000000000000227e+01,3.669769073951504451e-02
4.660000000000000142e+01,3.986583312160019155e-02
4.664000000000000057e+01,5.429399251982362090e-02
4.667999999999999972e+01,3.708309850909793925e-02
4.671999999999999886e+01,4.963244079791407498e-02
4.675999999999999801e+01,4.153561198498861851e-02
4.679999999999999716e+01,3.531462100922690139e-02
4.684000000000000341e+01,3.981739874574863336e-02
4.688000000000000256e+01,3.225381309856251155e-02
4.692000000000000171e+01,5.069678531440804242e-02
4.696000000000000085e+01,3.830504772669111185e-02
4.700000000000000000e+01,4.414440786872370764e-02
4.703999999999999915e+01,2.746074873718875112e-02
4.707999999999999829e+01,4.214602306438123419e-02
4.711999999999999744e+01,4.556927960293499086e-02
4.715999999999999659e+01,4.952776018290395293e-02
4.720000000000000284e+01,4.463729159436093108e-02
4.724000000000000199e+01,3.411530198027868527e-02
4.728000000000000114e+01,4.370123041221785076e-02
4.732000000000000028e+01,5.355425574912116987e-02
4.735999999999999943e+01,4.651474862714416458e-02
4.739999999999999858e+01,5.663384262720712325e-02
4.743999999999999773e+01,3.779503719156726560e-02
4.747999999999999687e+01,4.335404669707702829e-02
4.752000000000000313e+01,4.757142809281102169e-02
4.756000000000000227e+01,4.803410678959525726e-02
4.760000000000000142e+01,4.045217395420677015e-02
4.764000000000000057e+01,5.780428645668070353e-02
4.767999999999999972e+01,4.673472594079965819e-02
4.771999999999999886e+01,4.692512871963080284e-02
4.775999999999999801e+01,4.443329556198502561e-02
4.779999999999999716e+01,3.791862858957358029e-02
4.784000000000000341e+01,3.193915183397568608e-02
4.788000000000000256e+01,4.928499341181782900e-02
4.792000000000000171e+01,3.418736236739113032e-02
4.796000000000000085e+01,4.992238265323541146e-02
4.800000000000000000e+01,4.206185920224819741e-02
4.803999999999999915e+01,4.975118997205409122e-02
4.807999999999999829e+01,5.020024286666171370e-02
4.811999999999999744e+01,4.367713507410993234e-02
4.815999999999999659e+01,5.029080293381233552e-02
4.820000000000000284e+01,3.706258559636898403e-02
4.824000000000000199e+01,4.206540430851928719e-02
4.828000000000000114e+01,5.055270230591031588e-02
4.832000000000000028e+01,5.072723377912330411e-02
4.835999999999999943e+01,4.741514193745879902e-02
4.839999999999999858e+01,3.981206725807059227e-02
4.843999999999999773e+01,3.167167623937408583e-02
4.847999999999999687e+01,3.479121071142323579e-02
4.852000000000000313e+01,5.319245635035490388e-02
4.856000000000000227e+01,3.539652904400052147e-02
4.860000000000000142e+01,5.165065136565332587e-02
4.864000000000000057e+01,4.430919811555548982e-02
4.867999999999999972e+01,3.669853576577592619e-02
4.871999999999999886e+01,4.222462121269636437e-02
4.875999999999999801e+01,5.096704289094691059e-02
4.879999999999999716e+01,3.343268926150410464e-02
4.884000000000000341e+01,3.654241443590979660e-02
4.888000000000000256e+01,3.616549042956617582e-02
4.892000000000000171e+01,4.275856318392085714e-02
4.896000000000000085e+01,4.291567182322720414e-02
4.900000000000000000e+01,2.376709382718139585e-02
4.903999999999999915e+01,4.456716548250400090e-02
4.907999999999999829e+01,2.943815750439003967e-02
4.911999999999999744e+01,4.246055137854329309e-02
4.915999999999999659e+01,5.628618898771066414e-02
4.920000000000000284e+01,4.866117659134328727e-02
4.924000000000000199e+01,2.736096835367595251e-02
4.928000000000000114e+01,3.662522660903746313e-02
4.932000000000000028e+01,3.650419188727464792e-02
4.935999999999999943e+01,3.504143753034341668e-02
4.939999999999999858e+01,3.920806016931455834e-02
4.943999999999999773e+01,3.398938386211398932e-02
4.947999999999999687e+01,5.504525725598961861e-02
4.952000000000000313e+01,4.821560446156022278e-02
4.956000000000000227e+01,5.345018096961423604e-02
4.960000000000000142e+01,3.669784921986644910e-02
4.964000000000000057e+01,3.898084141399048297e-02
4.967999999999999972e+01,4.769755420940363644e-02
4.971999999999999886e+01,4.220280893188488314e-02
4.975999999999999801e+01,3.858375425502864192e-02
4.979999999999999716e+01,2.879681285751388431e-02
4.984000000000000341e+01,3.965390052178646707e-02
4.988000000000000256e+01,4.193002488654411913e-02
4.992000000000000171e+01,3.777013738387482306e-02
4.996000000000000085e+01,4.084831408788137941e-02
5.000000000000000000e+01,3.480928316788312049e-02
5.003999999999999915e+01,4.244317274050662253e-02
5.007999999999999829e+01,3.372063291128583884e-02
5.011999999999999744e+01,3.867100959532188131e-02
5.015999999999999659e+01,3.745348165155748532e-02
5.020000000000000284e+01,4.374212515409551388e-02
5.024000000000000199e+01,3.099313951884674623e-02
5.028000000000000114e+01,4.210559119153360619e-02
5.032000000000000028e+01,4.276022343414977167e-02
5.035999999999999943e+01,4.475427807674911551e-02
5.039999999999999858e+01,3.709486684307661264e-02
5.043999999999999773e+01,2.005010692117118257e-02
5.047999999999999687e+01,4.804818939877041062e-02
5.052000000000000313e+01,5.084188772321623917e-02
5.056000000000000227e+01,3.272110674836661848e-02
5.060000000000000142e+01,4.596908414018898575e-02
5.064000000000000057e+01,3.454890976525314822e-02
5.067999999999999972e+01,5.020758293408385947e-02
5.071999999999999886e+01,4.119810035679150051e-02
5.075999999999999801e+01,3.513673534898545392e-02
5.079999999999999716e+01,3.604527358680260224e-02
5.084000000000000341e+01,2.676408570639843276e-02
5.088000000000000256e+01,4.563421213223375905e-02
5.092000000000000171e+01,4.037241121897622992e-02
5.096000000000000085e+01,4.315298230349724762e-02
5.100000000000000000e+01,5.343968504067168196e-02
5.103999999999999915e+01,4.361624213552520862e-02
5.107999999999999829e+01,4.317576114771626977e-02
5.111999999999999744e+01,4.648773735541553848e-02
5.115999999999999659e+01,3.960997152743393757e-02
5.120000000000000284e+01,3.219475207205507034e-02
5.124000000000000199e+01,3.845239341882446260e-02
5.128000000000000114e+01,3.237533333909543148e-02
5.132000000000000028e+01,4.372479857024767075e-02
5.135999999999999943e+01,3.684093648566835744e-02
5.139999999999999858e+01,3.397763684654130090e-02
5.143999999999999773e+01,3.888856615128215288e-02
5.147999999999999687e+01,3.763152516870175296e-02
5.152000000000000313e+01,5.219228448226267969e-02
5.156000000000000227e+01,3.993989284459875666e-02
5.160000000000000142e+01,5.396194545484137017e-02
5.164000000000000057e+01,3.929400889044522976e-02
5.167999999999999972e+01,3.695831535308400501e-02
5.171999999999999886e+01,4.909981627484554662e-02
5.175999999999999801e+01,4.488480422809999065e-02
5.179999999999999716e+01,3.879171282011413535e-02
5.184000000000000341e+01,5.682810030016972880e-02
5.188000000000000256e+01,4.617448666749195130e-02
5.192000000000000171e+01,4.570815070198412655e-02
5.196000000000000085e+01,3.907382057296568401e-02
5.200000000000000000e+01,4.343112166491618770e-02
5.203999999999999915e+01,4.296102050259752864e-02
5.207999999999999829e+01,4.570709042796575194e-02
5.211999999999999744e+01,5.756795136120659157e-02
5.215999999999999659e+01,6.165209311619684190e-02
5.220000000000000284e+01,5.313336850427101410e-02
5.224000000000000199e+01,5.346130975344923209e-02
5.228000000000000114e+01,6.370839158493402099e-02
5.232000000000000028e+01,6.510626956855333769e-02
5.235999999999999943e+01,6.274920609132911276e-02
5.239999999999999858e+01,6.843444298331519127e-02
5.243999999999999773e+01,6.553858923610973719e-02
5.247999999999999687e+01,5.861966888129204606e-02
5.252000000000000313e+01,7.583019358991426040e-02
5.256000000000000227e+01,5.174908200830125732e-02
5.260000000000000142e+01,4.884810055582911037e-02
5.264000000000000057e+01,5.988802944434083037e-02
5.267999999999999972e+01,4.545534755912557234e-02
5.271999999999999886e+01,4.898535970134844375e-02
5.275999999999999801e+01,4.232555022059251992e-02
5.279999999999999716e+01,5.041100065525453561e-02
5.284000000000000341e+01,5.420524739744096016e-02
5.288000000000000256e+01,4.271540217089686564e-02
5.292000000000000171e+01,4.570269171300207073e-02
5.296000000000000085e+01,5.056551268117383258e-02
5.300000000000000000e+01,4.765157268776359922e-02
5.303999999999999915e+01,3.427967796587619298e-02
5.307999999999999829e+01,4.074729360833378305e-02
5.311999999999999744e+01,5.311222038394743106e-02
5.315999999999999659e+01,5.287423304026627607e-02
5.320000000000000284e+01,5.451176518455695674e-02
5.324000000000000199e+01,4.676380936284327966e-02
5.328000000000000114e+01,5.081177862542404083e-02
5.332000000000000028e+01,5.834397647325709896e-02
5.335999999999999943e+01,5.407760778654684131e-02
5.339999999999999858e+01,3.077345277713633767e-02
5.343999999999999773e+01,4.312782171048445273e-02
5.347999999999999687e+01,3.564004280860357671e-02
5.352000000000000313e+01,5.094106333949487142e-02
5.356000000000000227e+01,4.961736218844773477e-02
5.360000000000000142e+01,4.802420720677770538e-02
5.364000000000000057e+01,3.302375669645962741e-02
5.367999999999999972e+01,5.234122230219904331e-02
5.371999999999999886e+01,5.262088566777865795e-02
5.375999999999999801e+01,5.263108724400565597e-02
5.379999999999999716e+01,4.835003737537830332e-02
5.384000000000000341e+01,4.862566693701655257e-02
5.388000000000000256e+01,4.085637258633761232e-02
5.392000000000000171e+01,5.212218928350847297e-02
5.396000000000000085e+01,5.078505206773560599e-02
5.400000000000000000e+01,4.381605757008971702e-02
5.403999999999999915e+01,4.596175857555892530e-02
5.407999999999999829e+01,4.033064489802008767e-02
5.411999999999999744e+01,4.113303096701859118e-02
5.415999999999999659e+01,4.273841206072508114e-02
5.420000000000000284e+01,4.112499852363792063e-02
5.424000000000000199e+01,4.701755547492593446e-02
5.428000000000000114e+01,5.264062477098948450e-02
5.432000000000000028e+01,5.692172771126095820e-02
5.435999999999999943e+01,4.484618835366624423e-02
5.439999999999999858e+01,4.617523343558502941e-02
5.443999999999999773e+01,4.750290208127085079e-02
5.447999999999999687e+01,4.990166901192638615e-02
5.452000000000000313e+01,6.007451168090124222e-02
5.456000000000000227e+01,5.871684730258061591e-02
5.460000000000000142e+01,5.896651359562497807e-02
5.464000000000000057e+01,5.277993323871335574e-02
5.467999999999999972e+01,6.053416174898066521e-02
5.471999999999999886e+01,6.346085469625484254e-02
5.475999999999999801e+01,6.477744022350877262e-02
5.479999999999999716e+01,6.475203551878126740e-02
5.484000000000000341e+01,5.989908928201322091e-02
5.488000000000000256e+01,8.024794742830575200e-02
5.492000000000000171e+01,8.182706282168615564e-02
5.496000000000000085e+01,7.750615400309363023e-02
5.500000000000000000e+01,7.103888747094358469e-02
5.503999999999999915e+01,8.682410640819020198e-02
5.507999999999999829e+01,1.039485129628910931e-01
5.511999999999999744e+01,8.782473121931845539e-02
5.515999999999999659e+01,9.261283308748874399e-02
5.520000000000000284e+01,8.184860840762531176e-02
5.524000000000000199e+01,9.172814418241845291e-02
5.528000000000000114e+01,8.042484669766608585e-02
5.532000000000000028e+01,8.225796871200960481e-02
5.535999999999999943e+01,7.470549730717898629e-02
5.539999999999999858e+01,8.431122908789860648e-02
5.543999999999999773e+01,7.192976211717906632e-02
5.547999999999999687e+01,6.866291902100636613e-02
5.552000000000000313e+01,8.416298820766432431e-02
5.556000000000000227e+01,7.177723076396749780e-02
5.560000000000000142e+01,6.609301862627867119e-02
5.564000000000000057e+01,8.695116895629030618e-02
5.567999999999999972e+01,6.678564697855710053e-02
5.571999999999999886e+01,6.780009993473368191e-02
5.575999999999999801e+01,6.076953546351807761e-02
5.579999999999999716e+01,7.411458441368364014e-02
5.584000000000000341e+01,6.413181882697908953e-02
5.588000000000000256e+01,7.613337774861843321e-02
5.592000000000000171e+01,5.542294693377790293e-02
5.596000000000000085e+01,5.723307500335901576e-02
5.600000000000000000e+01,7.566513805781106827e-02
5.603999999999999915e+01,6.460263553939127323e-02
5.607999999999999829e+01,6.855334896014991797e-02
5.611999999999999744e+01,6.740833800130834053e-02
5.615999999999999659e+01,7.350108284836311123e-02
5.620000000000000284e+01,8.120107877948493091e-02
5.624000000000000199e+01,8.166039094018895383e-02
5.628000000000000114e+01,7.541525569623530600e-02
5.632000000000000028e+01,6.595122036831824186e-02
5.635999999999999943e+01,6.318869254244276201e-02
5.639999999999999858e+01,7.061321953930295436e-02
5.643999999999999773e+01,6.489843090746498511e-02
5.647999999999999687e+01,7.285624242937455142e-02
5.652000000000000313e+01,6.821097269866358004e-02
5.656000000000000227e+01,7.455710736512237424e-02
5.660000000000000142e+01,7.393065953174270122e-02
5.664000000000000057e+01,7.571579842908687796e-02
5.667999999999999972e+01,8.259371384468536248e-02
5.671999999999999886e+01,7.606418052608722447e-02
5.675999999999999801e+01,7.516365810182101814e-02
5.679999999999999716e+01,8.096462129308938660e-02
5.684000000000000341e+01,6.987258047073714728e-02
5.688000000000000256e+01,6.655449799543976253e-02
5.692000000000000171e+01,6.832918010030190892e-02
5.696000000000000085e+01,6.956612206349424565e-02
5.700000000000000000e+01,6.785224929584289522e-02
5.703999999999999915e+01,7.525292280512291265e-02
5.707999999999999829e+01,6.629681871813015992e-02
5.711999999999999744e+01,5.385365557580380769e-02
5.715999999999999659e+01,6.151791902793411065e-02
5.720000000000000284e+01,5.979649753549755309e-02
5.724000000000000199e+01,6.558089730525253069e-02
5.728000000000000114e+01,6.332020403968227629e-02
5.732000000000000028e+01,5.998551436985762042e-02
5.735999999999999943e+01,5.718554137242382041e-02
5.739999999999999858e+01,7.368862549818810947e-02
5.743999999999999773e+01,6.418262372257148296e-02
5.747999999999999687e+01,6.379114633737935358e-02
5.752000000000000313e+01,5.615892151193122711e-02
5.756000000000000227e+01,5.817745545298515231e-02
5.760000000000000142e+01,4.196235168784556713e-02
5.764000000000000057e+01,4.799960406274352692e-02
5.767999999999999972e+01,5.698462979206426332e-02
5.771999999999999886e+01,4.559105842437381761e-02
5.775999999999999801e+01,6.261657831526297457e-02
5.779999999999999716e+01,5.658230535256341537e-02
5.784000000000000341e+01,5.751758545137595352e-02
5.788000000000000256e+01,6.810360839923110254e-02
5.792000000000000171e+01,4.865873390369679363e-02
5.796000000000000085e+01,4.664005443175732457e-02
5.800000000000000000e+01,4.515605979728945507e-02
5.803999999999999915e+01,6.190261374021542584e-02
5.807999999999999829e+01,5.129945405823494592e-02
5.811999999999999744e+01,4.981078693175976929e-02
5.815999999999999659e+01,4.992927339491159966e-02
5.820000000000000284e+01,4.629252790358238251e-02
5.824000000000000199e+01,4.238609777846626819e-02
5.828000000000000114e+01,5.536960840404281381e-02
5.832000000000000028e+01,3.966279757801188105e-02
5.835999999999999943e+01,5.157069063215989624e-02
5.839999999999999858e+01,5.302036234038259854e-02
5.843999999999999773e+01,3.864942715857188488e-02
5.847999999999999687e+01,5.618309673143338095e-02
5.852000000000000313e+01,5.146129516958580091e-02
5.856000000000000227e+01,4.673791223421301655e-02
5.860000000000000142e+01,4.549849524600938638e-02
5.864000000000000057e+01,4.104006277226023708e-02
5.867999999999999972e+01,4.730481006478981509e-02
5.871999999999999886e+01,3.426338722913221252e-02
5.875999999999999801e+01,4.347426482240349804e-02
5.879999999999999716e+01,3.766887515166316563e-02
5.884000000000000341e+01,5.170270933099537641e-02
5.888000000000000256e+01,5.501017911049160131e-02
5.892000000000000171e+01,2.909105923770094124e-02
5.896000000000000085e+01,3.614899695427816612e-02
5.900000000000000000e+01,4.481404647715105105e-02
5.903999999999999915e+01,4.757886884044114362e-02
5.907999999999999829e+01,4.980584560889170925e-02
5.911999999999999744e+01,5.015437890421389072e-02
5.915999999999999659e+01,5.211001604710181062e-02
5.920000000000000284e+01,5.057849067116871461e-02
5.924000000000000199e+01,5.145842269660041296e-02
5.928000000000000114e+01,4.482940055802694945e-02
5.932000000000000028e+01,5.321343319435353769e-02
5.935999999999999943e+01,4.255938304529505167e-02
5.939999999999999858e+01,4.396907273683761663e-02
5.943999999999999773e+01,3.760168112792398876e-02
5.947999999999999687e+01,3.954435689214860078e-02
5.952000000000000313e+01,3.773173504237136572e-02
5.956000000000000227e+01,4.396105740864615641e-02
5.960000000000000142e+01,3.302911929549012804e-02
5.964000000000000057e+01,4.220448441647893512e-02
5.967999999999999972e+01,4.762454396473603246e-02
5.971999999999999886e+01,5.250672608323440210e-02
5.975999999999999801e+01,4.022763976357213861e-02
5.979999999999999716e+01,4.617901447527599651e-02
5.984000000000000341e+01,3.577347430261811068e-02
5.988000000000000256e+01,3.340986242855271959e-02
5.992000000000000171e+01,4.793610972819965788e-02
5.996000000000000085e+01,3.725750330963517598e-02
