2.003999999999999915e+01,4.589373762317747185e-02
2.007999999999999829e+01,1.360980214505922714e-01
2.012000000000000099e+01,1.186707624796674021e-01
2.016000000000000014e+01,1.237896882175968105e-01
2.019999999999999929e+01,2.119310664496314445e-01
2.023999999999999844e+01,2.344667857953139367e-01
2.028000000000000114e+01,1.360456883255608818e-01
2.032000000000000028e+01,1.790732707258545220e-01
2.035999999999999943e+01,1.739205629557934729e-01
2.039999999999999858e+01,1.216125877437174430e-01
2.044000000000000128e+01,5.084994741342799274e-02
2.048000000000000043e+01,7.335998307511262806e-02
2.051999999999999957e+01,8.869059227374963272e-02
2.055999999999999872e+01,1.808935365240637583e-01
2.060000000000000142e+01,1.377893735226860816e-01
2.064000000000000057e+01,1.008310669082629202e-01
2.067999999999999972e+01,1.099944551360814426e-01
2.071999999999999886e+01,8.737790801408795716e-02
2.076000000000000156e+01,7.295726399756827241e-02
2.080000000000000071e+01,2.061354437921726346e-01
2.083999999999999986e+01,5.640343273032924487e-02
2.087999999999999901e+01,1.116714501272125515e-01
2.092000000000000171e+01,1.597600536794527015e-01
2.096000000000000085e+01,1.945191158498986717e-01
2.100000000000000000e+01,9.602112632005517512e-02
2.103999999999999915e+01,1.625473331028546298e-01
2.107999999999999829e+01,1.624428860314540979e-01
2.112000000000000099e+01,1.223583444966581807e-01
2.116000000000000014e+01,1.007199333507267647e-01
2.119999999999999929e+01,1.928546502398706952e-01
2.123999999999999844e+01,1.076563999403276489e-01
2.128000000000000114e+01,1.167558723360670736e-01
2.132000000000000028e+01,1.043256429745886005e-01
2.135999999999999943e+01,1.441672587056316845e-01
2.139999999999999858e+01,1.245533809426885019e-01
2.144000000000000128e+01,1.623364581284408303e-01
2.148000000000000043e+01,1.150385076814231522e-01
2.151999999999999957e+01,1.507630513692464758e-01
2.155999999999999872e+01,1.536826647394104184e-01
2.160000000000000142e+01,1.801735297111774770e-01
2.164000000000000057e+01,1.677093380899735142e-01
2.167999999999999972e+01,1.398655848671072066e-01
2.171999999999999886e+01,1.314930011653718811e-01
2.176000000000000156e+01,9.954068665366651303e-02
2.180000000000000071e+01,1.362605745787046352e-01
2.183999999999999986e+01,2.027018504753809180e-01
2.187999999999999901e+01,1.092355443032954065e-01
2.192000000000000171e+01,2.156441920652954758e-01
2.196000000000000085e+01,1.447198953517387365e-01
2.200000000000000000e+01,1.311925712526441912e-01
2.203999999999999915e+01,2.088879294243053408e-01
2.207999999999999829e+01,1.912520642258185299e-01
2.212000000000000099e+01,2.043626172983524225e-01
2.216000000000000014e+01,6.986585473299034010e-02
2.219999999999999929e+01,1.516443983985754362e-01
2.223999999999999844e+01,6.326515668697760275e-02
2.228000000000000114e+01,8.250894828115537538e-02
2.232000000000000028e+01,1.468494649865373647e-01
2.235999999999999943e+01,1.045835310231698206e-01
2.239999999999999858e+01,1.299647969576551709e-01
2.244000000000000128e+01,1.358664393994533370e-01
2.248000000000000043e+01,2.278656706597600445e-01
2.251999999999999957e+01,1.128063525818173429e-01
2.255999999999999872e+01,1.279205489055045830e-01
2.260000000000000142e+01,1.471306205133337819e-01
2.264000000000000057e+01,1.478860964041777137e-01
2.267999999999999972e+01,2.019384804947770007e-01
2.271999999999999886e+01,1.821851122011465540e-01
2.276000000000000156e+01,7.222564932115051184e-02
2.280000000000000071e+01,1.426657602722579687e-01
2.283999999999999986e+01,1.475002943566454672e-01
2.287999999999999901e+01,1.492555622925700043e-01
2.292000000000000171e+01,1.110307925479204899e-01
2.296000000000000085e+01,1.958043995578155616e-01
2.300000000000000000e+01,4.379384984308754697e-02
2.303999999999999915e+01,9.985846112596905022e-02
2.307999999999999829e+01,1.548938555025856645e-01
2.312000000000000099e+01,9.819771585292991212e-02
2.316000000000000014e+01,1.501496587360401647e-01
2.319999999999999929e+01,1.682717015704526531e-01
2.323999999999999844e+01,1.546138885510051353e-01
2.328000000000000114e+01,2.034781958574081451e-01
2.332000000000000028e+01,2.656635943595701543e-01
2.335999999999999943e+01,1.679414574810682570e-01
2.339999999999999858e+01,1.481167667114178799e-01
2.344000000000000128e+01,2.174647594439448883e-01
2.348000000000000043e+01,2.027568091022250996e-01
2.351999999999999957e+01,2.013699562654672204e-01
2.355999999999999872e+01,6.775115395270979446e-02
2.360000000000000142e+01,2.324094193552057319e-01
2.364000000000000057e+01,1.664336770215176786e-01
2.367999999999999972e+01,2.255063770885008811e-01
2.371999999999999886e+01,2.425490217787230063e-01
2.376000000000000156e+01,1.827108824930730735e-01
2.380000000000000071e+01,1.074932484833073937e-01
2.383999999999999986e+01,1.327235467256078494e-01
2.387999999999999901e+01,1.210489019710027092e-01
2.392000000000000171e+01,1.001448950767945545e-01
2.396000000000000085e+01,1.612384378232002979e-01
2.400000000000000000e+01,1.013752811053364733e-01
2.403999999999999915e+01,1.183845692192738164e-01
2.407999999999999829e+01,1.097641567769927357e-01
2.412000000000000099e+01,1.513656335612301174e-01
2.416000000000000014e+01,1.663123908464316514e-01
2.419999999999999929e+01,1.084784639020003605e-01
2.423999999999999844e+01,2.105437268849596200e-01
2.428000000000000114e+01,1.783270201720511539e-01
2.432000000000000028e+01,1.389310068709420920e-01
2.435999999999999943e+01,1.374566327694115020e-01
2.439999999999999858e+01,1.585285771318206416e-01
2.444000000000000128e+01,1.273202741656121739e-01
2.448000000000000043e+01,1.832346445764364007e-01
2.451999999999999957e+01,1.417678256563861539e-01
2.455999999999999872e+01,1.658982318405787526e-01
2.460000000000000142e+01,1.551737606739915232e-01
2.464000000000000057e+01,2.090214956688306036e-01
2.467999999999999972e+01,1.870134971766265475e-01
2.471999999999999886e+01,7.069938006224642246e-02
2.476000000000000156e+01,1.706606499366058183e-01
2.480000000000000071e+01,1.363399665190242749e-01
2.483999999999999986e+01,1.122653578476449920e-01
2.487999999999999901e+01,1.220123189137757025e-01
2.492000000000000171e+01,1.707059583117505330e-01
2.496000000000000085e+01,1.158682934601047987e-01
2.500000000000000000e+01,1.368780822579329093e-01
2.503999999999999915e+01,2.029846819721183582e-01
2.507999999999999829e+01,1.143089078972749223e-01
2.512000000000000099e+01,9.020535512594202165e-02
2.516000000000000014e+01,1.603996474484210288e-01
2.519999999999999929e+01,2.295647897421813355e-01
2.523999999999999844e+01,1.521477350262636918e-01
2.528000000000000114e+01,1.628784003906871003e-01
2.532000000000000028e+01,1.674548121794207367e-01
2.535999999999999943e+01,1.945775727162657176e-01
2.539999999999999858e+01,1.714701591416634696e-01
2.544000000000000128e+01,1.432335172433913117e-01
2.548000000000000043e+01,1.580436572087247915e-01
2.551999999999999957e+01,1.010981760516601602e-01
2.555999999999999872e+01,9.847471541336783041e-02
2.560000000000000142e+01,1.440231477566940310e-01
2.564000000000000057e+01,1.577917999565903728e-01
2.567999999999999972e+01,9.877981461495272120e-02
2.571999999999999886e+01,1.176653485689156259e-01
2.576000000000000156e+01,1.293716213609355514e-01
2.580000000000000071e+01,1.174982907888760947e-01
2.583999999999999986e+01,9.947072304505412410e-02
2.587999999999999901e+01,1.255149712497407311e-01
2.592000000000000171e+01,6.340326748645708221e-02
2.596000000000000085e+01,1.099397345847753921e-01
2.600000000000000000e+01,8.062050983678815952e-02
2.603999999999999915e+01,1.281737930126268521e-01
2.607999999999999829e+01,1.849481685852249202e-01
2.612000000000000099e+01,1.084656539731167907e-01
2.616000000000000014e+01,1.806071537252577075e-01
2.619999999999999929e+01,1.440922810123403675e-01
2.623999999999999844e+01,1.516492356044971401e-01
2.628000000000000114e+01,1.192262585106825673e-01
2.632000000000000028e+01,1.431753688436050165e-01
2.635999999999999943e+01,1.548201296096994861e-01
2.639999999999999858e+01,2.115617441947282573e-01
2.644000000000000128e+01,1.124960064268057808e-01
2.648000000000000043e+01,1.364287564553922361e-01
2.651999999999999957e+01,2.208336860859126116e-01
2.655999999999999872e+01,1.494312671490040378e-01
2.660000000000000142e+01,8.827497847927964769e-02
2.664000000000000057e+01,1.009161522614926976e-01
2.667999999999999972e+01,6.537723524415052501e-02
2.671999999999999886e+01,1.938376722543040664e-01
2.676000000000000156e+01,1.818660890037097633e-01
2.680000000000000071e+01,1.637402988655245473e-01
2.683999999999999986e+01,5.848360724819881562e-02
2.687999999999999901e+01,9.877588830875684567e-02
2.692000000000000171e+01,1.195886872027632220e-01
2.696000000000000085e+01,1.362973271895373817e-01
2.700000000000000000e+01,1.161011226029657756e-01
2.703999999999999915e+01,1.348516632257844294e-01
2.707999999999999829e+01,1.464229843273967824e-01
2.712000000000000099e+01,1.938659887625845402e-01
2.716000000000000014e+01,1.962039819397990159e-01
2.719999999999999929e+01,1.472868363218900467e-01
2.723999999999999844e+01,1.188660558255979077e-01
2.728000000000000114e+01,9.864138411478239055e-02
2.732000000000000028e+01,1.952650979001337439e-01
2.735999999999999943e+01,1.043058228934089088e-01
2.739999999999999858e+01,1.845210736309585986e-01
2.744000000000000128e+01,1.038038962290767087e-01
2.748000000000000043e+01,1.358350235047294796e-01
2.751999999999999957e+01,1.166110220799824598e-01
2.755999999999999872e+01,1.199334388045748961e-01
2.760000000000000142e+01,1.406771676078537592e-01
2.764000000000000057e+01,1.265661149602315960e-01
2.767999999999999972e+01,1.022007973195146330e-01
2.771999999999999886e+01,7.988147354552752044e-02
2.776000000000000156e+01,5.448303756761701394e-02
2.780000000000000071e+01,1.264575943644863643e-01
2.783999999999999986e+01,1.287266461587047994e-01
2.787999999999999901e+01,1.842927701919445382e-01
2.792000000000000171e+01,8.610163149332927812e-02
2.796000000000000085e+01,5.863293248789223922e-02
2.800000000000000000e+01,1.715881341593784859e-01
2.803999999999999915e+01,9.696036849007770575e-02
2.807999999999999829e+01,2.447582233412698982e-01
2.812000000000000099e+01,1.004209237924978959e-01
2.816000000000000014e+01,1.293082168959669709e-01
2.819999999999999929e+01,1.704917336732370003e-01
2.823999999999999844e+01,1.696453376617237940e-01
2.828000000000000114e+01,1.790451249146952362e-01
2.832000000000000028e+01,1.792156888305189988e-01
2.835999999999999943e+01,9.020535628414512452e-02
2.839999999999999858e+01,1.703195380950602855e-01
2.844000000000000128e+01,5.465059345160409171e-02
2.848000000000000043e+01,1.029810583566255766e-01
2.851999999999999957e+01,1.328571130352145802e-01
2.855999999999999872e+01,5.305184823083600870e-02
2.860000000000000142e+01,1.864470271523890332e-01
2.864000000000000057e+01,1.927355241841792188e-01
2.867999999999999972e+01,6.064210445656312287e-02
2.871999999999999886e+01,1.386740678409041083e-01
2.876000000000000156e+01,1.049746751184831989e-01
2.880000000000000071e+01,2.260495088407760977e-01
2.883999999999999986e+01,8.471483340469425360e-02
2.887999999999999901e+01,1.535055461279311861e-01
2.892000000000000171e+01,1.115899292582671204e-01
2.896000000000000085e+01,1.516720197592783537e-01
2.900000000000000000e+01,9.027297638955650294e-02
2.903999999999999915e+01,1.631477377056196887e-01
2.907999999999999829e+01,1.263411959426420927e-01
2.912000000000000099e+01,9.158069221081122091e-02
2.916000000000000014e+01,1.459930524243481798e-01
2.919999999999999929e+01,1.655506803987636111e-01
2.923999999999999844e+01,1.461534915299038673e-01
2.928000000000000114e+01,1.288023457395525428e-01
2.932000000000000028e+01,8.889672909358471709e-02
2.935999999999999943e+01,8.486286644425981851e-02
2.939999999999999858e+01,1.628267250458563797e-01
2.944000000000000128e+01,1.659600217859282800e-01
2.948000000000000043e+01,8.913765059382423861e-02
2.951999999999999957e+01,1.096883264356414978e-01
2.955999999999999872e+01,1.486853976528290100e-01
2.960000000000000142e+01,1.118268905893552573e-01
2.964000000000000057e+01,1.190403180873977201e-01
2.967999999999999972e+01,1.631505311433063821e-01
2.971999999999999886e+01,2.072567582249719709e-01
2.976000000000000156e+01,1.201562528824147991e-01
2.980000000000000071e+01,1.878300055305840432e-01
2.983999999999999986e+01,9.867149161574648164e-02
2.987999999999999901e+01,1.560870664833275967e-01
2.992000000000000171e+01,1.212467297009944545e-01
2.996000000000000085e+01,1.684041318353491912e-01
3.000000000000000000e+01,1.376559253744513434e-01
3.003999999999999915e+01,1.274041723640062795e-01
3.007999999999999829e+01,1.519991745968356511e-01
3.012000000000000099e+01,1.294392160148908621e-01
3.016000000000000014e+01,1.161004785374367132e-01
3.019999999999999929e+01,1.529838220862572151e-01
3.023999999999999844e+01,1.775629384667776201e-01
3.028000000000000114e+01,1.724124640103630035e-01
3.032000000000000028e+01,1.283072067803662508e-01
3.035999999999999943e+01,9.547321989705953582e-02
3.039999999999999858e+01,1.753876298056439575e-01
3.044000000000000128e+01,1.579210371357477882e-01
3.048000000000000043e+01,1.045747311391272694e-01
3.051999999999999957e+01,1.568016754544294400e-01
3.055999999999999872e+01,9.832234191229072273e-02
3.060000000000000142e+01,1.310659606747753836e-01
3.064000000000000057e+01,6.437854023498493228e-02
3.067999999999999972e+01,5.098828036305042694e-02
3.071999999999999886e+01,1.083205472512886874e-01
3.076000000000000156e+01,1.338731955116808092e-01
3.080000000000000071e+01,1.747972138650024099e-01
3.083999999999999986e+01,1.521659506527022476e-01
3.087999999999999901e+01,1.551562747219984439e-01
3.092000000000000171e+01,1.888932946672250979e-01
3.096000000000000085e+01,1.488248221673648952e-01
3.100000000000000000e+01,1.374530051341188441e-01
3.103999999999999915e+01,1.804033814917918033e-01
3.107999999999999829e+01,1.700486985198722545e-01
3.112000000000000099e+01,1.350895585421610368e-01
3.116000000000000014e+01,9.500137068397153384e-02
3.119999999999999929e+01,1.328108749935313637e-01
3.123999999999999844e+01,1.511410334153137913e-01
3.128000000000000114e+01,1.981678561365936564e-01
3.132000000000000028e+01,7.298713698548649209e-02
3.135999999999999943e+01,1.651070344932994149e-01
3.139999999999999858e+01,1.044948005158796711e-01
3.144000000000000128e+01,1.996818977311449195e-01
3.148000000000000043e+01,1.646873382478279690e-01
3.151999999999999957e+01,1.952902234290005978e-01
3.155999999999999872e+01,1.500375921596973083e-01
3.160000000000000142e+01,1.642322792795735398e-01
3.164000000000000057e+01,1.251219247356231967e-01
3.167999999999999972e+01,1.844097068314802246e-01
3.171999999999999886e+01,5.303957327638059854e-02
3.176000000000000156e+01,1.656206271275693642e-01
3.180000000000000071e+01,1.223944977124345052e-01
3.183999999999999986e+01,1.929418319819478089e-01
3.187999999999999901e+01,9.333168497783771167e-02
3.192000000000000171e+01,7.674436018709911156e-02
3.196000000000000085e+01,1.339546656730843388e-01
3.200000000000000000e+01,1.450350911172984258e-01
3.203999999999999915e+01,1.099856377815819075e-01
3.207999999999999829e+01,2.030599562325367258e-01
3.211999999999999744e+01,1.403271015118917608e-01
3.215999999999999659e+01,1.913677205706185991e-01
3.220000000000000284e+01,1.194018559093819459e-01
3.224000000000000199e+01,1.130334586257641105e-01
3.228000000000000114e+01,1.630373367831186027e-01
3.232000000000000028e+01,1.576861517949385283e-01
3.235999999999999943e+01,1.492559997144926598e-01
3.239999999999999858e+01,1.356968388706243089e-01
3.243999999999999773e+01,1.252088422571628334e-01
3.247999999999999687e+01,7.679115247600525052e-02
3.252000000000000313e+01,1.236965614338090963e-01
3.256000000000000227e+01,1.664979881420511065e-01
3.260000000000000142e+01,1.713697254681184334e-01
3.264000000000000057e+01,1.854627621327869236e-01
3.267999999999999972e+01,1.144751244800255169e-01
3.271999999999999886e+01,1.111350122799664025e-01
3.275999999999999801e+01,1.006158597400522714e-01
3.279999999999999716e+01,1.269935911815633089e-01
3.284000000000000341e+01,7.136571775250274974e-02
3.288000000000000256e+01,1.182361046844583458e-01
3.292000000000000171e+01,2.050784437828568618e-01
3.296000000000000085e+01,1.504639367392859861e-01
3.300000000000000000e+01,4.043770086084716442e-01
3.303999999999999915e+01,4.645571420679410202e-01
3.307999999999999829e+01,1.885263545362289850e-01
3.311999999999999744e+01,1.789972695763522303e-01
3.315999999999999659e+01,1.868896720909919984e-01
3.320000000000000284e+01,1.589024470840612047e-01
3.324000000000000199e+01,1.278362827453560502e-01
3.328000000000000114e+01,1.705677903241114290e-01
3.332000000000000028e+01,1.261686008418879124e-01
3.335999999999999943e+01,1.811926224632713633e-01
3.339999999999999858e+01,1.142352196864048486e-01
3.343999999999999773e+01,1.456760090703271837e-01
3.347999999999999687e+01,1.924882530904929723e-01
3.352000000000000313e+01,1.347444414284060255e-01
3.356000000000000227e+01,8.007182932826016619e-02
3.360000000000000142e+01,2.180993893541362250e-01
3.364000000000000057e+01,1.900696094933659319e-01
3.367999999999999972e+01,1.661360544465566025e-01
3.371999999999999886e+01,2.047249490659686089e-01
3.375999999999999801e+01,1.592582249041435694e-01
3.379999999999999716e+01,9.021214974633859351e-02
3.384000000000000341e+01,1.062390003032459840e-01
3.388000000000000256e+01,7.101092279239268334e-02
3.392000000000000171e+01,8.087993632648755871e-02
3.396000000000000085e+01,6.614458244546596311e-02
3.400000000000000000e+01,1.559575671899921523e-01
3.403999999999999915e+01,1.740151995841476007e-01
3.407999999999999829e+01,1.295426740882603400e-01
3.411999999999999744e+01,1.352923532790161754e-01
3.415999999999999659e+01,1.461632938923177472e-01
3.420000000000000284e+01,1.437051107930311933e-01
3.424000000000000199e+01,8.486690365005482295e-02
3.428000000000000114e+01,1.008514214370507533e-01
3.432000000000000028e+01,1.578329570214049571e-01
3.435999999999999943e+01,8.053284089369784626e-02
3.439999999999999858e+01,3.500455188854327548e-02
3.443999999999999773e+01,1.596259892450918871e-01
3.447999999999999687e+01,1.058898556156613602e-01
3.452000000000000313e+01,7.060027382982218824e-02
3.456000000000000227e+01,1.142335116728332711e-01
3.460000000000000142e+01,7.791124309925148705e-02
3.464000000000000057e+01,9.488626001573570445e-02
3.467999999999999972e+01,1.046822971607090230e-01
3.471999999999999886e+01,1.359999568579722817e-01
3.475999999999999801e+01,9.043717958550097358e-02
3.479999999999999716e+01,1.268722939124181659e-01
3.484000000000000341e+01,1.048773601902564245e-01
3.488000000000000256e+01,1.074791184672427152e-01
3.492000000000000171e+01,1.695282998661697127e-01
3.496000000000000085e+01,5.732001128719778349e-02
3.500000000000000000e+01,1.070612950037075767e-01
3.503999999999999915e+01,1.342482883077917577e-01
3.507999999999999829e+01,1.563063573917669591e-01
3.511999999999999744e+01,1.189093657930485326e-01
3.515999999999999659e+01,1.471099336863051776e-01
3.520000000000000284e+01,1.076552716885602612e-01
3.524000000000000199e+01,1.594237083689366008e-01
3.528000000000000114e+01,7.486047942658595467e-02
3.532000000000000028e+01,4.051949302609391540e-02
3.535999999999999943e+01,7.485113682627558829e-02
3.539999999999999858e+01,1.481297895605122594e-01
3.543999999999999773e+01,0.000000000000000000e+00
3.547999999999999687e+01,1.942235759808091933e-01
3.552000000000000313e+01,1.731888409895421532e-01
3.556000000000000227e+01,1.439501325207564741e-01
3.560000000000000142e+01,1.885091691561808502e-01
3.564000000000000057e+01,1.028866803244340017e-01
3.567999999999999972e+01,1.997142145694293658e-01
3.571999999999999886e+01,1.612351185384421903e-01
3.575999999999999801e+01,1.596529998650769444e-01
3.579999999999999716e+01,1.467918508857401771e-01
3.584000000000000341e+01,1.585274241897239589e-01
3.588000000000000256e+01,1.313083901159545208e-01
3.592000000000000171e+01,1.174108447177017733e-01
3.596000000000000085e+01,7.788397352985947097e-02
3.600000000000000000e+01,1.244551176626147032e-01
3.603999999999999915e+01,8.492067200604422328e-02
3.607999999999999829e+01,6.383282740484502726e-02
3.611999999999999744e+01,8.784214324982099475e-02
3.615999999999999659e+01,1.128726977433737039e-01
3.620000000000000284e+01,1.409745350803399966e-01
3.624000000000000199e+01,9.834611093466213982e-02
3.628000000000000114e+01,1.366906036099722610e-01
3.632000000000000028e+01,1.350554813212768435e-01
3.635999999999999943e+01,8.216550919893152172e-02
3.639999999999999858e+01,1.748248100725081078e-01
3.643999999999999773e+01,9.425170912278266200e-02
3.647999999999999687e+01,1.028517030352368994e-01
3.652000000000000313e+01,8.479736735736977116e-02
3.656000000000000227e+01,1.774415798618338702e-01
3.660000000000000142e+01,9.582837412385938891e-02
3.664000000000000057e+01,1.741147494838299892e-01
3.667999999999999972e+01,1.242696751174799524e-01
3.671999999999999886e+01,1.820480895813273992e-01
3.675999999999999801e+01,1.906217097629273050e-01
3.679999999999999716e+01,1.633158159886016481e-01
3.684000000000000341e+01,1.247309247161580426e-01
3.688000000000000256e+01,1.271431319988650388e-01
3.692000000000000171e+01,1.674773746990670109e-01
3.696000000000000085e+01,1.247811210317702479e-01
3.700000000000000000e+01,1.046315833081709057e-01
3.703999999999999915e+01,1.449545570505575975e-01
3.707999999999999829e+01,1.288975963399303093e-01
3.711999999999999744e+01,1.343623338920233168e-01
3.715999999999999659e+01,1.059976117777528676e-01
3.720000000000000284e+01,9.710454751688639419e-02
3.724000000000000199e+01,1.476589795647096914e-01
3.728000000000000114e+01,1.531087196002066386e-01
3.732000000000000028e+01,1.421543699471778943e-01
3.735999999999999943e+01,9.429550253749242883e-02
3.739999999999999858e+01,7.820855688839639663e-02
3.743999999999999773e+01,8.979344839573638604e-02
3.747999999999999687e+01,1.331502641873471005e-01
3.752000000000000313e+01,8.015132221274429147e-02
3.756000000000000227e+01,1.573263678299585966e-01
3.760000000000000142e+01,1.535209802021193226e-01
3.764000000000000057e+01,1.507368779109547474e-01
3.767999999999999972e+01,1.366738046203221923e-01
3.771999999999999886e+01,1.369572982545273210e-01
3.775999999999999801e+01,1.669626820728895289e-01
3.779999999999999716e+01,1.057374242904144251e-01
3.784000000000000341e+01,1.347103257391949471e-01
3.788000000000000256e+01,1.278037473017434034e-01
3.792000000000000171e+01,9.424288343838800597e-02
3.796000000000000085e+01,1.129543883313615799e-01
3.800000000000000000e+01,1.009115244561175628e-01
3.803999999999999915e+01,7.451463653847453794e-02
3.807999999999999829e+01,1.690665594180876807e-01
3.811999999999999744e+01,1.457372926626240295e-01
3.815999999999999659e+01,1.295794564467534493e-01
3.820000000000000284e+01,1.708191038907475034e-01
3.824000000000000199e+01,6.240190002372993094e-02
3.828000000000000114e+01,1.405348871190811311e-01
3.832000000000000028e+01,7.003604689360047597e-02
3.835999999999999943e+01,1.481616058937218483e-01
3.839999999999999858e+01,1.504318642180926535e-01
3.843999999999999773e+01,1.352730467189732777e-01
3.847999999999999687e+01,2.031372583750669369e-01
3.852000000000000313e+01,1.172445416870381424e-01
3.856000000000000227e+01,1.994516383972873286e-01
3.860000000000000142e+01,1.853030114110162108e-01
3.864000000000000057e+01,1.362999499799812941e-01
3.867999999999999972e+01,1.344441726859113007e-01
3.871999999999999886e+01,1.653853802596663425e-01
3.875999999999999801e+01,7.434533252179792440e-02
3.879999999999999716e+01,1.555051916192449202e-01
3.884000000000000341e+01,1.464594633902064624e-01
3.888000000000000256e+01,1.415101240143939731e-01
3.892000000000000171e+01,9.863129462720555962e-02
3.896000000000000085e+01,1.387755095373162384e-01
3.900000000000000000e+01,1.368901510937376720e-01
3.903999999999999915e+01,1.206508001537722335e-01
3.907999999999999829e+01,1.361834239716977757e-01
3.911999999999999744e+01,1.435121866159088933e-01
3.915999999999999659e+01,1.467371752142409835e-01
3.920000000000000284e+01,1.509834983610272574e-01
3.924000000000000199e+01,2.044271662435424852e-01
3.928000000000000114e+01,1.594650889478287648e-01
3.932000000000000028e+01,2.006011317054746390e-01
3.935999999999999943e+01,2.109828485974803991e-01
3.939999999999999858e+01,1.680597686227169318e-01
3.943999999999999773e+01,1.917594046233614680e-01
3.947999999999999687e+01,1.180783232214777101e-01
3.952000000000000313e+01,1.376705184476466337e-01
3.956000000000000227e+01,1.890347035737918457e-01
3.960000000000000142e+01,2.260449138693175486e-01
3.964000000000000057e+01,2.210255710006019669e-01
3.967999999999999972e+01,2.703286940803537597e-01
3.971999999999999886e+01,2.806773309190410126e-01
3.975999999999999801e+01,2.602716545104928336e-01
3.979999999999999716e+01,3.034136410344211998e-01
3.984000000000000341e+01,3.711524760257191025e-01
3.988000000000000256e+01,4.921887618081887683e-01
3.992000000000000171e+01,5.937459755222694868e-01
3.996000000000000085e+01,6.255980665713707367e-01
4.000000000000000000e+01,8.532255960404701023e-01
4.003999999999999915e+01,8.256191199320244145e-01
4.007999999999999829e+01,8.994861098493869278e-01
4.011999999999999744e+01,1.000000000000000000e+00
4.015999999999999659e+01,8.791055967530435611e-01
4.020000000000000284e+01,7.828080533300215693e-01
4.024000000000000199e+01,7.131574139257720324e-01
4.028000000000000114e+01,5.666265116857767126e-01
4.032000000000000028e+01,5.369444050401109836e-01
4.035999999999999943e+01,3.596555568939776015e-01
4.039999999999999858e+01,3.227910005953229522e-01
4.043999999999999773e+01,3.535742132845864916e-01
4.047999999999999687e+01,2.859517186508367947e-01
4.052000000000000313e+01,2.911021028611794348e-01
4.056000000000000227e+01,2.931737786565590809e-01
4.060000000000000142e+01,2.019648582469395492e-01
4.064000000000000057e+01,1.548282194049732108e-01
4.067999999999999972e+01,1.210132193975428649e-01
4.071999999999999886e+01,1.681712762753968249e-01
4.075999999999999801e+01,1.753498582535399919e-01
4.079999999999999716e+01,1.681745032562789455e-01
4.084000000000000341e+01,1.948212214708877899e-01
4.088000000000000256e+01,1.691882109733245376e-01
4.092000000000000171e+01,1.210010955538894095e-01
4.096000000000000085e+01,1.619872163227701889e-01
4.100000000000000000e+01,1.578687624304907500e-01
4.103999999999999915e+01,1.609218299303199207e-01
4.107999999999999829e+01,1.137452179601775165e-01
4.111999999999999744e+01,1.547168257592135554e-01
4.115999999999999659e+01,7.473227542355569131e-02
4.120000000000000284e+01,8.699603324675216076e-02
4.124000000000000199e+01,1.197565978357418293e-01
4.128000000000000114e+01,2.088897217798160733e-01
4.132000000000000028e+01,1.309407266441210138e-01
4.135999999999999943e+01,1.749656672431017523e-01
4.139999999999999858e+01,1.492855306033610829e-01
4.143999999999999773e+01,1.061764127781677780e-01
4.147999999999999687e+01,1.399402899472335371e-01
4.152000000000000313e+01,1.080991795290938973e-01
4.156000000000000227e+01,1.193053582344404812e-01
4.160000000000000142e+01,1.366580545311642803e-01
4.164000000000000057e+01,1.775826346115821075e-01
4.167999999999999972e+01,1.436770389536689840e-01
4.171999999999999886e+01,1.107928573401613520e-01
4.175999999999999801e+01,1.834822806157573039e-01
4.179999999999999716e+01,1.126650936831376931e-01
4.184000000000000341e+01,1.156458487018453690e-01
4.188000000000000256e+01,1.268231730778116850e-01
4.192000000000000171e+01,1.308217460753971495e-01
4.196000000000000085e+01,1.009910108274789664e-01
4.200000000000000000e+01,7.013165552385285106e-02
4.203999999999999915e+01,1.161453128802531071e-01
4.207999999999999829e+01,6.477833485375818212e-02
4.211999999999999744e+01,1.343602950704099186e-01
4.215999999999999659e+01,1.024615365618529172e-01
4.220000000000000284e+01,1.125850658997318565e-01
4.224000000000000199e+01,1.483305408819094451e-01
4.228000000000000114e+01,1.020707087878732211e-01
4.232000000000000028e+01,1.460091772512285835e-01
4.235999999999999943e+01,1.304928134250201710e-01
4.239999999999999858e+01,1.610988296204445558e-01
4.243999999999999773e+01,1.496753809804625135e-01
4.247999999999999687e+01,2.099998515482590089e-01
4.252000000000000313e+01,1.370679492859549209e-01
4.256000000000000227e+01,8.770795982967620474e-02
4.260000000000000142e+01,1.080458504337006437e-01
4.264000000000000057e+01,1.242800767719692001e-01
4.267999999999999972e+01,1.179602537093476233e-01
4.271999999999999886e+01,1.454625631650995343e-01
4.275999999999999801e+01,1.196601817486846464e-01
4.279999999999999716e+01,8.667907671438035422e-02
4.284000000000000341e+01,1.069955158474442114e-01
4.288000000000000256e+01,1.560089852137506172e-01
4.292000000000000171e+01,1.373674682242715106e-01
4.296000000000000085e+01,1.381977907932285254e-01
4.300000000000000000e+01,1.154490525895210395e-01
4.303999999999999915e+01,8.962168420496154086e-02
4.307999999999999829e+01,1.222169748913063125e-01
4.311999999999999744e+01,1.712090457839532120e-01
4.315999999999999659e+01,1.330707300283844041e-01
4.320000000000000284e+01,7.340340274235082618e-02
4.324000000000000199e+01,1.223847914330149500e-01
4.328000000000000114e+01,1.375369135189117853e-01
4.332000000000000028e+01,1.034844482644030755e-01
4.335999999999999943e+01,1.186294577151951607e-01
4.339999999999999858e+01,4.254400222281988497e-02
4.343999999999999773e+01,1.366085570062607335e-01
4.347999999999999687e+01,1.414926923032125139e-01
4.352000000000000313e+01,9.512220363596426975e-02
4.356000000000000227e+01,1.645755913056278774e-01
4.360000000000000142e+01,1.192230266118591980e-01
4.364000000000000057e+01,1.292180742552657413e-01
4.367999999999999972e+01,1.504848124382486552e-01
4.371999999999999886e+01,1.625228130926764658e-01
4.375999999999999801e+01,1.233061973539468364e-01
4.379999999999999716e+01,1.312370272677662875e-01
4.384000000000000341e+01,1.022635438430896104e-01
4.388000000000000256e+01,1.604133457880881075e-01
4.392000000000000171e+01,1.273326991938461827e-01
4.396000000000000085e+01,9.937362317307224524e-02
4.400000000000000000e+01,1.072867629825648983e-01
4.403999999999999915e+01,1.408219052191788390e-01
4.407999999999999829e+01,1.436028704873313910e-01
4.411999999999999744e+01,9.717927365188853972e-02
4.415999999999999659e+01,2.075804307409089555e-01
4.420000000000000284e+01,1.262990444067095264e-01
4.424000000000000199e+01,1.085654610692819155e-01
4.428000000000000114e+01,1.062036730650324640e-01
4.432000000000000028e+01,1.489393041842612397e-01
4.435999999999999943e+01,1.711709818328980559e-01
4.439999999999999858e+01,1.124224407493662481e-01
4.443999999999999773e+01,1.161966875053102172e-01
4.447999999999999687e+01,9.946698457618387279e-02
4.452000000000000313e+01,1.391099432112228029e-01
4.456000000000000227e+01,1.141730316254326166e-01
4.460000000000000142e+01,1.240833333310178699e-01
4.464000000000000057e+01,1.227148835973822238e-01
4.467999999999999972e+01,1.438933920808201372e-01
4.471999999999999886e+01,1.281676149862530367e-01
4.475999999999999801e+01,1.021881117044852877e-01
4.479999999999999716e+01,1.520566866832392949e-01
4.484000000000000341e+01,9.224445574810971604e-02
4.488000000000000256e+01,1.175054987956704738e-01
4.492000000000000171e+01,1.263626919044008035e-01
4.496000000000000085e+01,1.782672813930598898e-01
4.500000000000000000e+01,1.553417998761495722e-01
4.503999999999999915e+01,1.078123004739415386e-01
4.507999999999999829e+01,7.565462164172180592e-02
4.511999999999999744e+01,7.116902223931376170e-02
4.515999999999999659e+01,1.035806967270455764e-01
4.520000000000000284e+01,1.636644531682700521e-01
4.524000000000000199e+01,1.171424807135117846e-01
4.528000000000000114e+01,1.280182152643863092e-01
4.532000000000000028e+01,1.214650910283371910e-01
4.535999999999999943e+01,1.261837103291651996e-01
4.539999999999999858e+01,1.544743320266943054e-01
4.543999999999999773e+01,1.202351541968825488e-01
4.547999999999999687e+01,1.290433891509261410e-01
4.552000000000000313e+01,1.265729004262399204e-01
4.556000000000000227e+01,1.076985819521711213e-01
4.560000000000000142e+01,1.185464009829975823e-01
4.564000000000000057e+01,1.560412943810637054e-01
4.567999999999999972e+01,1.668821471502828779e-01
4.571999999999999886e+01,1.613191752174818749e-01
4.575999999999999801e+01,8.195117772057917971e-02
4.579999999999999716e+01,1.337824492211356631e-01
4.584000000000000341e+01,1.651098139391984909e-01
4.588000000000000256e+01,1.728582087371131060e-01
4.592000000000000171e+01,9.142626102080930739e-02
4.596000000000000085e+01,1.340184370838358729e-01
4.600000000000000000e+01,9.153035902231976273e-02
4.603999999999999915e+01,1.382156774028625856e-01
4.607999999999999829e+01,1.602970107059610849e-01
4.611999999999999744e+01,1.557243172604580728e-01
4.615999999999999659e+01,1.665234784546366087e-01
4.620000000000000284e+01,1.752691306198614907e-01
4.624000000000000199e+01,1.963115755489528158e-01
4.628000000000000114e+01,1.712245909133316979e-01
4.632000000000000028e+01,1.912350884932137729e-01
4.635999999999999943e+01,2.071420391585063192e-01
4.639999999999999858e+01,2.261205944365405895e-01
4.643999999999999773e+01,2.420206267901650332e-01
4.647999999999999687e+01,2.650923521462064114e-01
4.652000000000000313e+01,3.107110937639844805e-01
4.656000000000000227e+01,4.096274969002969835e-01
4.660000000000000142e+01,3.445370119192823211e-01
4.664000000000000057e+01,3.962955219033962306e-01
4.667999999999999972e+01,4.101247866731913549e-01
4.671999999999999886e+01,3.634743352275389139e-01
4.675999999999999801e+01,2.624942976272707229e-01
4.679999999999999716e+01,3.132139899004461325e-01
4.684000000000000341e+01,3.024289482771966298e-01
4.688000000000000256e+01,2.434644530838446508e-01
4.692000000000000171e+01,2.070469867706342393e-01
4.696000000000000085e+01,2.218771516613663175e-01
4.700000000000000000e+01,2.192785107624755370e-01
4.703999999999999915e+01,1.736255286733373315e-01
4.707999999999999829e+01,1.740950742411701280e-01
4.711999999999999744e+01,1.991616979313441671e-01
4.715999999999999659e+01,2.119246282117498992e-01
4.720000000000000284e+01,1.365322778233322432e-01
4.724000000000000199e+01,1.533884261316845188e-01
4.728000000000000114e+01,1.753662497462664394e-01
4.732000000000000028e+01,1.245641184750252012e-01
4.735999999999999943e+01,1.444850388896048166e-01
4.739999999999999858e+01,1.398020158674763425e-01
4.743999999999999773e+01,1.730413601268948331e-01
4.747999999999999687e+01,1.058251749523896057e-01
4.752000000000000313e+01,1.329075402405353878e-01
4.756000000000000227e+01,1.528113320698110678e-01
4.760000000000000142e+01,1.132604569106287484e-01
4.764000000000000057e+01,1.454576637366496450e-01
4.767999999999999972e+01,1.100000343659044699e-01
4.771999999999999886e+01,6.838885805015029740e-02
4.775999999999999801e+01,1.221012612345880738e-01
4.779999999999999716e+01,1.594099053327119320e-01
4.784000000000000341e+01,1.290637182814316497e-01
4.788000000000000256e+01,1.930160930493667881e-01
4.792000000000000171e+01,1.370375444001505627e-01
4.796000000000000085e+01,1.466569590318698157e-01
4.800000000000000000e+01,1.121970412910151260e-01
4.803999999999999915e+01,1.310348317567938126e-01
4.807999999999999829e+01,1.068183138401778698e-01
4.811999999999999744e+01,9.899873385992695451e-02
4.815999999999999659e+01,1.834276815987773701e-01
4.820000000000000284e+01,1.069248560934160791e-01
4.824000000000000199e+01,1.698215482897731110e-01
4.828000000000000114e+01,1.445629938869996411e-01
4.832000000000000028e+01,1.336513407967963307e-01
4.835999999999999943e+01,1.586120410774742029e-01
4.839999999999999858e+01,1.282181854724984693e-01
4.843999999999999773e+01,1.869978020200120661e-01
4.847999999999999687e+01,1.371217489476258544e-01
4.852000000000000313e+01,1.477185694894491419e-01
4.856000000000000227e+01,1.203862041234571578e-01
4.860000000000000142e+01,8.280023370695219209e-02
4.864000000000000057e+01,1.343877417521391338e-01
4.867999999999999972e+01,8.551975821861754201e-02
4.871999999999999886e+01,1.258252556704688163e-01
4.875999999999999801e+01,1.025760368612424478e-01
4.879999999999999716e+01,1.028989277051590989e-01
4.884000000000000341e+01,1.114186074665810128e-01
4.888000000000000256e+01,1.158348198093649695e-01
4.892000000000000171e+01,8.539692200039399050e-02
4.896000000000000085e+01,8.570628915741873577e-02
4.900000000000000000e+01,1.229130513412712428e-01
4.903999999999999915e+01,1.785668234168171220e-01
4.907999999999999829e+01,1.224898804005749436e-01
4.911999999999999744e+01,1.381610660576343963e-01
4.915999999999999659e+01,1.302533852654665369e-01
4.920000000000000284e+01,1.418177408788523497e-01
4.924000000000000199e+01,1.390284257651794309e-01
4.928000000000000114e+01,1.516110637147467521e-01
4.932000000000000028e+01,1.518900763939335097e-01
4.935999999999999943e+01,1.152649498686134089e-01
4.939999999999999858e+01,1.339876173855006625e-01
4.943999999999999773e+01,1.311814702190411130e-01
4.947999999999999687e+01,1.406722180255288446e-01
4.952000000000000313e+01,1.235090463398578475e-01
4.956000000000000227e+01,1.575935878777619814e-01
4.960000000000000142e+01,1.117230961892612257e-01
4.964000000000000057e+01,1.693764150394451162e-01
4.967999999999999972e+01,8.864847959648479436e-02
4.971999999999999886e+01,8.786886348642253264e-02
4.975999999999999801e+01,9.118597945020233408e-02
4.979999999999999716e+01,9.244969995067299495e-02
4.984000000000000341e+01,1.398360351751095909e-01
4.988000000000000256e+01,1.318678612019907326e-01
4.992000000000000171e+01,1.290214458165748201e-01
4.996000000000000085e+01,8.619584575476374466e-02
5.000000000000000000e+01,1.612443681191821354e-01
5.003999999999999915e+01,1.501877423384495314e-01
5.007999999999999829e+01,9.505184980084886714e-02
5.011999999999999744e+01,9.218870961908906536e-02
5.015999999999999659e+01,1.385232586555146250e-01
5.020000000000000284e+01,1.100279007256355635e-01
5.024000000000000199e+01,1.389304062696120889e-01
5.028000000000000114e+01,1.340038660309086915e-01
5.032000000000000028e+01,8.909815247237493074e-02
5.035999999999999943e+01,1.702667444286239395e-01
5.039999999999999858e+01,1.048539330728689850e-01
5.043999999999999773e+01,1.296396784281270143e-01
5.047999999999999687e+01,1.246964701759023658e-01
5.052000000000000313e+01,1.248750394389880614e-01
5.056000000000000227e+01,1.024998078837622284e-01
5.060000000000000142e+01,1.108718930299923411e-01
5.064000000000000057e+01,9.874022281458942618e-02
5.067999999999999972e+01,1.317061723553039354e-01
5.071999999999999886e+01,1.318681114600833149e-01
5.075999999999999801e+01,9.410093405827443802e-02
5.079999999999999716e+01,1.106565733965921006e-01
5.084000000000000341e+01,8.005790555351563476e-02
5.088000000000000256e+01,1.283825721702128442e-01
5.092000000000000171e+01,1.551784707916615269e-01
5.096000000000000085e+01,1.286699372182460999e-01
5.100000000000000000e+01,1.083082177687253317e-01
5.103999999999999915e+01,7.666794877446352074e-02
5.107999999999999829e+01,1.065256556187022391e-01
5.111999999999999744e+01,1.558554594368387614e-01
5.115999999999999659e+01,1.764813525652800530e-01
5.120000000000000284e+01,1.079270697424486031e-01
5.124000000000000199e+01,1.234212400684485678e-01
5.128000000000000114e+01,1.409621474852325307e-01
5.132000000000000028e+01,1.943755016490947285e-01
5.135999999999999943e+01,9.608237545263201285e-02
5.139999999999999858e+01,1.802397682362279485e-01
5.143999999999999773e+01,1.311410695801547288e-01
5.147999999999999687e+01,1.701909175099505511e-01
5.152000000000000313e+01,1.251857069156907254e-01
5.156000000000000227e+01,1.416784873020171254e-01
5.160000000000000142e+01,1.017917912834313543e-01
5.164000000000000057e+01,1.244281102356111363e-01
5.167999999999999972e+01,1.614114364949633118e-01
5.171999999999999886e+01,1.215148608049527179e-01
5.175999999999999801e+01,9.801533787879221360e-02
5.179999999999999716e+01,1.401138993702555624e-01
5.184000000000000341e+01,1.258329920278497827e-01
5.188000000000000256e+01,1.248740768353196612e-01
5.192000000000000171e+01,1.280119618560186245e-01
5.196000000000000085e+01,1.331966054187901927e-01
5.200000000000000000e+01,1.383779658524775247e-01
5.203999999999999915e+01,9.538003549348687826e-02
5.207999999999999829e+01,9.850479052152978643e-02
5.211999999999999744e+01,7.497570807704670437e-02
5.215999999999999659e+01,1.488203868682078934e-01
5.220000000000000284e+01,1.437351359190952582e-01
5.224000000000000199e+01,8.637051462051306694e-02
5.228000000000000114e+01,1.253546368765980357e-01
5.232000000000000028e+01,1.346098635698634860e-01
5.235999999999999943e+01,1.438618184906090836e-01
5.239999999999999858e+01,1.090345798412358375e-01
5.243999999999999773e+01,1.428805101984298720e-01
5.247999999999999687e+01,1.316222280426871671e-01
5.252000000000000313e+01,1.316359152932715104e-01
5.256000000000000227e+01,1.603469381424991458e-01
5.260000000000000142e+01,1.552289883957962968e-01
5.264000000000000057e+01,1.306323678459839766e-01
5.267999999999999972e+01,1.080825285513728889e-01
5.271999999999999886e+01,1.306303733667448230e-01
5.275999999999999801e+01,1.162741862340523208e-01
5.279999999999999716e+01,1.275402778715510055e-01
5.284000000000000341e+01,1.039523830176633662e-01
5.288000000000000256e+01,1.449375851845938756e-01
5.292000000000000171e+01,1.172430949893658314e-01
5.296000000000000085e+01,1.038956524802057552e-01
5.300000000000000000e+01,1.305207955814190746e-01
5.303999999999999915e+01,1.181918726344548254e-01
5.307999999999999829e+01,1.263601299580713044e-01
5.311999999999999744e+01,1.324750965511404532e-01
5.315999999999999659e+01,1.303866448765113040e-01
5.320000000000000284e+01,1.026694112655476554e-01
5.324000000000000199e+01,1.220999211014908159e-01
5.328000000000000114e+01,1.692027677827078191e-01
5.332000000000000028e+01,1.230254195242049819e-01
5.335999999999999943e+01,1.127205823666453943e-01
5.339999999999999858e+01,1.546886010358474450e-01
5.343999999999999773e+01,1.628276736077698961e-01
5.347999999999999687e+01,1.063871573492946310e-01
5.352000000000000313e+01,1.309201017650631627e-01
5.356000000000000227e+01,1.564748337300260750e-01
5.360000000000000142e+01,1.461505817120733464e-01
5.364000000000000057e+01,1.204477763030180476e-01
5.367999999999999972e+01,1.101170627596582408e-01
5.371999999999999886e+01,1.008081418128545376e-01
5.375999999999999801e+01,1.652975388458476913e-01
5.379999999999999716e+01,1.488070136791894982e-01
5.384000000000000341e+01,1.497386283585866451e-01
5.388000000000000256e+01,1.045410532229657796e-01
5.392000000000000171e+01,1.280166937820106099e-01
5.396000000000000085e+01,1.074131899827162756e-01
5.400000000000000000e+01,1.288323462728049040e-01
5.403999999999999915e+01,1.389730476561904238e-01
5.407999999999999829e+01,1.450104456602028802e-01
5.411999999999999744e+01,1.264441122167117570e-01
5.415999999999999659e+01,1.683508303069403134e-01
5.420000000000000284e+01,1.415778964139061125e-01
5.424000000000000199e+01,1.035265139233712828e-01
5.428000000000000114e+01,1.300482726180721416e-01
5.432000000000000028e+01,1.729671648344151824e-01
5.435999999999999943e+01,1.236309163853899634e-01
5.439999999999999858e+01,1.081171689121639690e-01
5.443999999999999773e+01,1.346260954085667649e-01
5.447999999999999687e+01,1.426814306130213816e-01
5.452000000000000313e+01,1.281830899213743380e-01
5.456000000000000227e+01,1.126565253919362963e-01
5.460000000000000142e+01,1.504278760109735436e-01
5.464000000000000057e+01,1.061943094625118905e-01
5.467999999999999972e+01,1.183337249857021878e-01
5.471999999999999886e+01,1.263698573189679653e-01
5.475999999999999801e+01,1.251776003916566238e-01
5.479999999999999716e+01,1.301322774630873924e-01
5.484000000000000341e+01,1.750595981895548270e-01
5.488000000000000256e+01,8.775595746113484807e-02
5.492000000000000171e+01,1.173015728988272000e-01
5.496000000000000085e+01,1.232685048541646566e-01
5.500000000000000000e+01,6.773096032853924420e-02
5.503999999999999915e+01,1.464680406850243088e-01
5.507999999999999829e+01,1.370500889552638824e-01
5.511999999999999744e+01,1.102035875895019945e-01
5.515999999999999659e+01,1.151295682415121591e-01
5.520000000000000284e+01,1.292775599101653738e-01
5.524000000000000199e+01,1.198468769293468267e-01
5.528000000000000114e+01,1.544889373498051222e-01
5.532000000000000028e+01,1.184013381855369140e-01
5.535999999999999943e+01,1.643122792066745996e-01
5.539999999999999858e+01,1.241182411692879906e-01
5.543999999999999773e+01,1.013463934515767134e-01
5.547999999999999687e+01,9.497171584888192131e-02
5.552000000000000313e+01,1.049942096230443572e-01
5.556000000000000227e+01,1.016882535074456750e-01
5.560000000000000142e+01,1.086293424933933716e-01
5.564000000000000057e+01,9.301679091477316197e-02
5.567999999999999972e+01,1.337772529538180932e-01
5.571999999999999886e+01,1.396838193539924056e-01
5.575999999999999801e+01,1.199616845756245470e-01
5.579999999999999716e+01,1.566125672004427538e-01
5.584000000000000341e+01,1.235588281109602782e-01
5.588000000000000256e+01,1.110023576208937629e-01
5.592000000000000171e+01,1.240682643245770572e-01
5.596000000000000085e+01,1.525063348188648304e-01
5.600000000000000000e+01,1.389153682416753854e-01
5.603999999999999915e+01,1.007207307853258821e-01
5.607999999999999829e+01,1.352994630290239308e-01
5.611999999999999744e+01,1.462995483837411792e-01
5.615999999999999659e+01,1.285958807788254721e-01
5.620000000000000284e+01,1.354895777340445473e-01
5.624000000000000199e+01,1.044543310548240456e-01
5.628000000000000114e+01,1.461924603848530901e-01
5.632000000000000028e+01,1.520516915371210587e-01
5.635999999999999943e+01,1.650829273664097818e-01
5.639999999999999858e+01,1.586356110055955337e-01
5.643999999999999773e+01,1.286096578505246668e-01
5.647999999999999687e+01,1.088307775574918618e-01
5.652000000000000313e+01,1.259495295173006513e-01
5.656000000000000227e+01,1.410150992648449286e-01
5.660000000000000142e+01,1.755529388584360639e-01
5.664000000000000057e+01,6.453459345363972421e-02
5.667999999999999972e+01,9.906616079789869189e-02
5.671999999999999886e+01,1.202693148457705807e-01
5.675999999999999801e+01,9.841843433063682256e-02
5.679999999999999716e+01,1.083400875687349774e-01
5.684000000000000341e+01,1.008332454299733089e-01
5.688000000000000256e+01,1.404742615656042193e-01
5.692000000000000171e+01,1.227109476546104222e-01
5.696000000000000085e+01,1.377451940107096706e-01
5.700000000000000000e+01,1.138254992408406496e-01
5.703999999999999915e+01,1.288534960607368995e-01
5.707999999999999829e+01,1.151777689433315099e-01
5.711999999999999744e+01,1.619751867358433794e-01
5.715999999999999659e+01,1.083173804598330792e-01
5.720000000000000284e+01,1.428083012128826268e-01
5.724000000000000199e+01,1.280950737460206101e-01
5.728000000000000114e+01,1.718049533034409215e-01
5.732000000000000028e+01,1.171096567726975096e-01
5.735999999999999943e+01,1.105872551249311858e-01
5.739999999999999858e+01,1.378874490910020068e-01
5.743999999999999773e+01,7.908272835241413057e-02
5.747999999999999687e+01,1.566027524012039429e-01
5.752000000000000313e+01,1.090670485420698332e-01
5.756000000000000227e+01,1.835057914630139897e-01
5.760000000000000142e+01,1.205885514017316640e-01
5.764000000000000057e+01,1.704205674457215103e-01
5.767999999999999972e+01,1.218474187581128354e-01
5.771999999999999886e+01,1.521978203050030620e-01
5.775999999999999801e+01,1.210438324379252140e-01
5.779999999999999716e+01,1.493379894655547657e-01
5.784000000000000341e+01,1.550785753298433989e-01
5.788000000000000256e+01,1.925917290170579832e-01
5.792000000000000171e+01,1.306747040772184842e-01
5.796000000000000085e+01,1.261557861464504271e-01
5.800000000000000000e+01,1.277839031616648524e-01
5.803999999999999915e+01,9.353317625825938175e-02
5.807999999999999829e+01,1.382060109459180286e-01
5.811999999999999744e+01,1.613503047696183690e-01
5.815999999999999659e+01,1.465657155272231393e-01
5.820000000000000284e+01,1.328030602075199462e-01
5.824000000000000199e+01,1.180122971393517545e-01
5.828000000000000114e+01,1.093685778500493588e-01
5.832000000000000028e+01,1.417226334624059059e-01
5.835999999999999943e+01,1.258975976528832474e-01
5.839999999999999858e+01,1.356950172712214076e-01
5.843999999999999773e+01,1.167887558548350441e-01
5.847999999999999687e+01,1.337551670549764482e-01
5.852000000000000313e+01,1.947944238654747695e-01
5.856000000000000227e+01,1.441032646403836159e-01
5.860000000000000142e+01,1.436350823483223682e-01
5.864000000000000057e+01,1.113881609312429577e-01
5.867999999999999972e+01,1.529397127003418455e-01
5.871999999999999886e+01,1.258117550741546242e-01
5.875999999999999801e+01,1.181561354334007968e-01
5.879999999999999716e+01,1.422731126379043476e-01
5.884000000000000341e+01,1.212860779621107304e-01
5.888000000000000256e+01,1.771725871811940245e-01
5.892000000000000171e+01,1.592544859817001390e-01
5.896000000000000085e+01,1.054575698859182287e-01
5.900000000000000000e+01,1.264841585375374167e-01
5.903999999999999915e+01,1.352074285460170000e-01
5.907999999999999829e+01,1.500777675701723823e-01
5.911999999999999744e+01,1.239441894129089256e-01
5.915999999999999659e+01,1.193330047924808929e-01
5.920000000000000284e+01,1.126687212412614963e-01
5.924000000000000199e+01,1.726277782764975566e-01
5.928000000000000114e+01,1.167563561232782821e-01
5.932000000000000028e+01,1.162330409487105781e-01
5.935999999999999943e+01,1.269819109551953706e-01
5.939999999999999858e+01,1.367027098065901058e-01
5.943999999999999773e+01,1.166948377027737654e-01
5.947999999999999687e+01,1.407598414934865816e-01
5.952000000000000313e+01,1.227959192546867750e-01
5.956000000000000227e+01,1.202042743721360996e-01
5.960000000000000142e+01,1.237597149091878151e-01
5.964000000000000057e+01,1.283371347951895725e-01
5.967999999999999972e+01,1.267613850264910358e-01
5.971999999999999886e+01,1.272326385969221318e-01
5.975999999999999801e+01,1.092504674383512620e-01
5.979999999999999716e+01,1.425163325345236431e-01
5.984000000000000341e+01,8.352722983747577767e-02
5.988000000000000256e+01,9.526157378232583128e-02
5.992000000000000171e+01,1.121179917750034366e-01
5.996000000000000085e+01,1.043708625488897479e-01
