2.003999999999999915e+01,3.567390345310061939e-02
2.007999999999999829e+01,4.699740353516444064e-02
2.012000000000000099e+01,3.879947090003574989e-02
2.016000000000000014e+01,2.793002288520261486e-02
2.019999999999999929e+01,3.658163378065281551e-02
2.023999999999999844e+01,4.934279240300086522e-02
2.028000000000000114e+01,1.689666460106684087e-02
2.032000000000000028e+01,1.506788099571383828e-02
2.035999999999999943e+01,2.515714150971003205e-02
2.039999999999999858e+01,4.634249817611560407e-02
2.044000000000000128e+01,4.615703492471529001e-02
2.048000000000000043e+01,4.679332604549641533e-02
2.051999999999999957e+01,3.653862286065179960e-02
2.055999999999999872e+01,4.703789272997831866e-02
2.060000000000000142e+01,2.712492024950736991e-02
2.064000000000000057e+01,4.913106034038956793e-02
2.067999999999999972e+01,4.380725868249908672e-02
2.071999999999999886e+01,4.053812777111318738e-02
2.076000000000000156e+01,2.596702448150095197e-02
2.080000000000000071e+01,3.954741479634577700e-02
2.083999999999999986e+01,1.079732356032868552e-02
2.087999999999999901e+01,1.697978903537121151e-02
2.092000000000000171e+01,3.466931460933638659e-02
2.096000000000000085e+01,4.537208701085796575e-02
2.100000000000000000e+01,5.093748674924653691e-02
2.103999999999999915e+01,3.985825195256004899e-02
2.107999999999999829e+01,3.802571941636368608e-02
2.112000000000000099e+01,3.578200852150410088e-02
2.116000000000000014e+01,3.025030324238746349e-02
2.119999999999999929e+01,3.026653548774846381e-02
2.123999999999999844e+01,1.836432601554786881e-02
2.128000000000000114e+01,2.516120815625545043e-02
2.132000000000000028e+01,2.476584362734998018e-02
2.135999999999999943e+01,1.758920529708358702e-02
2.139999999999999858e+01,5.171520499448736125e-02
2.144000000000000128e+01,2.809920154894870320e-02
2.148000000000000043e+01,4.229255894441169561e-02
2.151999999999999957e+01,3.840286524200249574e-02
2.155999999999999872e+01,3.615685306132351839e-02
2.160000000000000142e+01,3.678744249408932160e-02
2.164000000000000057e+01,2.241728068652950809e-02
2.167999999999999972e+01,3.886992460315547016e-02
2.171999999999999886e+01,4.628093316259685591e-02
2.176000000000000156e+01,3.149915004598794616e-02
2.180000000000000071e+01,4.178653985889822092e-02
2.183999999999999986e+01,3.234697817918687213e-02
2.187999999999999901e+01,3.194861708453516219e-02
2.192000000000000171e+01,2.908419470300094636e-02
2.196000000000000085e+01,3.567194503130066696e-02
2.200000000000000000e+01,3.157416035114440217e-02
2.203999999999999915e+01,2.665420660059440380e-02
2.207999999999999829e+01,2.009013581271057794e-02
2.212000000000000099e+01,2.010141947863159501e-02
2.216000000000000014e+01,3.059230616632241037e-02
2.219999999999999929e+01,3.943907358624468978e-02
2.223999999999999844e+01,2.876436888462819905e-02
2.228000000000000114e+01,2.281563441011483229e-02
2.232000000000000028e+01,9.263661067300742527e-03
2.235999999999999943e+01,3.537041346175540807e-02
2.239999999999999858e+01,1.750276086277289742e-02
2.244000000000000128e+01,3.456763597919767367e-02
2.248000000000000043e+01,3.580979701879183352e-02
2.251999999999999957e+01,1.855791476182668681e-02
2.255999999999999872e+01,2.884103297867884538e-02
2.260000000000000142e+01,2.186302724720759136e-02
2.264000000000000057e+01,1.570673574009222306e-02
2.267999999999999972e+01,3.831836331155184794e-02
2.271999999999999886e+01,4.695665359810003575e-02
2.276000000000000156e+01,2.497717458115934763e-02
2.280000000000000071e+01,2.662844226572344541e-02
2.283999999999999986e+01,3.095080171004090455e-02
2.287999999999999901e+01,3.732779175303686109e-02
2.292000000000000171e+01,3.630701858142390548e-02
2.296000000000000085e+01,1.761414115845231707e-02
2.300000000000000000e+01,2.419590116651759021e-02
2.303999999999999915e+01,2.974998671136732178e-02
2.307999999999999829e+01,3.304347621433043752e-02
2.312000000000000099e+01,3.325442170846702739e-02
2.316000000000000014e+01,2.873892800337577227e-02
2.319999999999999929e+01,2.216832283182849569e-02
2.323999999999999844e+01,1.624370710152706369e-03
2.328000000000000114e+01,1.950620639055300476e-02
2.332000000000000028e+01,2.937381100396537978e-02
2.335999999999999943e+01,4.643320744095304903e-02
2.339999999999999858e+01,1.232614209225726606e-02
2.344000000000000128e+01,2.404238658287982319e-02
2.348000000000000043e+01,8.634124087117013222e-03
2.351999999999999957e+01,2.404863311554028202e-02
2.355999999999999872e+01,2.076359271110386068e-02
2.360000000000000142e+01,2.775264175735477762e-02
2.364000000000000057e+01,7.000720425710744640e-03
2.367999999999999972e+01,2.077033014991745002e-02
2.371999999999999886e+01,3.166287151898917324e-02
2.376000000000000156e+01,3.125338474896553059e-02
2.380000000000000071e+01,2.570647327233070364e-02
2.383999999999999986e+01,2.796780511512841905e-02
2.387999999999999901e+01,3.166728855205193371e-02
2.392000000000000171e+01,1.009163807711821112e-02
2.396000000000000085e+01,3.988743153465204583e-02
2.400000000000000000e+01,2.591427706548383308e-02
2.403999999999999915e+01,1.974936219835666043e-02
2.407999999999999829e+01,2.036525216046531153e-02
2.412000000000000099e+01,2.920035384938938702e-02
2.416000000000000014e+01,3.474740539318692950e-02
2.419999999999999929e+01,1.974551435568410243e-02
2.423999999999999844e+01,3.207310576004630820e-02
2.428000000000000114e+01,1.563228086153458513e-02
2.432000000000000028e+01,1.234234731321732885e-02
2.435999999999999943e+01,3.350507869421449902e-02
2.439999999999999858e+01,1.952930056007484705e-02
2.444000000000000128e+01,1.890989835155998389e-02
2.448000000000000043e+01,1.931766297326661941e-02
2.451999999999999957e+01,4.006835343306618114e-02
2.455999999999999872e+01,2.752991265660469436e-02
2.460000000000000142e+01,8.126128458883774552e-04
2.464000000000000057e+01,1.765824570562308030e-02
2.467999999999999972e+01,3.285971320193729200e-02
2.471999999999999886e+01,2.381346594615610032e-02
2.476000000000000156e+01,4.415155952567697412e-02
2.480000000000000071e+01,4.229680492480013265e-02
2.483999999999999986e+01,1.557787292379687535e-02
2.487999999999999901e+01,2.646275176227774750e-02
2.492000000000000171e+01,3.221018507675650622e-02
2.496000000000000085e+01,1.823060890730952843e-02
2.500000000000000000e+01,5.278189902866695440e-03
2.503999999999999915e+01,2.109364611178171298e-02
2.507999999999999829e+01,2.499058922922235346e-02
2.512000000000000099e+01,3.012017408709772789e-02
2.516000000000000014e+01,2.415319159000400492e-02
2.519999999999999929e+01,2.003530976398471344e-02
2.523999999999999844e+01,2.557502648844762680e-02
2.528000000000000114e+01,2.042914723923743361e-02
2.532000000000000028e+01,2.843414075326530441e-02
2.535999999999999943e+01,2.513707638906717209e-02
2.539999999999999858e+01,3.231955482490010689e-02
2.544000000000000128e+01,2.491218500170392855e-02
2.548000000000000043e+01,2.490205440360083317e-02
2.551999999999999957e+01,7.630745583261438689e-03
2.555999999999999872e+01,2.282606481664049836e-02
2.560000000000000142e+01,1.808887586457626206e-02
2.564000000000000057e+01,1.026909606455543578e-02
2.567999999999999972e+01,2.299770734762360963e-02
2.571999999999999886e+01,2.195841239077644599e-02
2.576000000000000156e+01,4.002909938900369585e-02
2.580000000000000071e+01,3.035877586151034674e-02
2.583999999999999986e+01,3.630515710242280397e-02
2.587999999999999901e+01,6.907514513637487592e-03
2.592000000000000171e+01,1.634658426909409851e-02
2.596000000000000085e+01,3.174447668684683699e-02
2.600000000000000000e+01,2.756923586388331654e-03
2.603999999999999915e+01,1.835971116396900235e-02
2.607999999999999829e+01,1.916715178100317565e-02
2.612000000000000099e+01,1.319323012276384967e-02
2.616000000000000014e+01,3.126096632558656579e-02
2.619999999999999929e+01,3.432786653156239681e-02
2.623999999999999844e+01,3.657251960192746398e-02
2.628000000000000114e+01,1.189810044829458548e-02
2.632000000000000028e+01,2.133418966921649118e-02
2.635999999999999943e+01,1.001580935514670943e-02
2.639999999999999858e+01,1.082084770107470846e-02
2.644000000000000128e+01,2.847550049842696718e-02
2.648000000000000043e+01,1.551231484881255424e-02
2.651999999999999957e+01,4.713946095549816778e-02
2.655999999999999872e+01,2.431229764787131570e-02
2.660000000000000142e+01,4.586997780372249062e-02
2.664000000000000057e+01,5.489265545485121078e-02
2.667999999999999972e+01,5.405165833402957032e-02
2.671999999999999886e+01,4.437441972710646360e-02
2.676000000000000156e+01,6.962962853993899526e-02
2.680000000000000071e+01,5.173229780018778756e-02
2.683999999999999986e+01,4.595837754217352300e-02
2.687999999999999901e+01,4.634874965232088639e-02
2.692000000000000171e+01,4.735526962878493229e-02
2.696000000000000085e+01,5.699192215683891727e-02
2.700000000000000000e+01,3.210647726126598239e-02
2.703999999999999915e+01,3.064621345263683627e-02
2.707999999999999829e+01,3.432280426545090968e-02
2.712000000000000099e+01,4.334173576209512241e-02
2.716000000000000014e+01,2.194830297850760073e-02
2.719999999999999929e+01,5.089881987632170757e-02
2.723999999999999844e+01,4.019006474300333004e-02
2.728000000000000114e+01,3.174134523162087246e-02
2.732000000000000028e+01,9.524689741192908510e-03
2.735999999999999943e+01,1.402099828372966456e-02
2.739999999999999858e+01,2.796937842305758162e-02
2.744000000000000128e+01,3.390345091713696524e-02
2.748000000000000043e+01,9.836126794889295602e-03
2.751999999999999957e+01,3.261947070650503266e-02
2.755999999999999872e+01,2.704531096176068794e-02
2.760000000000000142e+01,2.742994339670363699e-02
2.764000000000000057e+01,3.233495962679795027e-02
2.767999999999999972e+01,1.237574566980947054e-02
2.771999999999999886e+01,1.604718696650008630e-02
2.776000000000000156e+01,2.033476051646426405e-02
2.780000000000000071e+01,1.188182319497080135e-02
2.783999999999999986e+01,1.246997568027675973e-02
2.787999999999999901e+01,1.737302069399879190e-02
2.792000000000000171e+01,1.570015678179141269e-02
2.796000000000000085e+01,1.690377626998578603e-02
2.800000000000000000e+01,2.488812772654669728e-02
2.803999999999999915e+01,1.787160898626102140e-02
2.807999999999999829e+01,4.311618465469796435e-02
2.812000000000000099e+01,2.335881498297975173e-02
2.816000000000000014e+01,3.072536808639216369e-02
2.819999999999999929e+01,2.083069315452519207e-02
2.823999999999999844e+01,6.414971407556833982e-03
2.828000000000000114e+01,1.830122298182254581e-02
2.832000000000000028e+01,1.107686303758540977e-02
2.835999999999999943e+01,2.357889713993217146e-02
2.839999999999999858e+01,1.306606892537644921e-02
2.844000000000000128e+01,2.556742216429494854e-02
2.848000000000000043e+01,1.710877965800869718e-02
2.851999999999999957e+01,2.344484488362310118e-02
2.855999999999999872e+01,1.827330594688584414e-02
2.860000000000000142e+01,8.991687115473856115e-03
2.864000000000000057e+01,2.087486476735583851e-02
2.867999999999999972e+01,1.261999018010349395e-02
2.871999999999999886e+01,2.224212169534209999e-02
2.876000000000000156e+01,8.643897396508351538e-03
2.880000000000000071e+01,2.792321454138489353e-02
2.883999999999999986e+01,2.500960841455984740e-02
2.887999999999999901e+01,2.497246858813657183e-02
2.892000000000000171e+01,2.514046584238645646e-02
2.896000000000000085e+01,1.934899525786838367e-02
2.900000000000000000e+01,1.725593596677914635e-02
2.903999999999999915e+01,2.482040459573763708e-02
2.907999999999999829e+01,1.738398369741483637e-02
2.912000000000000099e+01,1.487889269727856421e-02
2.916000000000000014e+01,2.120938016329369444e-02
2.919999999999999929e+01,1.438835712438142796e-02
2.923999999999999844e+01,1.270414855908642143e-02
2.928000000000000114e+01,9.375689130371398991e-03
2.932000000000000028e+01,3.070528924553230302e-02
2.935999999999999943e+01,1.258106473107864498e-02
2.939999999999999858e+01,1.973135869114065258e-02
2.944000000000000128e+01,2.030571547309940536e-02
2.948000000000000043e+01,2.642785587953669357e-02
2.951999999999999957e+01,2.083688747427858701e-02
2.955999999999999872e+01,4.971217154904920485e-03
2.960000000000000142e+01,6.982536581500334988e-03
2.964000000000000057e+01,1.782942555250800754e-02
2.967999999999999972e+01,1.244249300886798512e-02
2.971999999999999886e+01,2.493254798076228324e-02
2.976000000000000156e+01,1.029797924018496617e-02
2.980000000000000071e+01,7.581279158088182965e-03
2.983999999999999986e+01,9.795895591569306338e-03
2.987999999999999901e+01,2.762714170215213247e-02
2.992000000000000171e+01,1.627889306769599725e-02
2.996000000000000085e+01,1.109487955357554845e-02
3.000000000000000000e+01,1.967811223333324963e-02
3.003999999999999915e+01,2.106893616521748891e-02
3.007999999999999829e+01,2.656912492834850176e-02
3.012000000000000099e+01,1.419158955164749429e-02
3.016000000000000014e+01,2.544466407645193037e-02
3.019999999999999929e+01,1.306638241023609648e-02
3.023999999999999844e+01,4.055216682193763661e-02
3.028000000000000114e+01,1.872074282248435348e-02
3.032000000000000028e+01,2.175284658581599917e-02
3.035999999999999943e+01,3.855218985172150642e-02
3.039999999999999858e+01,3.773967611517697190e-03
3.044000000000000128e+01,2.612069942453561569e-02
3.048000000000000043e+01,3.716527819411088313e-02
3.051999999999999957e+01,5.581248931638418259e-02
3.055999999999999872e+01,3.993753684546537397e-02
3.060000000000000142e+01,4.193955553355933896e-02
3.064000000000000057e+01,5.359907240257075905e-02
3.067999999999999972e+01,5.724422140459509145e-02
3.071999999999999886e+01,6.417677611875211019e-02
3.076000000000000156e+01,7.008151287839005372e-02
3.080000000000000071e+01,7.906816705733880901e-02
3.083999999999999986e+01,1.032604594581802843e-01
3.087999999999999901e+01,1.106024476224300307e-01
3.092000000000000171e+01,9.410757940718536552e-02
3.096000000000000085e+01,9.261286037753327371e-02
3.100000000000000000e+01,6.008924527614043637e-02
3.103999999999999915e+01,6.619676054790724073e-02
3.107999999999999829e+01,5.915273037126873856e-02
3.112000000000000099e+01,4.902600749015244286e-02
3.116000000000000014e+01,3.520013074348370824e-02
3.119999999999999929e+01,5.486821124942607014e-02
3.123999999999999844e+01,2.850685439458225737e-02
3.128000000000000114e+01,2.885838871183405221e-02
3.132000000000000028e+01,5.612830026356856877e-02
3.135999999999999943e+01,2.647797151321463691e-02
3.139999999999999858e+01,3.607522686231241088e-02
3.144000000000000128e+01,3.930199466525947233e-02
3.148000000000000043e+01,3.656924779030851225e-02
3.151999999999999957e+01,3.815132578725233953e-02
3.155999999999999872e+01,3.870557096011167236e-02
3.160000000000000142e+01,5.384897981118064170e-02
3.164000000000000057e+01,4.227870361803060667e-02
3.167999999999999972e+01,5.187316740382717783e-02
3.171999999999999886e+01,5.530262524499070242e-02
3.176000000000000156e+01,4.229273610477168183e-02
3.180000000000000071e+01,4.325554650777467536e-02
3.183999999999999986e+01,4.873866264071186755e-02
3.187999999999999901e+01,4.209765248500568074e-02
3.192000000000000171e+01,5.086774728314459593e-02
3.196000000000000085e+01,5.100699000539585248e-02
3.200000000000000000e+01,4.066599865549244686e-02
3.203999999999999915e+01,3.258495445361219572e-02
3.207999999999999829e+01,3.457235527916309448e-02
3.211999999999999744e+01,3.635386009539568614e-02
3.215999999999999659e+01,3.381973204152314422e-02
3.220000000000000284e+01,3.929917872599274220e-02
3.224000000000000199e+01,3.717520215955400636e-02
3.228000000000000114e+01,3.916054953305777436e-02
3.232000000000000028e+01,4.977592983206518412e-02
3.235999999999999943e+01,2.463619224616635586e-02
3.239999999999999858e+01,2.066118125660545979e-02
3.243999999999999773e+01,2.264487248586284987e-02
3.247999999999999687e+01,2.914885754940242310e-02
3.252000000000000313e+01,2.229578359345395222e-02
3.256000000000000227e+01,2.037397559656191001e-02
3.260000000000000142e+01,2.194502517419000265e-02
3.264000000000000057e+01,3.687229826440047153e-02
3.267999999999999972e+01,3.720958852601729400e-02
3.271999999999999886e+01,1.453193617507993370e-02
3.275999999999999801e+01,2.904697458667920493e-02
3.279999999999999716e+01,1.787574042251725143e-02
3.284000000000000341e+01,3.321188162893341095e-02
3.288000000000000256e+01,2.964281336619081081e-02
3.292000000000000171e+01,3.799155577062467842e-02
3.296000000000000085e+01,1.264003719663278624e-02
3.300000000000000000e+01,4.256404384046536676e-02
3.303999999999999915e+01,8.194001725065461206e-02
3.307999999999999829e+01,2.823004055687568584e-02
3.311999999999999744e+01,0.000000000000000000e+00
3.315999999999999659e+01,2.396317959905442871e-02
3.320000000000000284e+01,1.956875071131450664e-02
3.324000000000000199e+01,8.187340403306046094e-03
3.328000000000000114e+01,2.557365215213458845e-02
3.332000000000000028e+01,2.364377264181263122e-02
3.335999999999999943e+01,2.417930255059688380e-02
3.339999999999999858e+01,3.355033211683725730e-02
3.343999999999999773e+01,2.093383971724183459e-02
3.347999999999999687e+01,1.160470172977959812e-02
3.352000000000000313e+01,1.789212576289760104e-02
3.356000000000000227e+01,1.452123395167058580e-02
3.360000000000000142e+01,3.375345407349168020e-02
3.364000000000000057e+01,2.442257072439226601e-02
3.367999999999999972e+01,3.235214086888347357e-02
3.371999999999999886e+01,1.685577620213320194e-02
3.375999999999999801e+01,1.985278437720958480e-02
3.379999999999999716e+01,2.921944310457445793e-02
3.384000000000000341e+01,3.283203009468942807e-02
3.388000000000000256e+01,3.911550364455874257e-02
3.392000000000000171e+01,1.847976296608303676e-02
3.396000000000000085e+01,4.037934769829730486e-02
3.400000000000000000e+01,3.988042644424941857e-02
3.403999999999999915e+01,2.602441791853968983e-02
3.407999999999999829e+01,3.682638046279334415e-02
3.411999999999999744e+01,2.625726881967713200e-02
3.415999999999999659e+01,3.315408855427797591e-02
3.420000000000000284e+01,2.936514651955445324e-02
3.424000000000000199e+01,3.276779408232027152e-02
3.428000000000000114e+01,2.897795408851744359e-02
3.432000000000000028e+01,3.299616262284365414e-02
3.435999999999999943e+01,2.776701405499047010e-02
3.439999999999999858e+01,2.212644029369294219e-02
3.443999999999999773e+01,3.621214757028419495e-02
3.447999999999999687e+01,3.200907605618272256e-02
3.452000000000000313e+01,4.732679728714816320e-02
3.456000000000000227e+01,3.921856809382869707e-02
3.460000000000000142e+01,4.795980168236915753e-02
3.464000000000000057e+01,5.074146185822912825e-02
3.467999999999999972e+01,1.982282908609827102e-02
3.471999999999999886e+01,3.493278329828274770e-02
3.475999999999999801e+01,5.230263410196903801e-02
3.479999999999999716e+01,2.035519248145745141e-02
3.484000000000000341e+01,2.683332379780572693e-02
3.488000000000000256e+01,2.344762792916100028e-02
3.492000000000000171e+01,2.129439164877788490e-02
3.496000000000000085e+01,2.037361421317820942e-02
3.500000000000000000e+01,3.013768794869313775e-02
3.503999999999999915e+01,2.613368221385897402e-02
3.507999999999999829e+01,2.849930324000902668e-02
3.511999999999999744e+01,2.613826276693213130e-02
3.515999999999999659e+01,1.905056005115004364e-02
3.520000000000000284e+01,2.470257284774557416e-02
3.524000000000000199e+01,3.631323581968136371e-02
3.528000000000000114e+01,3.538873569559107535e-02
3.532000000000000028e+01,2.316199256718905197e-02
3.535999999999999943e+01,1.771584460715425885e-02
3.539999999999999858e+01,1.946126468373934534e-02
3.543999999999999773e+01,3.415188261769783878e-02
3.547999999999999687e+01,4.021158304968205921e-02
3.552000000000000313e+01,3.476354995409777771e-02
3.556000000000000227e+01,3.383575344496982107e-02
3.560000000000000142e+01,4.112695528439751919e-02
3.564000000000000057e+01,3.732139497755279645e-02
3.567999999999999972e+01,2.180261136336110808e-02
3.571999999999999886e+01,4.655876558229642831e-02
3.575999999999999801e+01,3.740911997346255818e-02
3.579999999999999716e+01,3.319068010194633350e-02
3.584000000000000341e+01,3.883512856503953947e-02
3.588000000000000256e+01,4.612299238464709350e-02
3.592000000000000171e+01,5.279391595277110188e-02
3.596000000000000085e+01,4.877904503852745904e-02
3.600000000000000000e+01,4.168139071545857999e-02
3.603999999999999915e+01,5.492644810874460631e-02
3.607999999999999829e+01,6.077349768307500899e-02
3.611999999999999744e+01,4.627686992544977757e-02
3.615999999999999659e+01,5.705463499451483150e-02
3.620000000000000284e+01,4.789969485639863911e-02
3.624000000000000199e+01,6.278622522282370499e-02
3.628000000000000114e+01,4.520535373732004897e-02
3.632000000000000028e+01,3.687090124709065803e-02
3.635999999999999943e+01,4.189260312596562730e-02
3.639999999999999858e+01,6.664054961229487484e-02
3.643999999999999773e+01,5.090710584403093653e-02
3.647999999999999687e+01,5.757123367251529983e-02
3.652000000000000313e+01,4.512459756945404882e-02
3.656000000000000227e+01,4.356827044772079022e-02
3.660000000000000142e+01,5.454614601076070851e-02
3.664000000000000057e+01,5.319432000537922117e-02
3.667999999999999972e+01,4.403350141713739674e-02
3.671999999999999886e+01,5.274954023573501238e-02
3.675999999999999801e+01,4.317675788537917586e-02
3.679999999999999716e+01,5.148083145490618684e-02
3.684000000000000341e+01,4.724971293275511547e-02
3.688000000000000256e+01,4.363455715083484204e-02
3.692000000000000171e+01,3.077199668412671299e-02
3.696000000000000085e+01,4.791001070944846119e-02
3.700000000000000000e+01,3.422450394715633587e-02
3.703999999999999915e+01,4.047071670253186287e-02
3.707999999999999829e+01,3.911341624612981599e-02
3.711999999999999744e+01,3.056357544620297989e-02
3.715999999999999659e+01,1.831446925898519082e-02
3.720000000000000284e+01,1.675017335157788154e-02
3.724000000000000199e+01,1.395245224030819929e-02
3.728000000000000114e+01,2.040113228083450039e-02
3.732000000000000028e+01,2.150664951323352780e-02
3.735999999999999943e+01,1.439218791191095720e-02
3.739999999999999858e+01,3.090820164252929339e-02
3.743999999999999773e+01,2.009396210698519147e-02
3.747999999999999687e+01,1.996452764690374165e-02
3.752000000000000313e+01,2.414980653697857207e-02
3.756000000000000227e+01,2.751262788709588764e-02
3.760000000000000142e+01,2.594325483646886532e-02
3.764000000000000057e+01,8.345399124886389297e-03
3.767999999999999972e+01,3.513218093330485597e-02
3.771999999999999886e+01,1.835524660784452339e-02
3.775999999999999801e+01,1.657833507667300088e-02
3.779999999999999716e+01,8.430817786307918255e-03
3.784000000000000341e+01,2.555766209654629362e-02
3.788000000000000256e+01,2.234079636178580575e-02
3.792000000000000171e+01,1.439721708432039129e-02
3.796000000000000085e+01,1.775489437817482849e-02
3.800000000000000000e+01,2.193400040073426038e-02
3.803999999999999915e+01,1.727665453284556174e-02
3.807999999999999829e+01,2.289312897651476358e-02
3.811999999999999744e+01,1.104270419643147046e-02
3.815999999999999659e+01,1.460326838758528763e-02
3.820000000000000284e+01,1.425906105514809438e-02
3.824000000000000199e+01,2.407069638620825888e-03
3.828000000000000114e+01,1.685686567376340483e-02
3.832000000000000028e+01,3.418295254843909531e-02
3.835999999999999943e+01,2.253487461002905493e-02
3.839999999999999858e+01,2.629778118198655354e-02
3.843999999999999773e+01,2.184068884630953680e-02
3.847999999999999687e+01,1.450625381202078415e-02
3.852000000000000313e+01,2.134988022247230610e-02
3.856000000000000227e+01,1.586376937754602201e-02
3.860000000000000142e+01,2.558315251973065224e-02
3.864000000000000057e+01,1.064358856765547368e-02
3.867999999999999972e+01,9.471109474676706053e-03
3.871999999999999886e+01,1.446270268029533484e-02
3.875999999999999801e+01,1.534402714776185103e-02
3.879999999999999716e+01,1.396446338638693448e-02
3.884000000000000341e+01,1.340631274067357638e-02
3.888000000000000256e+01,1.223116682608557833e-02
3.892000000000000171e+01,1.043902489914477587e-02
3.896000000000000085e+01,2.015360776243278057e-02
3.900000000000000000e+01,4.014199383727883735e-02
3.903999999999999915e+01,1.636115243759830168e-02
3.907999999999999829e+01,1.436137389098297162e-02
3.911999999999999744e+01,1.811468659645164639e-02
3.915999999999999659e+01,1.508639465273517444e-02
3.920000000000000284e+01,6.509418151547893480e-03
3.924000000000000199e+01,3.471403835768882562e-02
3.928000000000000114e+01,2.099880788122230821e-02
3.932000000000000028e+01,1.858480869781490089e-02
3.935999999999999943e+01,1.678672615898639184e-02
3.939999999999999858e+01,3.327642482568490823e-02
3.943999999999999773e+01,1.113405872970974105e-02
3.947999999999999687e+01,3.584213836759906485e-02
3.952000000000000313e+01,2.952116357287886197e-02
3.956000000000000227e+01,2.155574684082659995e-02
3.960000000000000142e+01,2.674093745027441779e-02
3.964000000000000057e+01,2.452805407120179151e-02
3.967999999999999972e+01,3.197250084696059286e-02
3.971999999999999886e+01,3.222435895310775400e-02
3.975999999999999801e+01,2.425619361683801004e-02
3.979999999999999716e+01,2.512340898150323965e-02
3.984000000000000341e+01,4.037414806199157019e-02
3.988000000000000256e+01,4.103477048780006242e-02
3.992000000000000171e+01,3.861253664391411239e-02
3.996000000000000085e+01,3.084709092233588537e-02
4.000000000000000000e+01,3.931454719545662835e-02
4.003999999999999915e+01,6.196003666114375391e-02
4.007999999999999829e+01,4.679539669196681323e-02
4.011999999999999744e+01,5.690507594513270068e-02
4.015999999999999659e+01,6.865809100263940701e-02
4.020000000000000284e+01,6.602647026350563775e-02
4.024000000000000199e+01,6.010650050098595432e-02
4.028000000000000114e+01,4.226773512525433540e-02
4.032000000000000028e+01,6.963550542342038241e-02
4.035999999999999943e+01,7.049491540497289377e-02
4.039999999999999858e+01,7.176473589480410198e-02
4.043999999999999773e+01,7.529434740222459843e-02
4.047999999999999687e+01,7.676852626058225382e-02
4.052000000000000313e+01,7.495435089120625061e-02
4.056000000000000227e+01,8.053713445562030171e-02
4.060000000000000142e+01,7.646147132351602260e-02
4.064000000000000057e+01,8.430347536728471924e-02
4.067999999999999972e+01,9.810402847335071563e-02
4.071999999999999886e+01,1.032735666817908154e-01
4.075999999999999801e+01,1.164565205242259482e-01
4.079999999999999716e+01,1.288169566049647552e-01
4.084000000000000341e+01,1.553554110087047857e-01
4.088000000000000256e+01,1.790164781051377385e-01
4.092000000000000171e+01,2.178829960669425303e-01
4.096000000000000085e+01,2.407209696590965620e-01
4.100000000000000000e+01,3.114367947622684318e-01
4.103999999999999915e+01,3.597539830270048977e-01
4.107999999999999829e+01,4.643739803562849100e-01
4.111999999999999744e+01,5.681714539760427396e-01
4.115999999999999659e+01,6.884072948354952315e-01
4.120000000000000284e+01,8.517947869536693917e-01
4.124000000000000199e+01,9.574399079071642671e-01
4.128000000000000114e+01,1.000000000000000000e+00
4.132000000000000028e+01,9.620086839901373921e-01
4.135999999999999943e+01,9.007967779705516875e-01
4.139999999999999858e+01,7.875961283766053089e-01
4.143999999999999773e+01,6.561065706267491526e-01
4.147999999999999687e+01,5.503022804327061257e-01
4.152000000000000313e+01,4.673064417688818639e-01
4.156000000000000227e+01,3.473223933849595713e-01
4.160000000000000142e+01,3.095324819394071336e-01
4.164000000000000057e+01,2.571524211261314030e-01
4.167999999999999972e+01,2.090869963412733956e-01
4.171999999999999886e+01,1.782818756108762170e-01
4.175999999999999801e+01,1.630931637445385274e-01
4.179999999999999716e+01,1.653702412515706821e-01
4.184000000000000341e+01,1.331249455045422359e-01
4.188000000000000256e+01,1.177289772263309664e-01
4.192000000000000171e+01,1.089079953801873613e-01
4.196000000000000085e+01,1.054290783874405751e-01
4.200000000000000000e+01,9.578496437614870962e-02
4.203999999999999915e+01,7.524945606792872443e-02
4.207999999999999829e+01,8.512540069825258460e-02
4.211999999999999744e+01,6.931489952238123475e-02
4.215999999999999659e+01,7.980611368078874279e-02
4.220000000000000284e+01,8.146079862700929264e-02
4.224000000000000199e+01,7.653930848208440052e-02
4.228000000000000114e+01,6.915137861984417544e-02
4.232000000000000028e+01,6.196833677306089888e-02
4.235999999999999943e+01,5.786699748037230778e-02
4.239999999999999858e+01,6.157355653320483596e-02
4.243999999999999773e+01,5.151189857221075835e-02
4.247999999999999687e+01,5.090203191670463617e-02
4.252000000000000313e+01,4.597633983022486603e-02
4.256000000000000227e+01,4.063907088073632351e-02
4.260000000000000142e+01,5.482244449370673317e-02
4.264000000000000057e+01,4.414130985872636442e-02
4.267999999999999972e+01,4.763815934674740793e-02
4.271999999999999886e+01,5.750449359140563654e-02
4.275999999999999801e+01,5.010932917469895082e-02
4.279999999999999716e+01,4.291904385171016467e-02
4.284000000000000341e+01,4.086532021973116047e-02
4.288000000000000256e+01,6.018161519865216497e-02
4.292000000000000171e+01,5.586631756046711583e-02
4.296000000000000085e+01,4.744067311891297933e-02
4.300000000000000000e+01,4.558999503551363491e-02
4.303999999999999915e+01,5.565693951929178568e-02
4.307999999999999829e+01,5.380503634637995997e-02
4.311999999999999744e+01,5.893907091291902128e-02
4.315999999999999659e+01,3.920858756628986530e-02
4.320000000000000284e+01,5.050599675840964503e-02
4.324000000000000199e+01,4.474738517329085452e-02
4.328000000000000114e+01,5.357772017073051535e-02
4.332000000000000028e+01,6.672266071397925380e-02
4.335999999999999943e+01,5.603051365599559519e-02
4.339999999999999858e+01,5.643403525042348101e-02
4.343999999999999773e+01,6.094667335436014521e-02
4.347999999999999687e+01,6.443125707769180310e-02
4.352000000000000313e+01,5.640795857780353528e-02
4.356000000000000227e+01,7.900157231362907317e-02
4.360000000000000142e+01,7.447030509350589800e-02
4.364000000000000057e+01,7.487009788896201168e-02
4.367999999999999972e+01,7.773510828613394708e-02
4.371999999999999886e+01,8.655861124125571737e-02
4.375999999999999801e+01,1.105875122747931871e-01
4.379999999999999716e+01,1.056421473822019147e-01
4.384000000000000341e+01,1.212448360335708214e-01
4.388000000000000256e+01,1.376688441223408166e-01
4.392000000000000171e+01,1.769012591326342698e-01
4.396000000000000085e+01,1.748301968909605209e-01
4.400000000000000000e+01,1.974169213366422926e-01
4.403999999999999915e+01,2.477437338141827983e-01
4.407999999999999829e+01,2.676578675201888857e-01
4.411999999999999744e+01,2.968182752432089178e-01
4.415999999999999659e+01,3.177585777412037515e-01
4.420000000000000284e+01,3.306842610765605150e-01
4.424000000000000199e+01,3.218277085128175563e-01
4.428000000000000114e+01,3.109156526695772693e-01
4.432000000000000028e+01,2.788378198578769784e-01
4.435999999999999943e+01,2.545678489612633322e-01
4.439999999999999858e+01,2.142692697558687409e-01
4.443999999999999773e+01,1.731481051322563691e-01
4.447999999999999687e+01,1.470268383985856020e-01
4.452000000000000313e+01,1.229598000418564846e-01
4.456000000000000227e+01,9.745371361887848749e-02
4.460000000000000142e+01,8.365973396156059505e-02
4.464000000000000057e+01,7.150900683901871557e-02
4.467999999999999972e+01,7.826242320047022138e-02
4.471999999999999886e+01,5.172633361261917695e-02
4.475999999999999801e+01,4.840960894497889355e-02
4.479999999999999716e+01,5.844888177253075578e-02
4.484000000000000341e+01,4.444555268428937445e-02
4.488000000000000256e+01,3.866104945764804734e-02
4.492000000000000171e+01,3.431430675556950555e-02
4.496000000000000085e+01,4.167966412784669672e-02
4.500000000000000000e+01,3.835905899167017102e-02
4.503999999999999915e+01,1.818788642759894270e-02
4.507999999999999829e+01,2.966103187639485342e-02
4.511999999999999744e+01,2.736591049832080152e-02
4.515999999999999659e+01,3.185120213644108272e-02
4.520000000000000284e+01,1.845848934342654221e-02
4.524000000000000199e+01,2.766867213128742023e-02
4.528000000000000114e+01,3.133005735298232536e-02
4.532000000000000028e+01,1.608600188378053394e-02
4.535999999999999943e+01,3.084236477617461475e-02
4.539999999999999858e+01,3.470727091946695930e-02
4.543999999999999773e+01,6.721065371906097090e-03
4.547999999999999687e+01,3.914732322358911720e-02
4.552000000000000313e+01,3.109202205111460601e-02
4.556000000000000227e+01,1.954278616678056801e-02
4.560000000000000142e+01,2.237696693740071074e-02
4.564000000000000057e+01,1.904588303295429857e-02
4.567999999999999972e+01,2.105679483842692185e-02
4.571999999999999886e+01,1.792987451120356054e-02
4.575999999999999801e+01,2.528211855357830398e-02
4.579999999999999716e+01,1.886608312995280770e-02
4.584000000000000341e+01,2.580602587108477702e-02
4.588000000000000256e+01,1.610087237714410632e-02
4.592000000000000171e+01,1.584744624956131373e-02
4.596000000000000085e+01,2.134698423928053229e-02
4.600000000000000000e+01,2.664036823272625254e-02
4.603999999999999915e+01,3.172759748642015737e-02
4.607999999999999829e+01,2.304654206976605724e-02
4.611999999999999744e+01,3.162570892496466279e-02
4.615999999999999659e+01,2.294331392314654869e-02
4.620000000000000284e+01,2.597299594785819690e-02
4.624000000000000199e+01,1.009722018167318394e-02
4.628000000000000114e+01,2.155051720083363265e-02
4.632000000000000028e+01,2.930437857618234040e-02
4.635999999999999943e+01,2.164605562991178678e-02
4.639999999999999858e+01,1.521997889364313898e-02
4.643999999999999773e+01,2.112243514063093242e-02
4.647999999999999687e+01,2.538032082854818280e-02
4.652000000000000313e+01,2.141805742622302292e-02
4.656000000000000227e+01,1.868803725998670340e-02
4.660000000000000142e+01,2.150548250953483384e-02
4.664000000000000057e+01,2.658260353754242356e-02
4.667999999999999972e+01,1.830240235475902311e-02
4.671999999999999886e+01,2.933728035030870249e-02
4.675999999999999801e+01,2.886421590089961048e-02
4.679999999999999716e+01,2.571914091526680129e-02
4.684000000000000341e+01,2.360081715550960829e-02
4.688000000000000256e+01,2.805738763651622822e-02
4.692000000000000171e+01,2.367734117490157345e-02
4.696000000000000085e+01,2.052953051459319514e-02
4.700000000000000000e+01,2.827183478778775086e-02
4.703999999999999915e+01,3.210920322869647431e-02
4.707999999999999829e+01,1.395879617768375908e-02
4.711999999999999744e+01,3.012399769839756505e-02
4.715999999999999659e+01,2.615080349302222398e-02
4.720000000000000284e+01,2.710860313366128885e-02
4.724000000000000199e+01,1.614747779587166060e-02
4.728000000000000114e+01,1.772035663416058129e-02
4.732000000000000028e+01,1.990900416485516869e-02
4.735999999999999943e+01,1.901465713889953849e-02
4.739999999999999858e+01,1.894156412425849340e-02
4.743999999999999773e+01,2.174459243610806641e-02
4.747999999999999687e+01,1.899878229048752518e-02
4.752000000000000313e+01,2.241688087824782877e-02
4.756000000000000227e+01,7.340470752059881365e-03
4.760000000000000142e+01,2.062054290576203347e-02
4.764000000000000057e+01,2.115973542279125236e-02
4.767999999999999972e+01,1.430070451217026889e-02
4.771999999999999886e+01,1.812628834657823568e-02
4.775999999999999801e+01,2.606090839484319702e-02
4.779999999999999716e+01,2.618632917329245455e-02
4.784000000000000341e+01,3.288662634902728144e-02
4.788000000000000256e+01,2.253081650404574476e-02
4.792000000000000171e+01,1.340722461689231385e-02
4.796000000000000085e+01,2.051638677226464910e-02
4.800000000000000000e+01,1.611758343485232906e-02
4.803999999999999915e+01,2.425277014743162929e-02
4.807999999999999829e+01,1.471538570430697655e-02
4.811999999999999744e+01,2.531500164123817731e-02
4.815999999999999659e+01,1.372133520646955790e-02
4.820000000000000284e+01,1.014094611874026032e-02
4.824000000000000199e+01,6.354361399955041519e-03
4.828000000000000114e+01,2.023893241692750061e-02
4.832000000000000028e+01,2.323199241088547140e-02
4.835999999999999943e+01,2.149814481431342947e-02
4.839999999999999858e+01,1.606482291306021368e-02
4.843999999999999773e+01,1.967220792730389051e-02
4.847999999999999687e+01,2.615569493760343603e-02
4.852000000000000313e+01,1.414465539047653382e-02
4.856000000000000227e+01,2.001025318062495117e-02
4.860000000000000142e+01,2.505318823081686269e-02
4.864000000000000057e+01,2.578018409786180312e-02
4.867999999999999972e+01,3.369850116674524831e-02
4.871999999999999886e+01,1.695768378484820149e-02
4.875999999999999801e+01,1.583314515831558619e-02
4.879999999999999716e+01,1.100912479231918630e-02
4.884000000000000341e+01,1.255447543078659807e-02
4.888000000000000256e+01,1.759238104812356138e-02
4.892000000000000171e+01,1.338265893719566522e-02
4.896000000000000085e+01,1.698071324135467033e-02
4.900000000000000000e+01,1.975609737077462999e-02
4.903999999999999915e+01,2.479111266995857876e-02
4.907999999999999829e+01,1.708522156725236774e-02
4.911999999999999744e+01,1.739259071158551564e-02
4.915999999999999659e+01,1.461693184274693094e-02
4.920000000000000284e+01,1.841612409293318098e-02
4.924000000000000199e+01,3.084503477732036120e-02
4.928000000000000114e+01,1.306665684386502067e-02
4.932000000000000028e+01,2.508313686179267435e-02
4.935999999999999943e+01,1.079657608636440044e-02
4.939999999999999858e+01,1.500309745276431038e-02
4.943999999999999773e+01,2.434605783626160244e-02
4.947999999999999687e+01,1.786580229510478790e-02
4.952000000000000313e+01,2.063172040139731045e-02
4.956000000000000227e+01,2.504079959464026311e-02
4.960000000000000142e+01,2.349002731433465913e-02
4.964000000000000057e+01,2.152754657536871605e-02
4.967999999999999972e+01,1.401618648762860062e-02
4.971999999999999886e+01,1.431258868888855666e-02
4.975999999999999801e+01,2.508808091192084311e-02
4.979999999999999716e+01,2.188973251526176236e-02
4.984000000000000341e+01,2.423878931264838998e-02
4.988000000000000256e+01,1.651825331483017245e-02
4.992000000000000171e+01,1.824937033554417318e-02
4.996000000000000085e+01,2.100718059082976735e-02
5.000000000000000000e+01,2.314778889028519873e-02
5.003999999999999915e+01,1.131455210917979917e-02
5.007999999999999829e+01,2.126217372461897820e-02
5.011999999999999744e+01,2.668834184235025983e-02
5.015999999999999659e+01,1.875712306668215687e-02
5.020000000000000284e+01,1.185259306471603095e-02
5.024000000000000199e+01,2.385210320326561911e-02
5.028000000000000114e+01,2.126130338278844206e-02
5.032000000000000028e+01,2.051913732904022195e-02
5.035999999999999943e+01,2.450241958065864367e-02
5.039999999999999858e+01,1.964902020704741362e-02
5.043999999999999773e+01,8.013806523382590793e-03
5.047999999999999687e+01,1.836493060734522426e-02
5.052000000000000313e+01,2.111229167083603087e-02
5.056000000000000227e+01,2.159854592287774669e-02
5.060000000000000142e+01,2.290599470797346701e-02
5.064000000000000057e+01,2.215782200052905659e-02
5.067999999999999972e+01,2.305278956264384185e-02
5.071999999999999886e+01,2.887868554468635968e-02
5.075999999999999801e+01,2.730630085125295217e-02
5.079999999999999716e+01,1.710271390367272548e-02
5.084000000000000341e+01,1.902209135087535793e-02
5.088000000000000256e+01,2.032425048572620782e-02
5.092000000000000171e+01,1.792688847676572259e-02
5.096000000000000085e+01,2.395372612657565431e-02
5.100000000000000000e+01,1.806156891100071243e-02
5.103999999999999915e+01,2.223750431416308959e-02
5.107999999999999829e+01,2.497427046412074164e-02
5.111999999999999744e+01,2.092920966489435555e-02
5.115999999999999659e+01,1.852728021348816478e-02
5.120000000000000284e+01,3.030317652421464503e-02
5.124000000000000199e+01,1.762537835089590318e-02
5.128000000000000114e+01,1.665956278236830138e-02
5.132000000000000028e+01,2.267953254024878545e-02
5.135999999999999943e+01,2.684935422884596190e-02
5.139999999999999858e+01,1.951114722900652160e-02
5.143999999999999773e+01,2.018615735446757306e-02
5.147999999999999687e+01,2.517562135617322852e-02
5.152000000000000313e+01,2.954785514987500611e-02
5.156000000000000227e+01,2.611081978680483001e-02
5.160000000000000142e+01,2.534434162262112766e-02
5.164000000000000057e+01,2.498806504932585965e-02
5.167999999999999972e+01,2.771331779969135600e-02
5.171999999999999886e+01,1.379336576715866833e-02
5.175999999999999801e+01,2.062680687575664182e-02
5.179999999999999716e+01,2.499363131921418513e-02
5.184000000000000341e+01,1.620852444905097195e-02
5.188000000000000256e+01,2.920424251891075296e-02
5.192000000000000171e+01,2.945900139992409239e-02
5.196000000000000085e+01,2.231545730111378703e-02
5.200000000000000000e+01,2.010281783092700281e-02
5.203999999999999915e+01,2.693081836319392505e-02
5.207999999999999829e+01,1.937396228577799306e-02
5.211999999999999744e+01,2.065225791799387908e-02
5.215999999999999659e+01,2.768340242838194729e-02
5.220000000000000284e+01,2.423393741009541302e-02
5.224000000000000199e+01,2.900316145340968085e-02
5.228000000000000114e+01,4.384045506763521033e-02
5.232000000000000028e+01,3.710084940601850872e-02
5.235999999999999943e+01,4.659391600431930097e-02
5.239999999999999858e+01,4.375698810376547204e-02
5.243999999999999773e+01,4.420706220665091002e-02
5.247999999999999687e+01,3.623138963516820549e-02
5.252000000000000313e+01,3.154271758016830018e-02
5.256000000000000227e+01,2.993555849230746663e-02
5.260000000000000142e+01,3.428672691022340013e-02
5.264000000000000057e+01,3.555480263235924476e-02
5.267999999999999972e+01,3.065748282725527449e-02
5.271999999999999886e+01,2.637583134499229404e-02
5.275999999999999801e+01,3.134029328843986745e-02
5.279999999999999716e+01,3.075581789180922496e-02
5.284000000000000341e+01,2.667727247027623996e-02
5.288000000000000256e+01,3.102289102055734438e-02
5.292000000000000171e+01,1.769584845426544831e-02
5.296000000000000085e+01,2.779350520100700578e-02
5.300000000000000000e+01,1.610876322691052326e-02
5.303999999999999915e+01,2.024570726187036387e-02
5.307999999999999829e+01,1.924468236413498512e-02
5.311999999999999744e+01,2.522940933628615989e-02
5.315999999999999659e+01,2.155545615974632095e-02
5.320000000000000284e+01,1.993557002536628167e-02
5.324000000000000199e+01,1.790390851928280735e-02
5.328000000000000114e+01,1.915923340359523483e-02
5.332000000000000028e+01,2.144118907030561835e-02
5.335999999999999943e+01,2.762659005805164283e-02
5.339999999999999858e+01,2.723560852421842704e-02
5.343999999999999773e+01,2.047373053119320302e-02
5.347999999999999687e+01,2.049211091088475045e-02
5.352000000000000313e+01,1.927676349106334161e-02
5.356000000000000227e+01,2.586910698632934047e-02
5.360000000000000142e+01,2.444665660156685252e-02
5.364000000000000057e+01,2.158498938099115763e-02
5.367999999999999972e+01,1.440728929900814484e-02
5.371999999999999886e+01,2.222931536348936657e-02
5.375999999999999801e+01,2.470787305027960165e-02
5.379999999999999716e+01,2.245942203349684391e-02
5.384000000000000341e+01,1.979918449283676884e-02
5.388000000000000256e+01,1.796008052001359795e-02
5.392000000000000171e+01,2.064087187712675825e-02
5.396000000000000085e+01,2.311536128579326499e-02
5.400000000000000000e+01,2.415062716734222084e-02
5.403999999999999915e+01,1.778755140819819267e-02
5.407999999999999829e+01,2.190348537517475616e-02
5.411999999999999744e+01,1.738815537930920793e-02
5.415999999999999659e+01,1.965307111703010895e-02
5.420000000000000284e+01,2.458849572755069865e-02
5.424000000000000199e+01,2.787920554421890323e-02
5.428000000000000114e+01,2.623741092970955160e-02
5.432000000000000028e+01,2.377284725785293318e-02
5.435999999999999943e+01,2.603365754353729675e-02
5.439999999999999858e+01,2.932107853770663658e-02
5.443999999999999773e+01,2.192236156255359183e-02
5.447999999999999687e+01,2.500264687873852629e-02
5.452000000000000313e+01,3.465768443134024240e-02
5.456000000000000227e+01,3.588693664870442473e-02
5.460000000000000142e+01,3.115624445773792356e-02
5.464000000000000057e+01,3.505517033140765487e-02
5.467999999999999972e+01,3.751486003882946452e-02
5.471999999999999886e+01,3.504203713681301735e-02
5.475999999999999801e+01,4.469210576871017471e-02
5.479999999999999716e+01,4.982063391594329649e-02
5.484000000000000341e+01,4.241363540628267925e-02
5.488000000000000256e+01,4.363625050038871800e-02
5.492000000000000171e+01,4.814582150228204765e-02
5.496000000000000085e+01,5.286004558050311913e-02
5.500000000000000000e+01,5.962830324436250301e-02
5.503999999999999915e+01,6.454634443893891849e-02
5.507999999999999829e+01,6.370991910931092517e-02
5.511999999999999744e+01,7.396894459296515789e-02
5.515999999999999659e+01,5.381508536160767298e-02
5.520000000000000284e+01,5.256517407946199177e-02
5.524000000000000199e+01,6.199973776843279577e-02
5.528000000000000114e+01,5.889876662224905607e-02
5.532000000000000028e+01,4.778296962647175794e-02
5.535999999999999943e+01,4.488580370099115591e-02
5.539999999999999858e+01,5.123470213165611659e-02
5.543999999999999773e+01,3.744505093623277242e-02
5.547999999999999687e+01,4.728553902057815173e-02
5.552000000000000313e+01,5.363190726697803640e-02
5.556000000000000227e+01,5.031955075599146149e-02
5.560000000000000142e+01,4.084174444385234998e-02
5.564000000000000057e+01,3.465088065689197333e-02
5.567999999999999972e+01,4.387068019769212179e-02
5.571999999999999886e+01,4.117139714267306627e-02
5.575999999999999801e+01,3.456701617710811192e-02
5.579999999999999716e+01,3.967453380329124396e-02
5.584000000000000341e+01,3.635624230293266895e-02
5.588000000000000256e+01,3.283161316717107120e-02
5.592000000000000171e+01,2.971710607012446187e-02
5.596000000000000085e+01,3.954741542610546584e-02
5.600000000000000000e+01,2.800624391211000222e-02
5.603999999999999915e+01,3.269767625803235434e-02
5.607999999999999829e+01,2.793586098721642305e-02
5.611999999999999744e+01,3.468045155445697442e-02
5.615999999999999659e+01,4.204064650540844522e-02
5.620000000000000284e+01,3.337201382149324741e-02
5.624000000000000199e+01,3.066164098683341402e-02
5.628000000000000114e+01,3.226563281102724778e-02
5.632000000000000028e+01,3.530717326848063775e-02
5.635999999999999943e+01,3.999174842158079168e-02
5.639999999999999858e+01,3.337368875732764362e-02
5.643999999999999773e+01,2.613830743724505912e-02
5.647999999999999687e+01,3.493003499295407877e-02
5.652000000000000313e+01,2.666549493664317760e-02
5.656000000000000227e+01,3.771585116301413160e-02
5.660000000000000142e+01,3.170993829040877343e-02
5.664000000000000057e+01,2.981289657948730729e-02
5.667999999999999972e+01,4.455942044456251416e-02
5.671999999999999886e+01,3.320825352214783893e-02
5.675999999999999801e+01,3.254153331867600668e-02
5.679999999999999716e+01,3.372332643845540878e-02
5.684000000000000341e+01,3.654814533214244959e-02
5.688000000000000256e+01,2.971421493366059943e-02
5.692000000000000171e+01,3.192083383328506163e-02
5.696000000000000085e+01,3.577047627638236388e-02
5.700000000000000000e+01,3.694791859630042891e-02
5.703999999999999915e+01,3.360377879677207275e-02
5.707999999999999829e+01,3.169717350441636494e-02
5.711999999999999744e+01,3.369394364614011761e-02
5.715999999999999659e+01,2.294965720336586412e-02
5.720000000000000284e+01,2.864343986550534071e-02
5.724000000000000199e+01,3.577475406090448867e-02
5.728000000000000114e+01,2.934306221790908276e-02
5.732000000000000028e+01,2.866412334439065804e-02
5.735999999999999943e+01,2.531297765638859318e-02
5.739999999999999858e+01,2.319387372186776722e-02
5.743999999999999773e+01,2.621106010879288573e-02
5.747999999999999687e+01,2.224081452762567690e-02
5.752000000000000313e+01,2.114650291642830929e-02
5.756000000000000227e+01,2.662688703730009890e-02
5.760000000000000142e+01,2.594178418310651157e-02
5.764000000000000057e+01,3.943438739104628693e-02
5.767999999999999972e+01,2.785671599734518278e-02
5.771999999999999886e+01,8.264174145355124637e-03
5.775999999999999801e+01,2.956262088756868647e-02
5.779999999999999716e+01,1.757131856308968842e-02
5.784000000000000341e+01,2.715524359450800090e-02
5.788000000000000256e+01,2.708040074680090337e-02
5.792000000000000171e+01,3.234732610466619501e-02
5.796000000000000085e+01,1.665370777385119863e-02
5.800000000000000000e+01,2.952186522444493616e-02
5.803999999999999915e+01,2.553921361671042736e-02
5.807999999999999829e+01,2.504894598784642920e-02
5.811999999999999744e+01,3.195531090581767153e-02
5.815999999999999659e+01,2.118891731156418573e-02
5.820000000000000284e+01,3.097031035257664586e-02
5.824000000000000199e+01,2.575027187065833528e-02
5.828000000000000114e+01,2.011836433877615959e-02
5.832000000000000028e+01,2.640379536537732982e-02
5.835999999999999943e+01,2.693469890255705337e-02
5.839999999999999858e+01,3.588966381155138385e-02
5.843999999999999773e+01,2.162372124560672793e-02
5.847999999999999687e+01,2.502874482846428189e-02
5.852000000000000313e+01,2.617251364769955513e-02
5.856000000000000227e+01,3.163060474752793505e-02
5.860000000000000142e+01,1.797752151581286789e-02
5.864000000000000057e+01,2.651611118802615907e-02
5.867999999999999972e+01,2.272458963529843876e-02
5.871999999999999886e+01,2.037057210713489469e-02
5.875999999999999801e+01,1.781016341313376369e-02
5.879999999999999716e+01,2.449575587962634846e-02
5.884000000000000341e+01,2.439937790563133715e-02
5.888000000000000256e+01,2.306917250603692307e-02
5.892000000000000171e+01,2.029965213149938219e-02
5.896000000000000085e+01,2.842002439046590820e-02
5.900000000000000000e+01,2.893647601157014679e-02
5.903999999999999915e+01,2.328741389239171941e-02
5.907999999999999829e+01,2.195266438858902575e-02
5.911999999999999744e+01,2.904196287399238297e-02
5.915999999999999659e+01,2.688344330069688051e-02
5.920000000000000284e+01,2.513498480089931125e-02
5.924000000000000199e+01,2.400207343698689336e-02
5.928000000000000114e+01,1.896399873644187897e-02
5.932000000000000028e+01,1.680182454934512834e-02
5.935999999999999943e+01,2.532404875510447378e-02
5.939999999999999858e+01,2.500942405302635299e-02
5.943999999999999773e+01,1.750184414655592616e-02
5.947999999999999687e+01,3.321335556029768321e-02
5.952000000000000313e+01,2.282712414307160390e-02
5.956000000000000227e+01,2.148139295438691865e-02
5.960000000000000142e+01,2.465545152172608084e-02
5.964000000000000057e+01,1.817070949689657614e-02
5.967999999999999972e+01,1.846611060565398615e-02
5.971999999999999886e+01,1.855510270509568363e-02
5.975999999999999801e+01,2.994494618020721033e-02
5.979999999999999716e+01,2.818271038952481836e-02
5.984000000000000341e+01,1.511777584235904880e-02
5.988000000000000256e+01,1.438112446975544322e-02
5.992000000000000171e+01,2.412337427544688356e-02
5.996000000000000085e+01,2.091902864729676750e-02
