2.003999999999999915e+01,4.380084698065599136e-02
2.007999999999999829e+01,5.612706322414034998e-02
2.012000000000000099e+01,4.752981516894774772e-02
2.016000000000000014e+01,4.001086777802606576e-02
2.019999999999999929e+01,4.996369278943076087e-02
2.023999999999999844e+01,6.530888864562223173e-02
2.028000000000000114e+01,6.598602112287141330e-02
2.032000000000000028e+01,4.832812850097389229e-02
2.035999999999999943e+01,4.490645143593743893e-02
2.039999999999999858e+01,3.975892382991404184e-02
2.044000000000000128e+01,3.719961662888870285e-02
2.048000000000000043e+01,3.420867886937512675e-02
2.051999999999999957e+01,3.833573528094879473e-02
2.055999999999999872e+01,2.973605522545320554e-02
2.060000000000000142e+01,4.119658294446907482e-02
2.064000000000000057e+01,6.279495273618337925e-02
2.067999999999999972e+01,2.593742362301197299e-02
2.071999999999999886e+01,3.416171591437764526e-02
2.076000000000000156e+01,5.532799459448095591e-02
2.080000000000000071e+01,4.133435931514264222e-02
2.083999999999999986e+01,6.552002840560930408e-02
2.087999999999999901e+01,4.483912065492590832e-02
2.092000000000000171e+01,4.400271096943129262e-02
2.096000000000000085e+01,4.963717627814956401e-02
2.100000000000000000e+01,4.621185765437862969e-02
2.103999999999999915e+01,3.221682923364049128e-02
2.107999999999999829e+01,3.504644561819839077e-02
2.112000000000000099e+01,3.356175465645991340e-02
2.116000000000000014e+01,5.882407190542394276e-02
2.119999999999999929e+01,3.835699184719714577e-02
2.123999999999999844e+01,4.744106508118032389e-02
2.128000000000000114e+01,3.042476576415025641e-02
2.132000000000000028e+01,3.648851064121195337e-02
2.135999999999999943e+01,3.996357226374649962e-02
2.139999999999999858e+01,4.990950046033775650e-02
2.144000000000000128e+01,2.620542754899671950e-02
2.148000000000000043e+01,4.370049695797875722e-02
2.151999999999999957e+01,3.466378205198961115e-02
2.155999999999999872e+01,5.258977128758832165e-02
2.160000000000000142e+01,3.298309181307122750e-02
2.164000000000000057e+01,4.141763287706801827e-02
2.167999999999999972e+01,5.114614910309595031e-02
2.171999999999999886e+01,2.959739830421015752e-02
2.176000000000000156e+01,2.703031515337869436e-02
2.180000000000000071e+01,4.020934510154269836e-02
2.183999999999999986e+01,4.195583560107437465e-02
2.187999999999999901e+01,3.852518986811282603e-02
2.192000000000000171e+01,4.782080473972275675e-02
2.196000000000000085e+01,4.762521013644830520e-02
2.200000000000000000e+01,4.052684831969294299e-02
2.203999999999999915e+01,6.060688504447327846e-02
2.207999999999999829e+01,4.703690841382149324e-02
2.212000000000000099e+01,3.152534474145465837e-02
2.216000000000000014e+01,3.650536616146370789e-02
2.219999999999999929e+01,2.271891933415019424e-02
2.223999999999999844e+01,2.856124172598457911e-02
2.228000000000000114e+01,4.238433895057260037e-02
2.232000000000000028e+01,1.608631065973547408e-02
2.235999999999999943e+01,2.624192896630981806e-02
2.239999999999999858e+01,3.143610467487012450e-02
2.244000000000000128e+01,1.570677168756858672e-02
2.248000000000000043e+01,1.572353878629393839e-02
2.251999999999999957e+01,3.580047691703164975e-02
2.255999999999999872e+01,2.136457816442135713e-02
2.260000000000000142e+01,3.087151345319413820e-02
2.264000000000000057e+01,3.131863342525958993e-02
2.267999999999999972e+01,3.154978432362911395e-02
2.271999999999999886e+01,3.221207613955196641e-02
2.276000000000000156e+01,4.948327702551150176e-02
2.280000000000000071e+01,2.684904679599354332e-02
2.283999999999999986e+01,4.023704680711708698e-02
2.287999999999999901e+01,3.399575121565872465e-02
2.292000000000000171e+01,2.322441024623818698e-02
2.296000000000000085e+01,4.394552192402658569e-02
2.300000000000000000e+01,2.368268073113010547e-02
2.303999999999999915e+01,2.197007552014373574e-02
2.307999999999999829e+01,3.492504098528955575e-02
2.312000000000000099e+01,4.982106481231034223e-02
2.316000000000000014e+01,2.481165063463534881e-02
2.319999999999999929e+01,3.539305263723757644e-02
2.323999999999999844e+01,4.467995692171830568e-02
2.328000000000000114e+01,3.153341133648474709e-02
2.332000000000000028e+01,3.327013542014420344e-02
2.335999999999999943e+01,4.622316745249180348e-02
2.339999999999999858e+01,4.623370508391758810e-02
2.344000000000000128e+01,5.034233080919529868e-02
2.348000000000000043e+01,6.437304067331899027e-02
2.351999999999999957e+01,6.718688252469615096e-02
2.355999999999999872e+01,4.562593687792374647e-02
2.360000000000000142e+01,6.396987146819527181e-02
2.364000000000000057e+01,8.900033335184735772e-02
2.367999999999999972e+01,5.859468911847637990e-02
2.371999999999999886e+01,1.056263467153912422e-01
2.376000000000000156e+01,8.967227116930118203e-02
2.380000000000000071e+01,1.155644043030655960e-01
2.383999999999999986e+01,1.349851421829329212e-01
2.387999999999999901e+01,1.602295884210775678e-01
2.392000000000000171e+01,1.533339111912371544e-01
2.396000000000000085e+01,1.485949798340011618e-01
2.400000000000000000e+01,1.285408031525125672e-01
2.403999999999999915e+01,1.078392242002457618e-01
2.407999999999999829e+01,8.152905974356021435e-02
2.412000000000000099e+01,8.822125083449879057e-02
2.416000000000000014e+01,8.736352261992683110e-02
2.419999999999999929e+01,7.119054525375860532e-02
2.423999999999999844e+01,4.595772195213376071e-02
2.428000000000000114e+01,4.100073958746928288e-02
2.432000000000000028e+01,5.329974719627887658e-02
2.435999999999999943e+01,5.632320298765274014e-02
2.439999999999999858e+01,2.483378668411711024e-02
2.444000000000000128e+01,4.511293174928019539e-02
2.448000000000000043e+01,3.001638884630550980e-02
2.451999999999999957e+01,3.196012850388856019e-02
2.455999999999999872e+01,3.411927028189077477e-02
2.460000000000000142e+01,3.972936719843352116e-02
2.464000000000000057e+01,3.261264957009640114e-02
2.467999999999999972e+01,4.232050785486934918e-02
2.471999999999999886e+01,3.088911022648983470e-02
2.476000000000000156e+01,1.988881447675848804e-02
2.480000000000000071e+01,2.247753856014055376e-02
2.483999999999999986e+01,3.002713828825979286e-02
2.487999999999999901e+01,2.722265831998630162e-02
2.492000000000000171e+01,2.571209151077674324e-02
2.496000000000000085e+01,3.282935900463374718e-02
2.500000000000000000e+01,2.657269430767422724e-02
2.503999999999999915e+01,5.072992452568582389e-02
2.507999999999999829e+01,6.077399529761487104e-03
2.512000000000000099e+01,1.362483006071262860e-02
2.516000000000000014e+01,1.642646876187991642e-02
2.519999999999999929e+01,3.669978418178179713e-02
2.523999999999999844e+01,5.589426719569806634e-02
2.528000000000000114e+01,2.784934972560413127e-02
2.532000000000000028e+01,1.921743894799283342e-02
2.535999999999999943e+01,2.870431258395913371e-02
2.539999999999999858e+01,3.775946150878310009e-02
2.544000000000000128e+01,3.128363396690750364e-02
2.548000000000000043e+01,4.120095985762190632e-02
2.551999999999999957e+01,2.846908942680043131e-02
2.555999999999999872e+01,2.522785615930540556e-02
2.560000000000000142e+01,1.076971507468974486e-02
2.564000000000000057e+01,2.737256817973212839e-02
2.567999999999999972e+01,3.275851193671647232e-02
2.571999999999999886e+01,2.779035992246450815e-02
2.576000000000000156e+01,2.303758706456964650e-02
2.580000000000000071e+01,3.489366510108772579e-02
2.583999999999999986e+01,3.812127375454497230e-02
2.587999999999999901e+01,2.090503108150518988e-03
2.592000000000000171e+01,2.753492685888248720e-02
2.596000000000000085e+01,2.407474188631465728e-02
2.600000000000000000e+01,3.463496095394352076e-02
2.603999999999999915e+01,6.583908416563872233e-03
2.607999999999999829e+01,2.447738905320211156e-02
2.612000000000000099e+01,1.217203639122906023e-02
2.616000000000000014e+01,2.877063211209370669e-02
2.619999999999999929e+01,2.617127586761725661e-02
2.623999999999999844e+01,2.335588242272756271e-02
2.628000000000000114e+01,2.550133706570057932e-02
2.632000000000000028e+01,5.428987248908512427e-03
2.635999999999999943e+01,3.928219791404265193e-02
2.639999999999999858e+01,2.999435478792291873e-02
2.644000000000000128e+01,3.192276066939921803e-02
2.648000000000000043e+01,3.147808890192308612e-02
2.651999999999999957e+01,2.240493473841754374e-02
2.655999999999999872e+01,3.080343126770972856e-02
2.660000000000000142e+01,4.265284466210603198e-02
2.664000000000000057e+01,1.373393911373578351e-02
2.667999999999999972e+01,1.954296880757236399e-02
2.671999999999999886e+01,2.168469474620790538e-02
2.676000000000000156e+01,3.288562771296250908e-02
2.680000000000000071e+01,3.157540838509831360e-02
2.683999999999999986e+01,2.702929017677226098e-02
2.687999999999999901e+01,3.434652331260407837e-02
2.692000000000000171e+01,1.319053652503159729e-02
2.696000000000000085e+01,1.403596807259612986e-02
2.700000000000000000e+01,1.056697974996035835e-02
2.703999999999999915e+01,2.715807596136989369e-02
2.707999999999999829e+01,3.555208623133312290e-02
2.712000000000000099e+01,2.431671975902893051e-02
2.716000000000000014e+01,1.890499887656616959e-02
2.719999999999999929e+01,2.514091962893860374e-02
2.723999999999999844e+01,3.116078404417959441e-02
2.728000000000000114e+01,4.818117780660027133e-02
2.732000000000000028e+01,1.515798543366032869e-02
2.735999999999999943e+01,3.704796570024454071e-03
2.739999999999999858e+01,1.619434989152362600e-02
2.744000000000000128e+01,9.485927518150995968e-03
2.748000000000000043e+01,1.550365934919583320e-02
2.751999999999999957e+01,2.863925139429963559e-02
2.755999999999999872e+01,2.063553317797098621e-02
2.760000000000000142e+01,7.670272852692955855e-03
2.764000000000000057e+01,1.800063936301955769e-02
2.767999999999999972e+01,3.846871322354785544e-02
2.771999999999999886e+01,3.111066260801531938e-02
2.776000000000000156e+01,2.763491383013893729e-02
2.780000000000000071e+01,0.000000000000000000e+00
2.783999999999999986e+01,8.602924312483554298e-03
2.787999999999999901e+01,1.461704059903615356e-02
2.792000000000000171e+01,2.451345566137009060e-02
2.796000000000000085e+01,1.801603169018343303e-02
2.800000000000000000e+01,4.184318514060532228e-03
2.803999999999999915e+01,2.270777511290786310e-02
2.807999999999999829e+01,1.879768998579316175e-02
2.812000000000000099e+01,4.749166744891043790e-03
2.816000000000000014e+01,8.172263578037327128e-03
2.819999999999999929e+01,2.604712952174552398e-02
2.823999999999999844e+01,3.594059091098692621e-02
2.828000000000000114e+01,4.259812586289218883e-02
2.832000000000000028e+01,2.035100692884229956e-02
2.835999999999999943e+01,2.075239029524156634e-02
2.839999999999999858e+01,3.862538914287687308e-02
2.844000000000000128e+01,1.831847762852489500e-02
2.848000000000000043e+01,3.489650276601377610e-02
2.851999999999999957e+01,3.853193552258285526e-02
2.855999999999999872e+01,3.440166118650813537e-02
2.860000000000000142e+01,2.940819373064680262e-02
2.864000000000000057e+01,1.362916745318648246e-02
2.867999999999999972e+01,2.157715528028907731e-02
2.871999999999999886e+01,3.642727677181586965e-02
2.876000000000000156e+01,1.007763157958792635e-02
2.880000000000000071e+01,2.018150974430549596e-02
2.883999999999999986e+01,1.669567864763544032e-02
2.887999999999999901e+01,9.758206046025362512e-03
2.892000000000000171e+01,2.999900032532896305e-02
2.896000000000000085e+01,1.529542807514201221e-02
2.900000000000000000e+01,2.496597456248631289e-02
2.903999999999999915e+01,2.385095457354429946e-02
2.907999999999999829e+01,2.144132510804557315e-02
2.912000000000000099e+01,2.442389655327485351e-02
2.916000000000000014e+01,4.034829363880768072e-02
2.919999999999999929e+01,1.960269091745621070e-02
2.923999999999999844e+01,3.487919596174884895e-02
2.928000000000000114e+01,1.628984628066459939e-02
2.932000000000000028e+01,2.574157016809747872e-02
2.935999999999999943e+01,7.367138195251393684e-03
2.939999999999999858e+01,2.609332885403799207e-02
2.944000000000000128e+01,2.173884100420735155e-02
2.948000000000000043e+01,2.407076868932239710e-02
2.951999999999999957e+01,2.359815337871584012e-02
2.955999999999999872e+01,1.104574012729329230e-02
2.960000000000000142e+01,4.486919985978535252e-02
2.964000000000000057e+01,3.274739718561136409e-02
2.967999999999999972e+01,2.342934167873079662e-02
2.971999999999999886e+01,3.568124451849918194e-02
2.976000000000000156e+01,2.506816631147322852e-02
2.980000000000000071e+01,1.316046484945351640e-02
2.983999999999999986e+01,1.699872262721379562e-02
2.987999999999999901e+01,2.256220581706036218e-02
2.992000000000000171e+01,2.273269532962579609e-02
2.996000000000000085e+01,2.656974099349436111e-02
3.000000000000000000e+01,2.026831256654502283e-02
3.003999999999999915e+01,2.669298935401437367e-02
3.007999999999999829e+01,1.931222956499262927e-02
3.012000000000000099e+01,2.573609138731555723e-02
3.016000000000000014e+01,1.576607207533762753e-02
3.019999999999999929e+01,2.844451985224726379e-02
3.023999999999999844e+01,3.184730328781739533e-02
3.028000000000000114e+01,1.583635309466278548e-02
3.032000000000000028e+01,2.549371789200722063e-02
3.035999999999999943e+01,3.471926306008629032e-02
3.039999999999999858e+01,2.539388664532522821e-02
3.044000000000000128e+01,2.836320061915005922e-02
3.048000000000000043e+01,1.321299865034267738e-02
3.051999999999999957e+01,2.567244011484488830e-02
3.055999999999999872e+01,2.497354657394927624e-02
3.060000000000000142e+01,3.268667581945629286e-02
3.064000000000000057e+01,3.392827968138140832e-02
3.067999999999999972e+01,2.373717492608403562e-02
3.071999999999999886e+01,2.152668348963769976e-02
3.076000000000000156e+01,2.880672970558246712e-02
3.080000000000000071e+01,5.118560603333967285e-02
3.083999999999999986e+01,4.120852288144828679e-02
3.087999999999999901e+01,4.309471452684147941e-02
3.092000000000000171e+01,4.756892602442473056e-02
3.096000000000000085e+01,3.996331278978623031e-02
3.100000000000000000e+01,3.516142146197304141e-02
3.103999999999999915e+01,3.812443374368830462e-02
3.107999999999999829e+01,5.316642058091711198e-02
3.112000000000000099e+01,6.389390870466625516e-02
3.116000000000000014e+01,5.865890372854149631e-02
3.119999999999999929e+01,5.191354512044454861e-02
3.123999999999999844e+01,6.263974764530355621e-02
3.128000000000000114e+01,6.301174799877248822e-02
3.132000000000000028e+01,7.912967926967832966e-02
3.135999999999999943e+01,9.503147536017322872e-02
3.139999999999999858e+01,1.007947705684445611e-01
3.144000000000000128e+01,1.061262254797946392e-01
3.148000000000000043e+01,1.097316178153188437e-01
3.151999999999999957e+01,1.280044193130727703e-01
3.155999999999999872e+01,1.380800491368824323e-01
3.160000000000000142e+01,1.438411710615876138e-01
3.164000000000000057e+01,1.491704488620279601e-01
3.167999999999999972e+01,1.473810706199812359e-01
3.171999999999999886e+01,1.764368666307725986e-01
3.176000000000000156e+01,2.024723731940206162e-01
3.180000000000000071e+01,2.153495210223400624e-01
3.183999999999999986e+01,1.803400320730587925e-01
3.187999999999999901e+01,2.106882880063713215e-01
3.192000000000000171e+01,1.920713877032822758e-01
3.196000000000000085e+01,1.807879662327954717e-01
3.200000000000000000e+01,1.817992052976140083e-01
3.203999999999999915e+01,1.735347455750000656e-01
3.207999999999999829e+01,1.704467265328552528e-01
3.211999999999999744e+01,1.667111505952480754e-01
3.215999999999999659e+01,1.295410719896606666e-01
3.220000000000000284e+01,1.264517122348769174e-01
3.224000000000000199e+01,1.263817542429603313e-01
3.228000000000000114e+01,1.153104641862174318e-01
3.232000000000000028e+01,1.104941281449946938e-01
3.235999999999999943e+01,1.080500808135147761e-01
3.239999999999999858e+01,8.403522342774043252e-02
3.243999999999999773e+01,7.339353608497888037e-02
3.247999999999999687e+01,8.389034710037820974e-02
3.252000000000000313e+01,6.224687007201498007e-02
3.256000000000000227e+01,6.993862612263747336e-02
3.260000000000000142e+01,5.541245753490375153e-02
3.264000000000000057e+01,6.633885595490983389e-02
3.267999999999999972e+01,7.704909393403672202e-02
3.271999999999999886e+01,6.079592609580195678e-02
3.275999999999999801e+01,6.309280823057465681e-02
3.279999999999999716e+01,5.352553400713663811e-02
3.284000000000000341e+01,5.172312894713407966e-02
3.288000000000000256e+01,4.517478432188215542e-02
3.292000000000000171e+01,6.213766907593473721e-02
3.296000000000000085e+01,5.364706851882201921e-02
3.300000000000000000e+01,1.010232336459801900e-01
3.303999999999999915e+01,9.231600277971330204e-02
3.307999999999999829e+01,7.217601736809994839e-02
3.311999999999999744e+01,4.427023760040714462e-02
3.315999999999999659e+01,4.526827225852374931e-02
3.320000000000000284e+01,4.475591501123142579e-02
3.324000000000000199e+01,5.287123361497806512e-02
3.328000000000000114e+01,3.812150381068189764e-02
3.332000000000000028e+01,4.925573517230245196e-02
3.335999999999999943e+01,4.162328472082386238e-02
3.339999999999999858e+01,5.793346163417038147e-02
3.343999999999999773e+01,4.749592253729072872e-02
3.347999999999999687e+01,5.431419812154520549e-02
3.352000000000000313e+01,5.919066850549556391e-02
3.356000000000000227e+01,4.551615683457582717e-02
3.360000000000000142e+01,4.801893962052058984e-02
3.364000000000000057e+01,4.556006471173733308e-02
3.367999999999999972e+01,7.027936559308842202e-02
3.371999999999999886e+01,5.444591562927989653e-02
3.375999999999999801e+01,6.492782558237750190e-02
3.379999999999999716e+01,7.821340385948899465e-02
3.384000000000000341e+01,8.179184173192967366e-02
3.388000000000000256e+01,7.199617747949491053e-02
3.392000000000000171e+01,1.003795672885894052e-01
3.396000000000000085e+01,1.171144821264525904e-01
3.400000000000000000e+01,1.228480319843337776e-01
3.403999999999999915e+01,1.374249459694519004e-01
3.407999999999999829e+01,1.375492360744874631e-01
3.411999999999999744e+01,1.404771883797871768e-01
3.415999999999999659e+01,1.466402092910275845e-01
3.420000000000000284e+01,1.672548844925199896e-01
3.424000000000000199e+01,1.401985805738605595e-01
3.428000000000000114e+01,1.696561286011904202e-01
3.432000000000000028e+01,1.559724712744574582e-01
3.435999999999999943e+01,1.617016476442733608e-01
3.439999999999999858e+01,1.508211581545299551e-01
3.443999999999999773e+01,1.500782466507723789e-01
3.447999999999999687e+01,1.631398733222675090e-01
3.452000000000000313e+01,1.561405744686341912e-01
3.456000000000000227e+01,1.392184178463200528e-01
3.460000000000000142e+01,1.371793150307159259e-01
3.464000000000000057e+01,1.360025321941281395e-01
3.467999999999999972e+01,1.371979936700967462e-01
3.471999999999999886e+01,1.299805194145185194e-01
3.475999999999999801e+01,1.132715907340612754e-01
3.479999999999999716e+01,1.159754873299969069e-01
3.484000000000000341e+01,1.037953383307987226e-01
3.488000000000000256e+01,9.549735491582211910e-02
3.492000000000000171e+01,8.590465026585386576e-02
3.496000000000000085e+01,8.364536703833284903e-02
3.500000000000000000e+01,7.664010367571950921e-02
3.503999999999999915e+01,8.710632872653251146e-02
3.507999999999999829e+01,8.182568924710854896e-02
3.511999999999999744e+01,8.344706095711140748e-02
3.515999999999999659e+01,9.197044309107253734e-02
3.520000000000000284e+01,8.582547632625386891e-02
3.524000000000000199e+01,8.377837184201095133e-02
3.528000000000000114e+01,8.949608982761075859e-02
3.532000000000000028e+01,9.499759685139501364e-02
3.535999999999999943e+01,9.791015270659532421e-02
3.539999999999999858e+01,9.391968491628915894e-02
3.543999999999999773e+01,9.941966521853233540e-02
3.547999999999999687e+01,1.081546888662480582e-01
3.552000000000000313e+01,1.086924650586149482e-01
3.556000000000000227e+01,9.434618187741081186e-02
3.560000000000000142e+01,1.065309269871237280e-01
3.564000000000000057e+01,1.297160414610511736e-01
3.567999999999999972e+01,1.263691006440760822e-01
3.571999999999999886e+01,1.247472734807522216e-01
3.575999999999999801e+01,1.319687775295098064e-01
3.579999999999999716e+01,1.396211721875451617e-01
3.584000000000000341e+01,1.485672710316801037e-01
3.588000000000000256e+01,1.553558159272831196e-01
3.592000000000000171e+01,1.856555327920355603e-01
3.596000000000000085e+01,1.896388925931769831e-01
3.600000000000000000e+01,1.972886929598428596e-01
3.603999999999999915e+01,1.859560566414316940e-01
3.607999999999999829e+01,1.983502928158678846e-01
3.611999999999999744e+01,2.193721497275940846e-01
3.615999999999999659e+01,2.263727501260091590e-01
3.620000000000000284e+01,2.428637840730675790e-01
3.624000000000000199e+01,2.222532763195992911e-01
3.628000000000000114e+01,2.421945169063045300e-01
3.632000000000000028e+01,2.438004262063698524e-01
3.635999999999999943e+01,2.270710034543263478e-01
3.639999999999999858e+01,2.284601538464902382e-01
3.643999999999999773e+01,2.231619642765333145e-01
3.647999999999999687e+01,2.210987989153305744e-01
3.652000000000000313e+01,1.987589661699899479e-01
3.656000000000000227e+01,1.964790357771359630e-01
3.660000000000000142e+01,2.026110133503747357e-01
3.664000000000000057e+01,1.783282527211527690e-01
3.667999999999999972e+01,1.654772487251036928e-01
3.671999999999999886e+01,1.651365185246222167e-01
3.675999999999999801e+01,1.313611976272562043e-01
3.679999999999999716e+01,1.318822111373621764e-01
3.684000000000000341e+01,1.352068347958584327e-01
3.688000000000000256e+01,1.337854423422319139e-01
3.692000000000000171e+01,9.979227047213670709e-02
3.696000000000000085e+01,9.966402277649318020e-02
3.700000000000000000e+01,9.975093914049268373e-02
3.703999999999999915e+01,8.991495027674996365e-02
3.707999999999999829e+01,8.698093509446623572e-02
3.711999999999999744e+01,1.034597007913887895e-01
3.715999999999999659e+01,8.693527530788495994e-02
3.720000000000000284e+01,6.954749212881700116e-02
3.724000000000000199e+01,6.661130506437733245e-02
3.728000000000000114e+01,6.626301614259910711e-02
3.732000000000000028e+01,6.009018476067867764e-02
3.735999999999999943e+01,6.707472568354418130e-02
3.739999999999999858e+01,5.831235767898607786e-02
3.743999999999999773e+01,5.170647758406923811e-02
3.747999999999999687e+01,4.833560256118828169e-02
3.752000000000000313e+01,4.043440276425756125e-02
3.756000000000000227e+01,4.461205351690562815e-02
3.760000000000000142e+01,5.331892855861952718e-02
3.764000000000000057e+01,5.382851557514176100e-02
3.767999999999999972e+01,4.657222097214891443e-02
3.771999999999999886e+01,3.586411569562612117e-02
3.775999999999999801e+01,2.860671371843077557e-02
3.779999999999999716e+01,4.335052263434567565e-02
3.784000000000000341e+01,3.479778870763677173e-02
3.788000000000000256e+01,4.673633904409179446e-02
3.792000000000000171e+01,2.373035138606013547e-02
3.796000000000000085e+01,1.582305682093767749e-02
3.800000000000000000e+01,2.172023306981946816e-02
3.803999999999999915e+01,3.969625068265521944e-02
3.807999999999999829e+01,3.653275671578171818e-02
3.811999999999999744e+01,2.452485478137367975e-02
3.815999999999999659e+01,2.912556721153990169e-02
3.820000000000000284e+01,2.854883109796981996e-02
3.824000000000000199e+01,4.716915084490894833e-02
3.828000000000000114e+01,3.343336873501513012e-02
3.832000000000000028e+01,2.077553976658694582e-02
3.835999999999999943e+01,3.680572212746015953e-02
3.839999999999999858e+01,3.040216527143800931e-02
3.843999999999999773e+01,2.874352021521106929e-02
3.847999999999999687e+01,2.082890332910323009e-02
3.852000000000000313e+01,2.413030427903375963e-02
3.856000000000000227e+01,2.980387529105371289e-02
3.860000000000000142e+01,3.547687615839460046e-02
3.864000000000000057e+01,1.440206150457396493e-02
3.867999999999999972e+01,3.776161380311140320e-02
3.871999999999999886e+01,3.437334904954977149e-02
3.875999999999999801e+01,2.214066408095391458e-02
3.879999999999999716e+01,3.773316767921252451e-02
3.884000000000000341e+01,1.298852603788643728e-02
3.888000000000000256e+01,3.612950489073773336e-02
3.892000000000000171e+01,2.971851625170147254e-02
3.896000000000000085e+01,3.085657607381172771e-02
3.900000000000000000e+01,1.063940312485916681e-02
3.903999999999999915e+01,1.781600697880342254e-02
3.907999999999999829e+01,1.528537015167267740e-02
3.911999999999999744e+01,1.253844964319672517e-02
3.915999999999999659e+01,2.143894189440489345e-02
3.920000000000000284e+01,3.551573857264758022e-02
3.924000000000000199e+01,2.888440864373318512e-02
3.928000000000000114e+01,2.376242065618011656e-02
3.932000000000000028e+01,2.640517782612775491e-02
3.935999999999999943e+01,3.422423636123505392e-02
3.939999999999999858e+01,3.168893733479943159e-02
3.943999999999999773e+01,2.893734850326873734e-02
3.947999999999999687e+01,1.755702926383925430e-02
3.952000000000000313e+01,3.637462425412669315e-02
3.956000000000000227e+01,2.973860763090796153e-02
3.960000000000000142e+01,2.029785511384684868e-02
3.964000000000000057e+01,3.328968544947963348e-02
3.967999999999999972e+01,3.204448832497993477e-02
3.971999999999999886e+01,2.497470281221400926e-02
3.975999999999999801e+01,1.013899587555890450e-02
3.979999999999999716e+01,1.363750060384161418e-02
3.984000000000000341e+01,2.813629432212186657e-02
3.988000000000000256e+01,1.739717388871870468e-02
3.992000000000000171e+01,2.261952338254747535e-02
3.996000000000000085e+01,1.662469025598042882e-02
4.000000000000000000e+01,2.853265779586205975e-02
4.003999999999999915e+01,2.469366588738381926e-02
4.007999999999999829e+01,2.710947949349143404e-02
4.011999999999999744e+01,1.938662534519176167e-02
4.015999999999999659e+01,3.431204768406508065e-02
4.020000000000000284e+01,2.680369635995005079e-02
4.024000000000000199e+01,3.266836581244492166e-02
4.028000000000000114e+01,2.710014293522130038e-02
4.032000000000000028e+01,3.166938552007962648e-02
4.035999999999999943e+01,4.486616770254243242e-02
4.039999999999999858e+01,1.794147837771248657e-02
4.043999999999999773e+01,1.711631755093753759e-02
4.047999999999999687e+01,3.074269083582342049e-02
4.052000000000000313e+01,2.430802377527076924e-02
4.056000000000000227e+01,1.830415623321659385e-02
4.060000000000000142e+01,3.904692488406055761e-02
4.064000000000000057e+01,3.951294730748707018e-02
4.067999999999999972e+01,3.738991675498810896e-02
4.071999999999999886e+01,4.065886512728456026e-02
4.075999999999999801e+01,3.227920839866512542e-02
4.079999999999999716e+01,3.576263663108435187e-02
4.084000000000000341e+01,4.118678412272971240e-02
4.088000000000000256e+01,3.021684533445375548e-02
4.092000000000000171e+01,5.958286250640554976e-02
4.096000000000000085e+01,4.537614008533943227e-02
4.100000000000000000e+01,5.144493863530328476e-02
4.103999999999999915e+01,5.384615939225961823e-02
4.107999999999999829e+01,5.603105895990280472e-02
4.111999999999999744e+01,5.411697203245567633e-02
4.115999999999999659e+01,5.371219106933943638e-02
4.120000000000000284e+01,6.107211928669346174e-02
4.124000000000000199e+01,6.347024437026010935e-02
4.128000000000000114e+01,6.565204443716994576e-02
4.132000000000000028e+01,7.732418007272538751e-02
4.135999999999999943e+01,8.899569274625922233e-02
4.139999999999999858e+01,9.894095300772112744e-02
4.143999999999999773e+01,9.162930193040873250e-02
4.147999999999999687e+01,1.067501984942283433e-01
4.152000000000000313e+01,1.272630586734687652e-01
4.156000000000000227e+01,1.430298131807447859e-01
4.160000000000000142e+01,1.864059990864912475e-01
4.164000000000000057e+01,2.084269017002385593e-01
4.167999999999999972e+01,2.468406477317389713e-01
4.171999999999999886e+01,2.748999918045099133e-01
4.175999999999999801e+01,3.107240343411888928e-01
4.179999999999999716e+01,3.974534916908454285e-01
4.184000000000000341e+01,4.923790531446178287e-01
4.188000000000000256e+01,5.914023498111563582e-01
4.192000000000000171e+01,7.046614494469084500e-01
4.196000000000000085e+01,8.261166508903704520e-01
4.200000000000000000e+01,9.264322657381871551e-01
4.203999999999999915e+01,1.000000000000000000e+00
4.207999999999999829e+01,9.808145557250967927e-01
4.211999999999999744e+01,9.676681743403011682e-01
4.215999999999999659e+01,8.619843164734248830e-01
4.220000000000000284e+01,7.358079789402776072e-01
4.224000000000000199e+01,6.337898031889382944e-01
4.228000000000000114e+01,5.183973645642894201e-01
4.232000000000000028e+01,4.336341937576916328e-01
4.235999999999999943e+01,3.333397226911200550e-01
4.239999999999999858e+01,2.882647266669490227e-01
4.243999999999999773e+01,2.412477547429462132e-01
4.247999999999999687e+01,2.041525033601412353e-01
4.252000000000000313e+01,1.730963072127567060e-01
4.256000000000000227e+01,1.446279081661609178e-01
4.260000000000000142e+01,1.237084879230569562e-01
4.264000000000000057e+01,1.174562640418749387e-01
4.267999999999999972e+01,1.017124341730047815e-01
4.271999999999999886e+01,9.567461666694711264e-02
4.275999999999999801e+01,8.920474223631685851e-02
4.279999999999999716e+01,7.669451689075530709e-02
4.284000000000000341e+01,7.022334065686432203e-02
4.288000000000000256e+01,6.439862312985790427e-02
4.292000000000000171e+01,6.633858186816628255e-02
4.296000000000000085e+01,5.447285754905145660e-02
4.300000000000000000e+01,6.611816971112030594e-02
4.303999999999999915e+01,5.727098613207506905e-02
4.307999999999999829e+01,5.187440404501581642e-02
4.311999999999999744e+01,5.532101232379098982e-02
4.315999999999999659e+01,4.949170901482584373e-02
4.320000000000000284e+01,5.617255549549350635e-02
4.324000000000000199e+01,2.704594783204230732e-02
4.328000000000000114e+01,2.897999678653782191e-02
4.332000000000000028e+01,3.285471754119814042e-02
4.335999999999999943e+01,3.651307347482745519e-02
4.339999999999999858e+01,3.607239928164866077e-02
4.343999999999999773e+01,3.110128702504755607e-02
4.347999999999999687e+01,2.936506502017246015e-02
4.352000000000000313e+01,2.547114286223719701e-02
4.356000000000000227e+01,3.732291738830647437e-02
4.360000000000000142e+01,3.105492489799906511e-02
4.364000000000000057e+01,2.974744828212410111e-02
4.367999999999999972e+01,1.894834654184257908e-02
4.371999999999999886e+01,2.281642049582729981e-02
4.375999999999999801e+01,3.164500802783830335e-02
4.379999999999999716e+01,1.933397451811113416e-02
4.384000000000000341e+01,2.859262914457019397e-02
4.388000000000000256e+01,2.598691537797930690e-02
4.392000000000000171e+01,1.949786511905949454e-02
4.396000000000000085e+01,3.004872540289305408e-02
4.400000000000000000e+01,3.218647236643367576e-02
4.403999999999999915e+01,2.720532675764871997e-02
4.407999999999999829e+01,2.977313163001252955e-02
4.411999999999999744e+01,3.622292526332061835e-02
4.415999999999999659e+01,2.369012682139883322e-02
4.420000000000000284e+01,2.107901600551924728e-02
4.424000000000000199e+01,2.601685260891347176e-02
4.428000000000000114e+01,2.189445977701555066e-02
4.432000000000000028e+01,1.884990526627322582e-02
4.435999999999999943e+01,2.486422097740737316e-02
4.439999999999999858e+01,2.268111929913388738e-02
4.443999999999999773e+01,2.265437157347323024e-02
4.447999999999999687e+01,1.680294436876714204e-02
4.452000000000000313e+01,2.475586320666184337e-02
4.456000000000000227e+01,3.659076238534467868e-02
4.460000000000000142e+01,2.836454314077818673e-02
4.464000000000000057e+01,1.711778796773632746e-02
4.467999999999999972e+01,2.679359409931911240e-02
4.471999999999999886e+01,2.805627313217170377e-02
4.475999999999999801e+01,2.435708166998844584e-02
4.479999999999999716e+01,1.591172253287330765e-02
4.484000000000000341e+01,1.954507463002758128e-02
4.488000000000000256e+01,2.792321528651091345e-02
4.492000000000000171e+01,3.328081465623771579e-02
4.496000000000000085e+01,1.987151022693275579e-02
4.500000000000000000e+01,1.810950679887681283e-02
4.503999999999999915e+01,3.166176456133693029e-02
4.507999999999999829e+01,2.364296961591405566e-02
4.511999999999999744e+01,3.266406301465134276e-02
4.515999999999999659e+01,2.809513484075783565e-02
4.520000000000000284e+01,2.611395324671655568e-02
4.524000000000000199e+01,2.434777802575933264e-02
4.528000000000000114e+01,2.236520124127190992e-02
4.532000000000000028e+01,2.555881176710288888e-02
4.535999999999999943e+01,3.004594429747513284e-02
4.539999999999999858e+01,2.137445783354950321e-02
4.543999999999999773e+01,2.521307829300761458e-02
4.547999999999999687e+01,2.171707503769311140e-02
4.552000000000000313e+01,2.620140187779831584e-02
4.556000000000000227e+01,2.421391781448416561e-02
4.560000000000000142e+01,2.718691211763468035e-02
4.564000000000000057e+01,2.886498004017294672e-02
4.567999999999999972e+01,3.140515667235718039e-02
4.571999999999999886e+01,1.992389384420293133e-02
4.575999999999999801e+01,2.483539635599101361e-02
4.579999999999999716e+01,2.349078695712007378e-02
4.584000000000000341e+01,2.645954057518321717e-02
4.588000000000000256e+01,3.180032417455753296e-02
4.592000000000000171e+01,2.980647563900315836e-02
4.596000000000000085e+01,1.335977587915251029e-02
4.600000000000000000e+01,2.883649502766555753e-02
4.603999999999999915e+01,1.842807138559224636e-02
4.607999999999999829e+01,3.368766113933708423e-02
4.611999999999999744e+01,2.974891772431159306e-02
4.615999999999999659e+01,3.228056705819720706e-02
4.620000000000000284e+01,3.524290797948986115e-02
4.624000000000000199e+01,2.612513175950478134e-02
4.628000000000000114e+01,4.138114359455809244e-02
4.632000000000000028e+01,3.463467182105231523e-02
4.635999999999999943e+01,4.492806466217589417e-02
4.639999999999999858e+01,5.069096279519102327e-02
4.643999999999999773e+01,4.588366505859349520e-02
4.647999999999999687e+01,4.603682884814844223e-02
4.652000000000000313e+01,4.316942073219755260e-02
4.656000000000000227e+01,5.130217300749698867e-02
4.660000000000000142e+01,5.533583391848963251e-02
4.664000000000000057e+01,5.160344174497099451e-02
4.667999999999999972e+01,6.016542917973270038e-02
4.671999999999999886e+01,6.721676598065368102e-02
4.675999999999999801e+01,6.089375417576721461e-02
4.679999999999999716e+01,6.190393721458292003e-02
4.684000000000000341e+01,5.859932071070678150e-02
4.688000000000000256e+01,6.413782261860422051e-02
4.692000000000000171e+01,5.975323022798230410e-02
4.696000000000000085e+01,5.730923997987032170e-02
4.700000000000000000e+01,4.753059692917390583e-02
4.703999999999999915e+01,4.875210508410303401e-02
4.707999999999999829e+01,4.328606966222824093e-02
4.711999999999999744e+01,4.925159108618697851e-02
4.715999999999999659e+01,4.464690286209586911e-02
4.720000000000000284e+01,4.780680899816504292e-02
4.724000000000000199e+01,4.708331510800038006e-02
4.728000000000000114e+01,4.204501325498778003e-02
4.732000000000000028e+01,3.937871382641192075e-02
4.735999999999999943e+01,4.879107740757519796e-02
4.739999999999999858e+01,4.180922993741365001e-02
4.743999999999999773e+01,3.698367900970991884e-02
4.747999999999999687e+01,3.064746290425962583e-02
4.752000000000000313e+01,4.113538562927272074e-02
4.756000000000000227e+01,4.515145917742983961e-02
4.760000000000000142e+01,4.010723975638990496e-02
4.764000000000000057e+01,5.663263575200647160e-02
4.767999999999999972e+01,4.209597151907394641e-02
4.771999999999999886e+01,4.654047814498812191e-02
4.775999999999999801e+01,5.033712857716531736e-02
4.779999999999999716e+01,3.471971010531261365e-02
4.784000000000000341e+01,4.671160361880809242e-02
4.788000000000000256e+01,5.136882748940692356e-02
4.792000000000000171e+01,3.208220486254313719e-02
4.796000000000000085e+01,2.854119471812322992e-02
4.800000000000000000e+01,3.233335645334358549e-02
4.803999999999999915e+01,3.439913870868233775e-02
4.807999999999999829e+01,4.595512716845070317e-02
4.811999999999999744e+01,4.305822306861126908e-02
4.815999999999999659e+01,4.727878420096439521e-02
4.820000000000000284e+01,4.632170542239796157e-02
4.824000000000000199e+01,3.393158198583516583e-02
4.828000000000000114e+01,2.714899638604988466e-02
4.832000000000000028e+01,3.568060920834457972e-02
4.835999999999999943e+01,4.334865076929850236e-02
4.839999999999999858e+01,3.332824062877315363e-02
4.843999999999999773e+01,4.013195171293035268e-02
4.847999999999999687e+01,3.097283824925225332e-02
4.852000000000000313e+01,3.993206599275544305e-02
4.856000000000000227e+01,4.910623657543771586e-02
4.860000000000000142e+01,2.959106876508969461e-02
4.864000000000000057e+01,3.617527253170633311e-02
4.867999999999999972e+01,3.477768058933359413e-02
4.871999999999999886e+01,4.912568658549885253e-02
4.875999999999999801e+01,4.945219494570191054e-02
4.879999999999999716e+01,5.668045270502508615e-02
4.884000000000000341e+01,5.420128300890249967e-02
4.888000000000000256e+01,5.042712492920025519e-02
4.892000000000000171e+01,6.908537211344582818e-02
4.896000000000000085e+01,6.466256724033246639e-02
4.900000000000000000e+01,7.123987606487669488e-02
4.903999999999999915e+01,6.120723886830530674e-02
4.907999999999999829e+01,6.239041742402680335e-02
4.911999999999999744e+01,4.782646276998595708e-02
4.915999999999999659e+01,5.116513349005395034e-02
4.920000000000000284e+01,5.018895950477478274e-02
4.924000000000000199e+01,4.036816475165327933e-02
4.928000000000000114e+01,3.076229905927361716e-02
4.932000000000000028e+01,3.086231942736564551e-02
4.935999999999999943e+01,3.678556055015205772e-02
4.939999999999999858e+01,2.329470215015926049e-02
4.943999999999999773e+01,3.051061037843914164e-02
4.947999999999999687e+01,2.586204304804655754e-02
4.952000000000000313e+01,1.797714281642045706e-02
4.956000000000000227e+01,3.597589297040543199e-02
4.960000000000000142e+01,2.916795013495017408e-02
4.964000000000000057e+01,1.998648644414606143e-02
4.967999999999999972e+01,1.662823738428639148e-02
4.971999999999999886e+01,2.297586673021109055e-02
4.975999999999999801e+01,2.953841595125286656e-02
4.979999999999999716e+01,2.466789066101766903e-02
4.984000000000000341e+01,3.662145980405941831e-02
4.988000000000000256e+01,2.829810589640632812e-02
4.992000000000000171e+01,2.299381541444049312e-02
4.996000000000000085e+01,2.890532384445536340e-02
5.000000000000000000e+01,1.691264636866881763e-02
5.003999999999999915e+01,2.843087065156896590e-02
5.007999999999999829e+01,2.830031147933835881e-02
5.011999999999999744e+01,3.507147644575971113e-02
5.015999999999999659e+01,2.760541339924050402e-02
5.020000000000000284e+01,3.351218052761650856e-02
5.024000000000000199e+01,3.380986153502222452e-02
5.028000000000000114e+01,2.526290187239845636e-02
5.032000000000000028e+01,2.901025216040025931e-02
5.035999999999999943e+01,1.959888853598132710e-02
5.039999999999999858e+01,2.463886918697740652e-02
5.043999999999999773e+01,2.040279893492370419e-02
5.047999999999999687e+01,2.306844593230339066e-02
5.052000000000000313e+01,2.141922296386775462e-02
5.056000000000000227e+01,3.184860176767258938e-02
5.060000000000000142e+01,2.027541505776390626e-02
5.064000000000000057e+01,3.480156165138321989e-02
5.067999999999999972e+01,3.314913801081421918e-02
5.071999999999999886e+01,2.178925093776893501e-02
5.075999999999999801e+01,2.337077615191128152e-02
5.079999999999999716e+01,3.012838380715553849e-02
5.084000000000000341e+01,2.911985800367156499e-02
5.088000000000000256e+01,2.056090156156322943e-02
5.092000000000000171e+01,3.572853362340215611e-02
5.096000000000000085e+01,3.126633272360865995e-02
5.100000000000000000e+01,2.745043514054686107e-02
5.103999999999999915e+01,3.269327994608309945e-02
5.107999999999999829e+01,3.922953729413169999e-02
5.111999999999999744e+01,3.045003033012671709e-02
5.115999999999999659e+01,3.202348497174971331e-02
5.120000000000000284e+01,2.475228133756234711e-02
5.124000000000000199e+01,3.365803458852818786e-02
5.128000000000000114e+01,1.905128421380319209e-02
5.132000000000000028e+01,2.622978241818388692e-02
5.135999999999999943e+01,2.326939777144319127e-02
5.139999999999999858e+01,2.052390161560151485e-02
5.143999999999999773e+01,2.058173621206248541e-02
5.147999999999999687e+01,2.301149362421200939e-02
5.152000000000000313e+01,2.500902647413625474e-02
5.156000000000000227e+01,2.010322642918582411e-02
5.160000000000000142e+01,3.137437638017000902e-02
5.164000000000000057e+01,2.689834489686161734e-02
5.167999999999999972e+01,3.428519016709650341e-02
5.171999999999999886e+01,2.916040625569183906e-02
5.175999999999999801e+01,2.511331828825834681e-02
5.179999999999999716e+01,1.502570717542851299e-02
5.184000000000000341e+01,2.219355939358438889e-02
5.188000000000000256e+01,2.547792279113331865e-02
5.192000000000000171e+01,2.487879660260664677e-02
5.196000000000000085e+01,3.506402388147864674e-02
5.200000000000000000e+01,2.756073056668532917e-02
5.203999999999999915e+01,2.242934935101824692e-02
5.207999999999999829e+01,2.463106193718058584e-02
5.211999999999999744e+01,1.928232015518789935e-02
5.215999999999999659e+01,2.385511367095945884e-02
5.220000000000000284e+01,3.015270546726424306e-02
5.224000000000000199e+01,2.609569398656282763e-02
5.228000000000000114e+01,2.678332945347484256e-02
5.232000000000000028e+01,2.294035692290584058e-02
5.235999999999999943e+01,2.988173020504816466e-02
5.239999999999999858e+01,3.746938001251669259e-02
5.243999999999999773e+01,2.607427929272753894e-02
5.247999999999999687e+01,2.028663603549899636e-02
5.252000000000000313e+01,2.398911401567075177e-02
5.256000000000000227e+01,3.675030529662866308e-02
5.260000000000000142e+01,3.462711111433518230e-02
5.264000000000000057e+01,2.344352751378429855e-02
5.267999999999999972e+01,3.037820551166643679e-02
5.271999999999999886e+01,2.070286706530945903e-02
5.275999999999999801e+01,2.116475602025844061e-02
5.279999999999999716e+01,3.003824292646319061e-02
5.284000000000000341e+01,3.610674056867483467e-02
5.288000000000000256e+01,2.664373663263591360e-02
5.292000000000000171e+01,2.257247815342882172e-02
5.296000000000000085e+01,2.475577870787554896e-02
5.300000000000000000e+01,3.707630207081582391e-02
5.303999999999999915e+01,2.200162358713257313e-02
5.307999999999999829e+01,3.863452493827455869e-02
5.311999999999999744e+01,2.830363008300092534e-02
5.315999999999999659e+01,2.983558365892746700e-02
5.320000000000000284e+01,2.726831956820622779e-02
5.324000000000000199e+01,2.383739082895883557e-02
5.328000000000000114e+01,2.407257197274314739e-02
5.332000000000000028e+01,2.862097299080848187e-02
5.335999999999999943e+01,2.626600666790608260e-02
5.339999999999999858e+01,2.887136944506530842e-02
5.343999999999999773e+01,2.651469562047364600e-02
5.347999999999999687e+01,3.192249597745108053e-02
5.352000000000000313e+01,3.430959047189432315e-02
5.356000000000000227e+01,3.712723570749779795e-02
5.360000000000000142e+01,3.174728749588495713e-02
5.364000000000000057e+01,1.838544865715985993e-02
5.367999999999999972e+01,1.645504112739597929e-02
5.371999999999999886e+01,3.113295019486924525e-02
5.375999999999999801e+01,2.100408666415407716e-02
5.379999999999999716e+01,2.618931668630235243e-02
5.384000000000000341e+01,2.468687376743086345e-02
5.388000000000000256e+01,3.245882247445001229e-02
5.392000000000000171e+01,2.815050707019457407e-02
5.396000000000000085e+01,2.470414192355740307e-02
5.400000000000000000e+01,1.953128324219740447e-02
5.403999999999999915e+01,3.355517806119689278e-02
5.407999999999999829e+01,2.212518340154003005e-02
5.411999999999999744e+01,3.269608732375024751e-02
5.415999999999999659e+01,2.493131856026546342e-02
5.420000000000000284e+01,2.600952812777600209e-02
5.424000000000000199e+01,3.291086506279566198e-02
5.428000000000000114e+01,2.428067362815901700e-02
5.432000000000000028e+01,2.147360803009389432e-02
5.435999999999999943e+01,2.729381411557656179e-02
5.439999999999999858e+01,3.807433016440250201e-02
5.443999999999999773e+01,2.685220721451655329e-02
5.447999999999999687e+01,3.439542217368865562e-02
5.452000000000000313e+01,2.942695436840985640e-02
5.456000000000000227e+01,1.733939267252867372e-02
5.460000000000000142e+01,3.221390284106163959e-02
5.464000000000000057e+01,2.163451281437604734e-02
5.467999999999999972e+01,3.068327121169554805e-02
5.471999999999999886e+01,2.355338206248477201e-02
5.475999999999999801e+01,2.461934977098903174e-02
5.479999999999999716e+01,2.525303014883192518e-02
5.484000000000000341e+01,3.386686226787971599e-02
5.488000000000000256e+01,3.385166927356645511e-02
5.492000000000000171e+01,2.326611813026913111e-02
5.496000000000000085e+01,2.864174909796009597e-02
5.500000000000000000e+01,3.487931042108218666e-02
5.503999999999999915e+01,3.378206508240447214e-02
5.507999999999999829e+01,2.966408402791197857e-02
5.511999999999999744e+01,3.827172823894244014e-02
5.515999999999999659e+01,3.954456349176686814e-02
5.520000000000000284e+01,3.650243921893416010e-02
5.524000000000000199e+01,3.604786939330172080e-02
5.528000000000000114e+01,2.933700624092053233e-02
5.532000000000000028e+01,2.327236373464786415e-02
5.535999999999999943e+01,3.230608134238539819e-02
5.539999999999999858e+01,4.565297902002983521e-02
5.543999999999999773e+01,4.368402971499750487e-02
5.547999999999999687e+01,2.661493624739231720e-02
5.552000000000000313e+01,3.370375042597541226e-02
5.556000000000000227e+01,3.928174480212784370e-02
5.560000000000000142e+01,3.666210745762733814e-02
5.564000000000000057e+01,3.964986710365746986e-02
5.567999999999999972e+01,3.357717915580651219e-02
5.571999999999999886e+01,4.023010499144751007e-02
5.575999999999999801e+01,3.566554584654293980e-02
5.579999999999999716e+01,4.792496708007411982e-02
5.584000000000000341e+01,3.861312969463309014e-02
5.588000000000000256e+01,4.288971737309986432e-02
5.592000000000000171e+01,4.694969987335349121e-02
5.596000000000000085e+01,4.216493300701753405e-02
5.600000000000000000e+01,3.716355943153091396e-02
5.603999999999999915e+01,4.402497917349566803e-02
5.607999999999999829e+01,4.117883291017392783e-02
5.611999999999999744e+01,5.213681070352026159e-02
5.615999999999999659e+01,5.209299944720642561e-02
5.620000000000000284e+01,5.075405972653491277e-02
5.624000000000000199e+01,6.127790949597103354e-02
5.628000000000000114e+01,7.093803644125726282e-02
5.632000000000000028e+01,6.851785334714495523e-02
5.635999999999999943e+01,7.299927497856230352e-02
5.639999999999999858e+01,6.216483125605322402e-02
5.643999999999999773e+01,6.837005925005273932e-02
5.647999999999999687e+01,7.673141079057649305e-02
5.652000000000000313e+01,7.603229866237566636e-02
5.656000000000000227e+01,7.101820098258078418e-02
5.660000000000000142e+01,8.304377195741965978e-02
5.664000000000000057e+01,8.104769449895582456e-02
5.667999999999999972e+01,7.840359014722757258e-02
5.671999999999999886e+01,7.899412267707447977e-02
5.675999999999999801e+01,8.195647698073718623e-02
5.679999999999999716e+01,8.297658058129298020e-02
5.684000000000000341e+01,7.148495702021134823e-02
5.688000000000000256e+01,6.926766767486540466e-02
5.692000000000000171e+01,6.963790062703290040e-02
5.696000000000000085e+01,7.345846945353592949e-02
5.700000000000000000e+01,7.274834072271620100e-02
5.703999999999999915e+01,6.923314235368639713e-02
5.707999999999999829e+01,6.248146640983251454e-02
5.711999999999999744e+01,5.853301252172114777e-02
5.715999999999999659e+01,5.932911219403783076e-02
5.720000000000000284e+01,7.479212959765754731e-02
5.724000000000000199e+01,6.005571816799172569e-02
5.728000000000000114e+01,6.149614803770043353e-02
5.732000000000000028e+01,4.546365909197492422e-02
5.735999999999999943e+01,4.625512067140448436e-02
5.739999999999999858e+01,3.798610174179744420e-02
5.743999999999999773e+01,4.050133141037257078e-02
5.747999999999999687e+01,4.129000094844510055e-02
5.752000000000000313e+01,4.682321715772711640e-02
5.756000000000000227e+01,4.329594979609745209e-02
5.760000000000000142e+01,3.955204510656783190e-02
5.764000000000000057e+01,4.119979554855952159e-02
5.767999999999999972e+01,4.543505374415878623e-02
5.771999999999999886e+01,4.104123247811690411e-02
5.775999999999999801e+01,3.750928875016351638e-02
5.779999999999999716e+01,4.303595804659228474e-02
5.784000000000000341e+01,4.618894956658174678e-02
5.788000000000000256e+01,3.963434063519168798e-02
5.792000000000000171e+01,3.545153127902413159e-02
5.796000000000000085e+01,3.515044583161910235e-02
5.800000000000000000e+01,2.967153293345487636e-02
5.803999999999999915e+01,3.519256073701457904e-02
5.807999999999999829e+01,3.726138824345918976e-02
5.811999999999999744e+01,3.221105373258413562e-02
5.815999999999999659e+01,4.139621141061717441e-02
5.820000000000000284e+01,2.901006530702277680e-02
5.824000000000000199e+01,3.431066723056212103e-02
5.828000000000000114e+01,3.702187937193336664e-02
5.832000000000000028e+01,4.318340136170325388e-02
5.835999999999999943e+01,3.510753841744224807e-02
5.839999999999999858e+01,2.530509773689777406e-02
5.843999999999999773e+01,4.138613750790565149e-02
5.847999999999999687e+01,3.438594303999613355e-02
5.852000000000000313e+01,3.471871913344993371e-02
5.856000000000000227e+01,3.181498932973651772e-02
5.860000000000000142e+01,3.624422855644905683e-02
5.864000000000000057e+01,3.484851732818453063e-02
5.867999999999999972e+01,3.474607320337306376e-02
5.871999999999999886e+01,3.636830258769135904e-02
5.875999999999999801e+01,3.345980073406257943e-02
5.879999999999999716e+01,3.098174934518988649e-02
5.884000000000000341e+01,2.742422255659575717e-02
5.888000000000000256e+01,4.133772796206294786e-02
5.892000000000000171e+01,3.497413732090159239e-02
5.896000000000000085e+01,2.515832954231295507e-02
5.900000000000000000e+01,3.540199468825178802e-02
5.903999999999999915e+01,3.183966905833660738e-02
5.907999999999999829e+01,3.431608175978643344e-02
5.911999999999999744e+01,3.528160653208832487e-02
5.915999999999999659e+01,3.279491033961918350e-02
5.920000000000000284e+01,2.254192070545654389e-02
5.924000000000000199e+01,2.134751653880166689e-02
5.928000000000000114e+01,2.079925723685077318e-02
5.932000000000000028e+01,4.052616832125009727e-02
5.935999999999999943e+01,3.005361000252104731e-02
5.939999999999999858e+01,2.712970899041593914e-02
5.943999999999999773e+01,3.218587169061143394e-02
5.947999999999999687e+01,3.141706786098646259e-02
5.952000000000000313e+01,3.366714374455279102e-02
5.956000000000000227e+01,2.469966192804388602e-02
5.960000000000000142e+01,2.996764474356873251e-02
5.964000000000000057e+01,2.703791852609862406e-02
5.967999999999999972e+01,2.885269764452630045e-02
5.971999999999999886e+01,3.282353830651077442e-02
5.975999999999999801e+01,1.996852421618641391e-02
5.979999999999999716e+01,3.062422511017787868e-02
5.984000000000000341e+01,2.294414462191420034e-02
5.988000000000000256e+01,2.345982301136774473e-02
5.992000000000000171e+01,2.375881967573481926e-02
5.996000000000000085e+01,2.491965177741006093e-02
