2.003999999999999915e+01,1.111228213802420567e-01
2.007999999999999829e+01,8.569800442854733080e-02
2.012000000000000099e+01,6.537869804735117751e-02
2.016000000000000014e+01,1.034403460441799538e-01
2.019999999999999929e+01,6.430171342882406993e-02
2.023999999999999844e+01,5.419467759061951523e-02
2.028000000000000114e+01,8.396573253963486583e-02
2.032000000000000028e+01,7.832741405047832783e-02
2.035999999999999943e+01,8.353684340779624073e-02
2.039999999999999858e+01,9.257569365430259878e-02
2.044000000000000128e+01,7.609461162351745245e-02
2.048000000000000043e+01,7.747958665890533614e-02
2.051999999999999957e+01,7.663269073779506446e-02
2.055999999999999872e+01,8.121027126894196646e-02
2.060000000000000142e+01,5.994888712507830814e-02
2.064000000000000057e+01,1.021726387085802185e-01
2.067999999999999972e+01,5.507349938214238516e-02
2.071999999999999886e+01,6.125101779007360858e-02
2.076000000000000156e+01,7.955229834103469400e-02
2.080000000000000071e+01,7.807587058749587694e-02
2.083999999999999986e+01,9.956969455265843316e-02
2.087999999999999901e+01,7.895477513533373515e-02
2.092000000000000171e+01,5.706498439793512151e-02
2.096000000000000085e+01,6.707784255972464027e-02
2.100000000000000000e+01,5.316577966332144967e-02
2.103999999999999915e+01,4.946335990838177099e-02
2.107999999999999829e+01,8.659598623311628995e-02
2.112000000000000099e+01,7.874871062779957576e-02
2.116000000000000014e+01,9.291460728561452831e-02
2.119999999999999929e+01,8.347457537338368039e-02
2.123999999999999844e+01,8.296810579010574505e-02
2.128000000000000114e+01,8.182475429744406892e-02
2.132000000000000028e+01,3.602049336287761055e-02
2.135999999999999943e+01,8.368866638887645371e-02
2.139999999999999858e+01,8.222971586233777941e-02
2.144000000000000128e+01,5.652678083910892687e-02
2.148000000000000043e+01,9.207578579998974833e-02
2.151999999999999957e+01,8.934415234960761676e-02
2.155999999999999872e+01,6.938684362223332402e-02
2.160000000000000142e+01,7.622787828159427459e-02
2.164000000000000057e+01,6.775731675595710046e-02
2.167999999999999972e+01,5.769278499657218978e-02
2.171999999999999886e+01,5.018146915075018949e-02
2.176000000000000156e+01,6.819242031354978695e-02
2.180000000000000071e+01,6.610653765179350105e-02
2.183999999999999986e+01,2.956815702517459968e-02
2.187999999999999901e+01,5.172955475764477729e-02
2.192000000000000171e+01,7.835823419248094668e-02
2.196000000000000085e+01,6.893932905860664095e-02
2.200000000000000000e+01,3.878553860792918057e-02
2.203999999999999915e+01,6.828855275914692824e-02
2.207999999999999829e+01,6.365805699925146388e-02
2.212000000000000099e+01,3.063631077620974918e-02
2.216000000000000014e+01,6.747982497607507568e-02
2.219999999999999929e+01,6.189543479822166849e-02
2.223999999999999844e+01,5.248390968414348018e-02
2.228000000000000114e+01,6.955163791192031653e-02
2.232000000000000028e+01,6.046119612548530448e-02
2.235999999999999943e+01,6.668448570751478455e-02
2.239999999999999858e+01,6.014821213205427675e-02
2.244000000000000128e+01,6.637354377521401116e-02
2.248000000000000043e+01,4.133645310447213450e-02
2.251999999999999957e+01,6.510961537839683733e-02
2.255999999999999872e+01,5.666330248923273638e-02
2.260000000000000142e+01,4.279474145361449738e-02
2.264000000000000057e+01,9.815335830787703941e-02
2.267999999999999972e+01,6.961211175458360823e-02
2.271999999999999886e+01,5.478948335952531917e-02
2.276000000000000156e+01,5.591857130922417429e-02
2.280000000000000071e+01,4.269297845680705694e-02
2.283999999999999986e+01,5.403248890389907022e-02
2.287999999999999901e+01,6.633001336638490175e-02
2.292000000000000171e+01,7.448131284776615679e-02
2.296000000000000085e+01,3.892856505736083661e-02
2.300000000000000000e+01,8.951073223422399694e-02
2.303999999999999915e+01,4.119930706778582308e-02
2.307999999999999829e+01,7.487559741811526670e-02
2.312000000000000099e+01,8.685983430813197514e-02
2.316000000000000014e+01,3.663715146675965845e-02
2.319999999999999929e+01,6.425498025725642770e-02
2.323999999999999844e+01,5.646311189860248742e-02
2.328000000000000114e+01,6.653699019833286821e-02
2.332000000000000028e+01,8.777730285929309650e-02
2.335999999999999943e+01,6.914169982607293319e-02
2.339999999999999858e+01,6.390562490620742275e-02
2.344000000000000128e+01,6.696483910319914190e-02
2.348000000000000043e+01,7.066298613949846541e-02
2.351999999999999957e+01,4.724578614928280629e-02
2.355999999999999872e+01,4.392740439759197646e-02
2.360000000000000142e+01,4.635217674411969829e-02
2.364000000000000057e+01,4.558768827079114766e-02
2.367999999999999972e+01,3.684871464123951751e-02
2.371999999999999886e+01,3.895711636881651202e-02
2.376000000000000156e+01,5.223190367925648753e-02
2.380000000000000071e+01,7.061179359566688296e-02
2.383999999999999986e+01,6.506644761170003732e-02
2.387999999999999901e+01,2.825852410993778471e-02
2.392000000000000171e+01,7.248117902221243303e-02
2.396000000000000085e+01,4.428835639095610177e-02
2.400000000000000000e+01,2.917598069696890686e-02
2.403999999999999915e+01,4.788000041439034044e-02
2.407999999999999829e+01,3.500240578190037810e-02
2.412000000000000099e+01,5.945035895346972160e-02
2.416000000000000014e+01,2.902861871674656744e-02
2.419999999999999929e+01,5.092610644146135235e-02
2.423999999999999844e+01,4.953634324209169743e-02
2.428000000000000114e+01,5.580374671697958811e-02
2.432000000000000028e+01,6.494309252975806468e-02
2.435999999999999943e+01,3.420641178843172869e-02
2.439999999999999858e+01,5.323681955550785272e-02
2.444000000000000128e+01,7.896733227885972817e-02
2.448000000000000043e+01,7.088308368741105814e-02
2.451999999999999957e+01,4.429677303306897573e-02
2.455999999999999872e+01,7.832403159400697090e-02
2.460000000000000142e+01,4.759209350421411688e-02
2.464000000000000057e+01,5.514268955171398867e-02
2.467999999999999972e+01,2.568835551111536136e-02
2.471999999999999886e+01,6.418491013122917810e-02
2.476000000000000156e+01,7.014273103628920758e-02
2.480000000000000071e+01,7.163510388345532831e-02
2.483999999999999986e+01,3.006125036243984666e-02
2.487999999999999901e+01,5.484319446389215175e-02
2.492000000000000171e+01,6.080401749835010611e-02
2.496000000000000085e+01,6.166134541706366767e-02
2.500000000000000000e+01,5.613911514511056577e-02
2.503999999999999915e+01,7.262962699978270376e-02
2.507999999999999829e+01,7.795535189302428558e-02
2.512000000000000099e+01,6.350288956689235931e-02
2.516000000000000014e+01,6.181173092038597799e-02
2.519999999999999929e+01,5.916424113346058222e-02
2.523999999999999844e+01,8.969498440577196308e-02
2.528000000000000114e+01,6.695098340733239561e-02
2.532000000000000028e+01,3.431822748160554687e-02
2.535999999999999943e+01,7.729264110939183807e-02
2.539999999999999858e+01,4.466127095404259090e-02
2.544000000000000128e+01,6.115884469251198913e-02
2.548000000000000043e+01,7.510498294912690276e-02
2.551999999999999957e+01,7.214402158358076966e-02
2.555999999999999872e+01,7.524501169093242292e-02
2.560000000000000142e+01,2.666629535301339241e-02
2.564000000000000057e+01,5.560880548861672074e-02
2.567999999999999972e+01,5.392656787882377928e-02
2.571999999999999886e+01,3.916538439646050779e-02
2.576000000000000156e+01,6.268661088827459649e-02
2.580000000000000071e+01,4.728869516808702905e-02
2.583999999999999986e+01,4.943722764474609704e-02
2.587999999999999901e+01,5.892373475965249907e-02
2.592000000000000171e+01,5.341718586921583023e-02
2.596000000000000085e+01,7.470849701624372730e-02
2.600000000000000000e+01,7.526447940677061244e-02
2.603999999999999915e+01,4.168651288088382617e-02
2.607999999999999829e+01,6.393672716122192345e-02
2.612000000000000099e+01,7.119386326423211842e-02
2.616000000000000014e+01,6.281988743525475372e-02
2.619999999999999929e+01,6.369793873013686325e-02
2.623999999999999844e+01,9.264987766223015120e-02
2.628000000000000114e+01,7.024104942443555599e-02
2.632000000000000028e+01,6.474058685046175932e-02
2.635999999999999943e+01,4.297096085225268064e-02
2.639999999999999858e+01,7.958159746614336394e-02
2.644000000000000128e+01,6.706455179347776963e-02
2.648000000000000043e+01,7.624107394901495638e-02
2.651999999999999957e+01,9.881677833494298402e-02
2.655999999999999872e+01,1.073563997455704161e-01
2.660000000000000142e+01,6.102605724968977047e-02
2.664000000000000057e+01,6.733368687716292933e-02
2.667999999999999972e+01,8.863555429809594211e-02
2.671999999999999886e+01,8.760693984272562018e-02
2.676000000000000156e+01,8.817393858650525440e-02
2.680000000000000071e+01,6.896256386623861312e-02
2.683999999999999986e+01,5.517496939790347832e-02
2.687999999999999901e+01,8.477389530273192475e-02
2.692000000000000171e+01,7.194439357099850774e-02
2.696000000000000085e+01,6.964289335010710735e-02
2.700000000000000000e+01,7.053205302264052567e-02
2.703999999999999915e+01,8.673442523919210057e-02
2.707999999999999829e+01,8.124430499013049478e-02
2.712000000000000099e+01,6.299409832473593096e-02
2.716000000000000014e+01,7.249866264529070126e-02
2.719999999999999929e+01,6.669101439966798606e-02
2.723999999999999844e+01,5.577961827767319997e-02
2.728000000000000114e+01,6.847578925672964667e-02
2.732000000000000028e+01,7.128298358865013673e-02
2.735999999999999943e+01,8.302306178678663107e-02
2.739999999999999858e+01,6.860440680229529242e-02
2.744000000000000128e+01,7.492216924008507362e-02
2.748000000000000043e+01,6.656571739118125053e-02
2.751999999999999957e+01,6.044282380814732653e-02
2.755999999999999872e+01,3.964570706962593227e-02
2.760000000000000142e+01,8.169492515313349357e-02
2.764000000000000057e+01,6.376982947371015453e-02
2.767999999999999972e+01,7.104732985202488749e-02
2.771999999999999886e+01,6.907383855949687790e-02
2.776000000000000156e+01,7.188599620750736607e-02
2.780000000000000071e+01,5.141050827010261448e-02
2.783999999999999986e+01,5.518055467245373130e-02
2.787999999999999901e+01,6.118411943110203116e-02
2.792000000000000171e+01,7.293035937309512440e-02
2.796000000000000085e+01,9.711857792679413903e-02
2.800000000000000000e+01,1.075895685270328583e-01
2.803999999999999915e+01,5.393901043866358713e-02
2.807999999999999829e+01,7.430024706415641611e-02
2.812000000000000099e+01,7.137380262905791695e-02
2.816000000000000014e+01,6.621464026763933253e-02
2.819999999999999929e+01,6.679812204878668447e-02
2.823999999999999844e+01,5.653548121127362908e-02
2.828000000000000114e+01,7.562256049725116225e-02
2.832000000000000028e+01,9.821916800168462025e-02
2.835999999999999943e+01,7.966324687179038300e-02
2.839999999999999858e+01,7.929151945759913001e-02
2.844000000000000128e+01,7.158280851420732727e-02
2.848000000000000043e+01,5.685612426734960867e-02
2.851999999999999957e+01,9.476720372718780427e-02
2.855999999999999872e+01,7.366091141335888437e-02
2.860000000000000142e+01,7.680006918574330821e-02
2.864000000000000057e+01,5.824656155103258987e-02
2.867999999999999972e+01,7.542302289846945784e-02
2.871999999999999886e+01,6.261242880660229659e-02
2.876000000000000156e+01,8.776489744900820011e-02
2.880000000000000071e+01,1.001570934304081006e-01
2.883999999999999986e+01,6.788754630327194228e-02
2.887999999999999901e+01,1.220712769471802711e-01
2.892000000000000171e+01,8.820726183589748526e-02
2.896000000000000085e+01,6.901821709731528753e-02
2.900000000000000000e+01,7.726472470229032996e-02
2.903999999999999915e+01,8.104531420329215419e-02
2.907999999999999829e+01,9.567268485222778229e-02
2.912000000000000099e+01,7.616576513618271427e-02
2.916000000000000014e+01,1.003641276928045611e-01
2.919999999999999929e+01,8.947114703525754775e-02
2.923999999999999844e+01,8.368266590569251040e-02
2.928000000000000114e+01,1.094768966606131655e-01
2.932000000000000028e+01,1.215537531269730021e-01
2.935999999999999943e+01,1.004533366023643015e-01
2.939999999999999858e+01,1.074264573976054793e-01
2.944000000000000128e+01,1.424731110782996024e-01
2.948000000000000043e+01,1.535939036086428344e-01
2.951999999999999957e+01,2.074628945216863696e-01
2.955999999999999872e+01,2.514426604613633209e-01
2.960000000000000142e+01,3.167966336861475218e-01
2.964000000000000057e+01,3.808747688923172503e-01
2.967999999999999972e+01,4.420819883448188770e-01
2.971999999999999886e+01,5.390190614851467776e-01
2.976000000000000156e+01,5.941654214669900291e-01
2.980000000000000071e+01,5.934844188101734419e-01
2.983999999999999986e+01,6.227909926556278730e-01
2.987999999999999901e+01,5.094982074379059700e-01
2.992000000000000171e+01,4.743642035334925122e-01
2.996000000000000085e+01,3.849978925534877638e-01
3.000000000000000000e+01,3.125395392727816080e-01
3.003999999999999915e+01,2.825103120674840040e-01
3.007999999999999829e+01,2.403586996207397186e-01
3.012000000000000099e+01,2.246854713740433773e-01
3.016000000000000014e+01,2.035891568798645634e-01
3.019999999999999929e+01,2.099282616973334459e-01
3.023999999999999844e+01,2.239238724639109890e-01
3.028000000000000114e+01,2.379196329020474288e-01
3.032000000000000028e+01,2.707374035250948996e-01
3.035999999999999943e+01,3.233342238790503087e-01
3.039999999999999858e+01,3.867776790458393732e-01
3.044000000000000128e+01,4.170437414929413777e-01
3.048000000000000043e+01,5.277016257927134024e-01
3.051999999999999957e+01,6.157095922883383254e-01
3.055999999999999872e+01,7.767720345848186936e-01
3.060000000000000142e+01,8.191611375088272418e-01
3.064000000000000057e+01,8.079558872927584678e-01
3.067999999999999972e+01,7.211442679531535616e-01
3.071999999999999886e+01,6.356088081472663909e-01
3.076000000000000156e+01,5.003071578196871538e-01
3.080000000000000071e+01,4.367838980460562737e-01
3.083999999999999986e+01,3.872973709082055960e-01
3.087999999999999901e+01,3.744976128410627547e-01
3.092000000000000171e+01,3.202260276780544146e-01
3.096000000000000085e+01,3.039172613574854798e-01
3.100000000000000000e+01,2.477317323729137655e-01
3.103999999999999915e+01,2.460977756888164392e-01
3.107999999999999829e+01,2.160715752366505760e-01
3.112000000000000099e+01,2.281553664710430640e-01
3.116000000000000014e+01,2.210983302123816496e-01
3.119999999999999929e+01,2.220167081374323781e-01
3.123999999999999844e+01,2.315485251320609783e-01
3.128000000000000114e+01,2.248106332716266198e-01
3.132000000000000028e+01,2.359375967557848230e-01
3.135999999999999943e+01,2.658864551305324397e-01
3.139999999999999858e+01,2.983874562947747555e-01
3.144000000000000128e+01,2.897355873761221501e-01
3.148000000000000043e+01,3.094760398488083930e-01
3.151999999999999957e+01,3.474003401542334890e-01
3.155999999999999872e+01,3.556562848383006958e-01
3.160000000000000142e+01,4.280341795452249354e-01
3.164000000000000057e+01,4.665965191802899370e-01
3.167999999999999972e+01,5.335511580347088723e-01
3.171999999999999886e+01,5.727515114909699223e-01
3.176000000000000156e+01,6.397061259775281838e-01
3.180000000000000071e+01,7.050656483279040820e-01
3.183999999999999986e+01,7.519222971207396577e-01
3.187999999999999901e+01,8.606677622747344047e-01
3.192000000000000171e+01,9.139046444271604619e-01
3.196000000000000085e+01,1.000000000000000000e+00
3.200000000000000000e+01,9.588084651729273933e-01
3.203999999999999915e+01,9.214450608255231323e-01
3.207999999999999829e+01,8.186836012748913705e-01
3.211999999999999744e+01,6.856156947010815239e-01
3.215999999999999659e+01,5.876393419966194909e-01
3.220000000000000284e+01,5.151840989231686319e-01
3.224000000000000199e+01,4.283731285299153257e-01
3.228000000000000114e+01,3.836720212257082596e-01
3.232000000000000028e+01,3.341856175368448367e-01
3.235999999999999943e+01,2.824660303099786884e-01
3.239999999999999858e+01,2.604147211238460602e-01
3.243999999999999773e+01,2.546330698185338970e-01
3.247999999999999687e+01,2.482132949726849613e-01
3.252000000000000313e+01,2.453025827336091369e-01
3.256000000000000227e+01,2.069811401308871701e-01
3.260000000000000142e+01,1.906716015537619213e-01
3.264000000000000057e+01,1.609633352932584027e-01
3.267999999999999972e+01,1.685796678758614831e-01
3.271999999999999886e+01,1.739627770108892191e-01
3.275999999999999801e+01,1.477633095318616197e-01
3.279999999999999716e+01,1.531461637103859463e-01
3.284000000000000341e+01,1.948965550140350500e-01
3.288000000000000256e+01,1.425374830146969030e-01
3.292000000000000171e+01,1.661037571279749270e-01
3.296000000000000085e+01,1.743571801219108985e-01
3.300000000000000000e+01,1.755921287255224339e-01
3.303999999999999915e+01,1.678945105436247254e-01
3.307999999999999829e+01,1.605157462856293960e-01
3.311999999999999744e+01,1.773819310269892646e-01
3.315999999999999659e+01,2.025423273267409063e-01
3.320000000000000284e+01,2.283405789073353065e-01
3.324000000000000199e+01,2.755126342429121133e-01
3.328000000000000114e+01,2.933351579381924257e-01
3.332000000000000028e+01,3.025440984673160583e-01
3.335999999999999943e+01,2.667717801409139056e-01
3.339999999999999858e+01,2.488640865704618010e-01
3.343999999999999773e+01,2.242568844914497872e-01
3.347999999999999687e+01,2.267657234434022895e-01
3.352000000000000313e+01,1.992869748284138987e-01
3.356000000000000227e+01,1.909488918723127315e-01
3.360000000000000142e+01,1.717640920883566347e-01
3.364000000000000057e+01,1.634255679310792075e-01
3.367999999999999972e+01,1.745467107896293557e-01
3.371999999999999886e+01,1.856676219615989720e-01
3.375999999999999801e+01,1.942361797315404204e-01
3.379999999999999716e+01,2.034425262663697997e-01
3.384000000000000341e+01,1.986119827656493420e-01
3.388000000000000256e+01,2.007995123636495405e-01
3.392000000000000171e+01,2.176614624691255440e-01
3.396000000000000085e+01,2.367562569025583596e-01
3.400000000000000000e+01,2.335197623994386962e-01
3.403999999999999915e+01,2.465527484012604020e-01
3.407999999999999829e+01,2.723460492121821952e-01
3.411999999999999744e+01,2.764460771036229558e-01
3.415999999999999659e+01,2.856500590922178007e-01
3.420000000000000284e+01,2.804980964755583450e-01
3.424000000000000199e+01,2.906585482114615870e-01
3.428000000000000114e+01,2.816778265713467677e-01
3.432000000000000028e+01,3.250152109902350595e-01
3.435999999999999943e+01,3.208191084126226778e-01
3.439999999999999858e+01,3.156656547832871751e-01
3.443999999999999773e+01,3.392232090600452721e-01
3.447999999999999687e+01,3.270508054619712390e-01
3.452000000000000313e+01,2.737251903324351976e-01
3.456000000000000227e+01,2.832451384398545491e-01
3.460000000000000142e+01,2.822372735196257976e-01
3.464000000000000057e+01,2.432663303660576037e-01
3.467999999999999972e+01,2.601226146233646119e-01
3.471999999999999886e+01,2.546475301249732648e-01
3.475999999999999801e+01,2.396016588417400062e-01
3.479999999999999716e+01,1.961631313915193353e-01
3.484000000000000341e+01,1.798404942027660436e-01
3.488000000000000256e+01,2.021182706058108625e-01
3.492000000000000171e+01,1.806906738523735012e-01
3.496000000000000085e+01,2.004155991029910044e-01
3.500000000000000000e+01,1.662266732041297046e-01
3.503999999999999915e+01,1.680860258784282191e-01
3.507999999999999829e+01,1.801534652208515996e-01
3.511999999999999744e+01,1.702085061237381680e-01
3.515999999999999659e+01,1.873794018129163463e-01
3.520000000000000284e+01,1.554216440826007017e-01
3.524000000000000199e+01,1.521748055704393310e-01
3.528000000000000114e+01,1.699825299988831639e-01
3.532000000000000028e+01,1.712010830380381599e-01
3.535999999999999943e+01,1.953882781097926735e-01
3.539999999999999858e+01,1.978820583613628559e-01
3.543999999999999773e+01,1.790014340184832020e-01
3.547999999999999687e+01,1.907457902481640988e-01
3.552000000000000313e+01,1.999375979623496669e-01
3.556000000000000227e+01,2.059388234063806167e-01
3.560000000000000142e+01,2.262952684530829817e-01
3.564000000000000057e+01,2.322956092562400710e-01
3.567999999999999972e+01,2.188356068193534620e-01
3.571999999999999886e+01,2.538653793160000616e-01
3.575999999999999801e+01,2.624164771809197605e-01
3.579999999999999716e+01,2.757523326725858648e-01
3.584000000000000341e+01,3.082286010625119310e-01
3.588000000000000256e+01,2.810486568638614902e-01
3.592000000000000171e+01,3.033155094071533497e-01
3.596000000000000085e+01,3.389804976631499156e-01
3.600000000000000000e+01,3.854914999164035239e-01
3.603999999999999915e+01,3.991435032945248040e-01
3.607999999999999829e+01,4.549049484939797772e-01
3.611999999999999744e+01,4.136854392631107435e-01
3.615999999999999659e+01,4.541331808410666304e-01
3.620000000000000284e+01,4.483232900807863075e-01
3.624000000000000199e+01,4.670770170970282575e-01
3.628000000000000114e+01,4.657323050370096307e-01
3.632000000000000028e+01,4.532215599500101777e-01
3.635999999999999943e+01,4.317778800225525182e-01
3.639999999999999858e+01,4.135238179052302399e-01
3.643999999999999773e+01,3.860177974185244887e-01
3.647999999999999687e+01,3.770140895594640273e-01
3.652000000000000313e+01,3.335562563118508739e-01
3.656000000000000227e+01,2.987112723590177876e-01
3.660000000000000142e+01,2.976812914169432167e-01
3.664000000000000057e+01,2.717676115870647502e-01
3.667999999999999972e+01,2.273505216376122406e-01
3.671999999999999886e+01,2.378033889643953180e-01
3.675999999999999801e+01,2.243295880805776799e-01
3.679999999999999716e+01,2.220207271662088810e-01
3.684000000000000341e+01,1.986563211136275209e-01
3.688000000000000256e+01,1.941131980048531325e-01
3.692000000000000171e+01,1.618152130263142974e-01
3.696000000000000085e+01,1.553568246456777102e-01
3.700000000000000000e+01,1.594253247422424691e-01
3.703999999999999915e+01,1.414812135482158006e-01
3.707999999999999829e+01,1.308738353612832472e-01
3.711999999999999744e+01,1.512102705967664218e-01
3.715999999999999659e+01,1.406016707547899369e-01
3.720000000000000284e+01,1.481762890611817984e-01
3.724000000000000199e+01,9.513750002910625891e-02
3.728000000000000114e+01,9.186437162960706115e-02
3.732000000000000028e+01,1.010321841929214953e-01
3.735999999999999943e+01,9.680074581401454381e-02
3.739999999999999858e+01,8.682640390164138300e-02
3.743999999999999773e+01,8.450776974692081334e-02
3.747999999999999687e+01,8.761173629453659906e-02
3.752000000000000313e+01,5.977062785512000237e-02
3.756000000000000227e+01,8.711839822973359293e-02
3.760000000000000142e+01,7.395064494458075677e-02
3.764000000000000057e+01,6.843857724509574969e-02
3.767999999999999972e+01,6.196879487333555037e-02
3.771999999999999886e+01,6.028355727726730090e-02
3.775999999999999801e+01,6.880610924472643775e-02
3.779999999999999716e+01,6.010118557002161466e-02
3.784000000000000341e+01,5.649980802794905832e-02
3.788000000000000256e+01,6.438226538673842703e-02
3.792000000000000171e+01,5.376117515964753263e-02
3.796000000000000085e+01,4.696755912147256712e-02
3.800000000000000000e+01,4.113028089663470915e-02
3.803999999999999915e+01,1.934155906377629103e-02
3.807999999999999829e+01,6.390717150238398037e-02
3.811999999999999744e+01,5.168745496736678463e-02
3.815999999999999659e+01,3.500080928586603995e-02
3.820000000000000284e+01,3.266909497123338807e-02
3.824000000000000199e+01,3.607891176552588397e-02
3.828000000000000114e+01,5.384365105789252343e-02
3.832000000000000028e+01,6.139917958382382079e-02
3.835999999999999943e+01,5.300322902655871943e-02
3.839999999999999858e+01,2.897480961183156525e-02
3.843999999999999773e+01,3.397596932363210198e-02
3.847999999999999687e+01,3.100100315232854828e-02
3.852000000000000313e+01,3.759571297074743024e-02
3.856000000000000227e+01,4.642275716147091502e-02
3.860000000000000142e+01,3.802223702209089895e-02
3.864000000000000057e+01,4.748576073265693004e-02
3.867999999999999972e+01,3.940269658419415927e-02
3.871999999999999886e+01,3.769913965215544727e-02
3.875999999999999801e+01,3.057154307728468176e-02
3.879999999999999716e+01,4.928333911805534567e-02
3.884000000000000341e+01,1.057169704579273388e-02
3.888000000000000256e+01,3.151499269429883232e-02
3.892000000000000171e+01,2.247010213227228562e-02
3.896000000000000085e+01,5.681039275552252771e-02
3.900000000000000000e+01,3.691737412946499014e-02
3.903999999999999915e+01,1.861860734268579176e-02
3.907999999999999829e+01,0.000000000000000000e+00
3.911999999999999744e+01,3.976024513117561165e-02
3.915999999999999659e+01,2.975336851729428606e-02
3.920000000000000284e+01,3.665342969140728685e-02
3.924000000000000199e+01,2.536881160467112720e-02
3.928000000000000114e+01,3.832845962015602598e-02
3.932000000000000028e+01,1.619564251903723995e-02
3.935999999999999943e+01,2.915358109581094037e-02
3.939999999999999858e+01,3.764445305979483708e-02
3.943999999999999773e+01,1.168087592424676448e-02
3.947999999999999687e+01,4.026793543141145987e-02
3.952000000000000313e+01,4.046181551274558030e-02
3.956000000000000227e+01,2.885127406068133810e-02
3.960000000000000142e+01,3.797580197421775161e-02
3.964000000000000057e+01,2.030221045938934016e-02
3.967999999999999972e+01,2.687284070281219239e-02
3.971999999999999886e+01,4.109892594326016585e-02
3.975999999999999801e+01,3.331209835412230619e-02
3.979999999999999716e+01,1.691096922651756304e-02
3.984000000000000341e+01,1.677867761629299459e-02
3.988000000000000256e+01,1.951660336353555972e-02
3.992000000000000171e+01,1.555430222990842812e-02
3.996000000000000085e+01,4.540663161769376011e-02
4.000000000000000000e+01,2.453470215769144175e-02
4.003999999999999915e+01,4.864290745490437717e-02
4.007999999999999829e+01,2.138881571527305805e-02
4.011999999999999744e+01,4.230499646537622810e-02
4.015999999999999659e+01,3.674201480008525839e-02
4.020000000000000284e+01,2.128862861183235602e-02
4.024000000000000199e+01,1.955191831593909579e-02
4.028000000000000114e+01,5.673403762838390846e-02
4.032000000000000028e+01,2.054182174854065832e-02
4.035999999999999943e+01,4.942762873901078435e-02
4.039999999999999858e+01,2.248489797562221865e-02
4.043999999999999773e+01,2.520955393917509099e-02
4.047999999999999687e+01,2.825224346318981269e-02
4.052000000000000313e+01,3.033690347274412349e-02
4.056000000000000227e+01,1.742688448766253201e-02
4.060000000000000142e+01,4.120255701482365696e-02
4.064000000000000057e+01,4.392226313605958332e-02
4.067999999999999972e+01,3.451840890065053374e-02
4.071999999999999886e+01,4.202132394615085836e-02
4.075999999999999801e+01,3.644362578581823719e-02
4.079999999999999716e+01,1.555220736433643620e-02
4.084000000000000341e+01,3.389857112976631115e-02
4.088000000000000256e+01,3.406007382407104378e-02
4.092000000000000171e+01,2.975434139850094417e-02
4.096000000000000085e+01,3.406097048404359284e-02
4.100000000000000000e+01,2.847710635868492754e-02
4.103999999999999915e+01,2.289219905209912906e-02
4.107999999999999829e+01,1.985836141093991897e-02
4.111999999999999744e+01,4.425873249105421320e-02
4.115999999999999659e+01,3.930869835466799245e-02
4.120000000000000284e+01,3.052942737789068883e-02
4.124000000000000199e+01,3.546672143354875212e-02
4.128000000000000114e+01,2.381418337476856953e-02
4.132000000000000028e+01,2.492115749923577359e-02
4.135999999999999943e+01,3.814961005229069307e-02
4.139999999999999858e+01,3.096004126614049570e-02
4.143999999999999773e+01,2.855460485676339019e-02
4.147999999999999687e+01,3.603753095186375266e-02
4.152000000000000313e+01,2.948271560719476631e-02
4.156000000000000227e+01,3.855851778057321766e-02
4.160000000000000142e+01,2.721627644276164784e-02
4.164000000000000057e+01,4.649833278037622530e-02
4.167999999999999972e+01,2.749751577065230601e-02
4.171999999999999886e+01,2.667941582243852153e-02
4.175999999999999801e+01,3.192147141634751883e-02
4.179999999999999716e+01,3.620535559509290013e-02
4.184000000000000341e+01,2.007116965626629460e-02
4.188000000000000256e+01,3.073307886490808313e-02
4.192000000000000171e+01,3.979877403493271848e-02
4.196000000000000085e+01,4.056894286918502623e-02
4.200000000000000000e+01,1.358368666525706057e-02
4.203999999999999915e+01,6.220375087130326774e-02
4.207999999999999829e+01,7.158385340564714372e-02
4.211999999999999744e+01,3.183453536982047694e-02
4.215999999999999659e+01,2.653763328383534556e-02
4.220000000000000284e+01,3.463817514462658176e-02
4.224000000000000199e+01,3.667626224978630389e-02
4.228000000000000114e+01,3.041878754399806456e-02
4.232000000000000028e+01,4.521509532494736444e-02
4.235999999999999943e+01,2.810874757643616606e-02
4.239999999999999858e+01,2.854701218442401087e-02
4.243999999999999773e+01,5.705736849884782136e-02
4.247999999999999687e+01,3.388614705247757625e-02
4.252000000000000313e+01,1.454189427376824037e-02
4.256000000000000227e+01,3.603030630355713582e-02
4.260000000000000142e+01,4.284282784459564342e-02
4.264000000000000057e+01,3.178930786117351026e-02
4.267999999999999972e+01,3.859938385360272423e-02
4.271999999999999886e+01,3.169060003448470608e-02
4.275999999999999801e+01,3.817919808058558434e-02
4.279999999999999716e+01,3.988133793002251321e-02
4.284000000000000341e+01,5.785198271706635392e-02
4.288000000000000256e+01,5.699951539287360924e-02
4.292000000000000171e+01,4.593732734659327493e-02
4.296000000000000085e+01,4.444432307197095089e-02
4.300000000000000000e+01,5.028739551369048461e-02
4.303999999999999915e+01,3.858339674711080275e-02
4.307999999999999829e+01,5.782255067779754759e-02
4.311999999999999744e+01,4.356389152482451066e-02
4.315999999999999659e+01,5.514414163822264209e-02
4.320000000000000284e+01,3.864981902139980746e-02
4.324000000000000199e+01,5.150355806359867283e-02
4.328000000000000114e+01,5.542359511466256328e-02
4.332000000000000028e+01,6.348952680557913564e-02
4.335999999999999943e+01,3.965269210711078879e-02
4.339999999999999858e+01,6.494281025821892206e-02
4.343999999999999773e+01,8.161822334073541574e-02
4.347999999999999687e+01,5.777746090713017924e-02
4.352000000000000313e+01,7.636433015715253514e-02
4.356000000000000227e+01,9.048367161709970630e-02
4.360000000000000142e+01,1.055587300748072610e-01
4.364000000000000057e+01,9.798241624615980361e-02
4.367999999999999972e+01,1.041223969517321990e-01
4.371999999999999886e+01,1.367392541623805857e-01
4.375999999999999801e+01,1.594653121887363856e-01
4.379999999999999716e+01,1.707054932957457194e-01
4.384000000000000341e+01,1.841774234346590655e-01
4.388000000000000256e+01,1.871205117658260308e-01
4.392000000000000171e+01,1.875101203581330533e-01
4.396000000000000085e+01,1.843892007967891378e-01
4.400000000000000000e+01,1.691443528238512628e-01
4.403999999999999915e+01,1.382664107434778966e-01
4.407999999999999829e+01,1.262089534154559323e-01
4.411999999999999744e+01,9.596627583015382434e-02
4.415999999999999659e+01,1.288871118866641852e-01
4.420000000000000284e+01,1.005557396993707331e-01
4.424000000000000199e+01,9.583005442881063762e-02
4.428000000000000114e+01,7.738533640522121670e-02
4.432000000000000028e+01,9.084067759298591893e-02
4.435999999999999943e+01,1.058896808452311350e-01
4.439999999999999858e+01,9.414003697587153274e-02
4.443999999999999773e+01,8.557911960285513597e-02
4.447999999999999687e+01,9.232948137677578215e-02
4.452000000000000313e+01,1.236425430070449694e-01
4.456000000000000227e+01,1.313470863794346244e-01
4.460000000000000142e+01,1.221424149223058475e-01
4.464000000000000057e+01,1.355863420575466882e-01
4.467999999999999972e+01,1.554091156840623211e-01
4.471999999999999886e+01,2.048988015570430421e-01
4.475999999999999801e+01,2.655525449544745564e-01
4.479999999999999716e+01,3.038738021281700008e-01
4.484000000000000341e+01,3.524020639771283658e-01
4.488000000000000256e+01,3.546717312237067654e-01
4.492000000000000171e+01,3.406701774858534870e-01
4.496000000000000085e+01,3.525073334665074776e-01
4.500000000000000000e+01,3.021351485350240451e-01
4.503999999999999915e+01,2.737734885316779332e-01
4.507999999999999829e+01,2.186131060219782263e-01
4.511999999999999744e+01,1.835491516108339050e-01
4.515999999999999659e+01,1.436984773736040000e-01
4.520000000000000284e+01,1.137357532419328021e-01
4.524000000000000199e+01,1.083356491474647132e-01
4.528000000000000114e+01,9.144950406096208351e-02
4.532000000000000028e+01,1.007210434435253238e-01
4.535999999999999943e+01,8.893609316132010389e-02
4.539999999999999858e+01,8.384892421137550567e-02
4.543999999999999773e+01,7.237993109390991608e-02
4.547999999999999687e+01,6.314250519807214357e-02
4.552000000000000313e+01,7.782963897839598189e-02
4.556000000000000227e+01,6.061376247750130397e-02
4.560000000000000142e+01,6.923652474476220398e-02
4.564000000000000057e+01,5.967389824765791106e-02
4.567999999999999972e+01,6.510340320544995285e-02
4.571999999999999886e+01,5.777075975231553417e-02
4.575999999999999801e+01,6.638728286567746606e-02
4.579999999999999716e+01,5.873248743787429921e-02
4.584000000000000341e+01,7.340714291040019435e-02
4.588000000000000256e+01,5.617875262653179019e-02
4.592000000000000171e+01,4.947626194933930910e-02
4.596000000000000085e+01,5.744685702613289147e-02
4.600000000000000000e+01,7.083910827870713856e-02
4.603999999999999915e+01,4.881913477585451272e-02
4.607999999999999829e+01,5.997508401141440904e-02
4.611999999999999744e+01,5.677376719142133987e-02
4.615999999999999659e+01,7.079763123448024054e-02
4.620000000000000284e+01,5.866067792833302985e-02
4.624000000000000199e+01,5.322141283210984897e-02
4.628000000000000114e+01,6.724041791666703072e-02
4.632000000000000028e+01,5.414154836843313584e-02
4.635999999999999943e+01,7.007137993612563842e-02
4.639999999999999858e+01,4.165653635514116743e-02
4.643999999999999773e+01,5.375491278601710748e-02
4.647999999999999687e+01,7.063686285964723699e-02
4.652000000000000313e+01,7.220445855336071750e-02
4.656000000000000227e+01,6.388094465499313812e-02
4.660000000000000142e+01,7.086847488052287758e-02
4.664000000000000057e+01,7.275010654714758607e-02
4.667999999999999972e+01,7.175893784138966114e-02
4.671999999999999886e+01,7.044708160990284518e-02
4.675999999999999801e+01,6.626241613723940493e-02
4.679999999999999716e+01,5.314365844650714710e-02
4.684000000000000341e+01,7.798595914261484408e-02
4.688000000000000256e+01,7.092510322240379306e-02
4.692000000000000171e+01,7.088087478749963144e-02
4.696000000000000085e+01,6.222155105706994593e-02
4.700000000000000000e+01,7.748662293011378266e-02
4.703999999999999915e+01,7.616122413555488635e-02
4.707999999999999829e+01,9.493203615409957774e-02
4.711999999999999744e+01,7.222922514600374488e-02
4.715999999999999659e+01,8.908251035022864139e-02
4.720000000000000284e+01,8.615516054794973566e-02
4.724000000000000199e+01,9.630568129829707169e-02
4.728000000000000114e+01,1.134727896243783590e-01
4.732000000000000028e+01,1.194726454643110503e-01
4.735999999999999943e+01,1.152622883640916224e-01
4.739999999999999858e+01,1.017987578697175655e-01
4.743999999999999773e+01,1.205539553638647621e-01
4.747999999999999687e+01,8.762702079759603080e-02
4.752000000000000313e+01,1.079737729197226825e-01
4.756000000000000227e+01,9.258911711920599086e-02
4.760000000000000142e+01,1.062330249683094419e-01
4.764000000000000057e+01,1.032863956338556377e-01
4.767999999999999972e+01,1.462760980671885536e-01
4.771999999999999886e+01,1.308843339709657161e-01
4.775999999999999801e+01,1.189999429762685218e-01
4.779999999999999716e+01,1.122179939493567757e-01
4.784000000000000341e+01,1.299983767238446775e-01
4.788000000000000256e+01,1.168325360024833337e-01
4.792000000000000171e+01,1.339712820960917428e-01
4.796000000000000085e+01,1.089982827204605403e-01
4.800000000000000000e+01,9.327489372233703502e-02
4.803999999999999915e+01,9.126731590916302428e-02
4.807999999999999829e+01,8.574875319944962049e-02
4.811999999999999744e+01,9.394599280589172041e-02
4.815999999999999659e+01,8.012938835938310245e-02
4.820000000000000284e+01,7.779547473931681945e-02
4.824000000000000199e+01,8.184001294919446279e-02
4.828000000000000114e+01,6.578478176371856112e-02
4.832000000000000028e+01,6.599744800346396545e-02
4.835999999999999943e+01,7.609771403140698498e-02
4.839999999999999858e+01,7.790173978566487800e-02
4.843999999999999773e+01,8.799828315866976836e-02
4.847999999999999687e+01,9.522182661142813975e-02
4.852000000000000313e+01,6.926597299706656330e-02
4.856000000000000227e+01,8.637522165257624507e-02
4.860000000000000142e+01,8.147057747676854367e-02
4.864000000000000057e+01,5.295696273458990605e-02
4.867999999999999972e+01,6.559434899830363097e-02
4.871999999999999886e+01,5.557979980724638697e-02
4.875999999999999801e+01,5.002955683818448990e-02
4.879999999999999716e+01,7.925000836919739167e-02
4.884000000000000341e+01,7.720511531870244415e-02
4.888000000000000256e+01,6.590688480136458471e-02
4.892000000000000171e+01,6.417717733053543427e-02
4.896000000000000085e+01,6.946387119076735672e-02
4.900000000000000000e+01,4.635633467308548222e-02
4.903999999999999915e+01,8.003147759815854023e-02
4.907999999999999829e+01,7.095672157061393148e-02
4.911999999999999744e+01,6.953637845680518681e-02
4.915999999999999659e+01,6.269084275695059605e-02
4.920000000000000284e+01,6.764690168374523638e-02
4.924000000000000199e+01,6.877283245635683329e-02
4.928000000000000114e+01,5.905030811749911041e-02
4.932000000000000028e+01,6.495754102367561067e-02
4.935999999999999943e+01,6.958674975352879821e-02
4.939999999999999858e+01,7.006679793147969904e-02
4.943999999999999773e+01,6.288851986168671193e-02
4.947999999999999687e+01,5.921742421434939008e-02
4.952000000000000313e+01,4.980208141126225840e-02
4.956000000000000227e+01,6.494887973050478269e-02
4.960000000000000142e+01,6.701408484218286665e-02
4.964000000000000057e+01,6.780123473675882251e-02
4.967999999999999972e+01,6.571525167917892374e-02
4.971999999999999886e+01,6.873149773832964993e-02
4.975999999999999801e+01,7.972110042099586624e-02
4.979999999999999716e+01,6.869667724043543311e-02
4.984000000000000341e+01,7.011180705643529909e-02
4.988000000000000256e+01,6.099742990514250146e-02
4.992000000000000171e+01,6.687471416266667357e-02
4.996000000000000085e+01,7.338799568870088552e-02
5.000000000000000000e+01,7.064781558477685464e-02
5.003999999999999915e+01,9.374578203094409423e-02
5.007999999999999829e+01,7.792191458614536326e-02
5.011999999999999744e+01,7.900377433896664525e-02
5.015999999999999659e+01,8.008357986805043904e-02
5.020000000000000284e+01,8.371344402005034824e-02
5.024000000000000199e+01,9.085040634096351597e-02
5.028000000000000114e+01,9.383811055324092765e-02
5.032000000000000028e+01,1.079892559087895776e-01
5.035999999999999943e+01,9.948828399929124378e-02
5.039999999999999858e+01,1.203345799917560910e-01
5.043999999999999773e+01,1.121484566477533584e-01
5.047999999999999687e+01,1.307574750558693488e-01
5.052000000000000313e+01,1.369228275855530197e-01
5.056000000000000227e+01,1.261783045605687770e-01
5.060000000000000142e+01,1.281922649387336466e-01
5.064000000000000057e+01,1.273329859392153263e-01
5.067999999999999972e+01,1.424223280753653953e-01
5.071999999999999886e+01,1.163566627492784306e-01
5.075999999999999801e+01,1.237854159972892470e-01
5.079999999999999716e+01,1.187704723260890188e-01
5.084000000000000341e+01,1.226858095300799589e-01
5.088000000000000256e+01,9.374050269766064092e-02
5.092000000000000171e+01,8.393393699584121570e-02
5.096000000000000085e+01,9.932738653272002449e-02
5.100000000000000000e+01,7.643692950776498352e-02
5.103999999999999915e+01,6.662392176772355401e-02
5.107999999999999829e+01,8.647712120502815125e-02
5.111999999999999744e+01,7.825486990151050981e-02
5.115999999999999659e+01,6.684030691301774685e-02
5.120000000000000284e+01,7.456445401434599884e-02
5.124000000000000199e+01,8.356248580374373014e-02
5.128000000000000114e+01,7.246041561801472297e-02
5.132000000000000028e+01,6.327025057182390777e-02
5.135999999999999943e+01,7.034764593668432764e-02
5.139999999999999858e+01,6.306718990559094518e-02
5.143999999999999773e+01,7.077822677622952474e-02
5.147999999999999687e+01,8.327228299000044576e-02
5.152000000000000313e+01,9.034088498830396274e-02
5.156000000000000227e+01,8.273260319293451737e-02
5.160000000000000142e+01,8.214043005842584788e-02
5.164000000000000057e+01,7.931293600657224330e-02
5.167999999999999972e+01,7.265504330232004648e-02
5.171999999999999886e+01,8.928299362243558024e-02
5.175999999999999801e+01,7.751640759124599211e-02
5.179999999999999716e+01,6.287645358486097791e-02
5.184000000000000341e+01,6.482302143689476492e-02
5.188000000000000256e+01,7.155256428809100844e-02
5.192000000000000171e+01,8.657423896549749920e-02
5.196000000000000085e+01,6.012175405422938435e-02
5.200000000000000000e+01,5.855015442720685331e-02
5.203999999999999915e+01,6.558968798333487948e-02
5.207999999999999829e+01,4.933888427508332369e-02
5.211999999999999744e+01,6.275417244985645460e-02
5.215999999999999659e+01,7.840028730196249573e-02
5.220000000000000284e+01,5.321024527927488423e-02
5.224000000000000199e+01,8.065533736587682245e-02
5.228000000000000114e+01,7.651568885269964537e-02
5.232000000000000028e+01,5.355188171059972746e-02
5.235999999999999943e+01,6.535837440724377723e-02
5.239999999999999858e+01,7.237734465194980982e-02
5.243999999999999773e+01,7.971302257242202094e-02
5.247999999999999687e+01,6.120620160349424937e-02
5.252000000000000313e+01,5.960484176836810394e-02
5.256000000000000227e+01,6.406244018818109398e-02
5.260000000000000142e+01,6.979377252656643327e-02
5.264000000000000057e+01,6.531430658439929537e-02
5.267999999999999972e+01,6.912688821489963720e-02
5.271999999999999886e+01,5.890048677447759506e-02
5.275999999999999801e+01,6.015627063924251783e-02
5.279999999999999716e+01,6.332379557085764110e-02
5.284000000000000341e+01,8.243970218070437173e-02
5.288000000000000256e+01,5.657218594930153721e-02
5.292000000000000171e+01,6.994111271692365905e-02
5.296000000000000085e+01,4.725901825817954705e-02
5.300000000000000000e+01,7.242675375321239173e-02
5.303999999999999915e+01,6.218148847334774298e-02
5.307999999999999829e+01,6.533246098428227566e-02
5.311999999999999744e+01,5.444440608032448392e-02
5.315999999999999659e+01,6.205681466047334449e-02
5.320000000000000284e+01,6.456259744061322581e-02
5.324000000000000199e+01,7.057514580989310282e-02
5.328000000000000114e+01,6.797189824892548027e-02
5.332000000000000028e+01,5.707186498344465897e-02
5.335999999999999943e+01,5.733493584706489399e-02
5.339999999999999858e+01,6.908012106552054166e-02
5.343999999999999773e+01,6.104397951154414553e-02
5.347999999999999687e+01,6.289487014295255807e-02
5.352000000000000313e+01,5.900107017891354638e-02
5.356000000000000227e+01,5.733794168831345128e-02
5.360000000000000142e+01,6.619986140016993759e-02
5.364000000000000057e+01,6.006565206957940883e-02
5.367999999999999972e+01,6.445648207265149143e-02
5.371999999999999886e+01,7.458712707301920486e-02
5.375999999999999801e+01,6.493640982577914000e-02
5.379999999999999716e+01,5.751633744559606076e-02
5.384000000000000341e+01,6.700157986411436895e-02
5.388000000000000256e+01,5.734347605209643567e-02
5.392000000000000171e+01,8.309352845760319128e-02
5.396000000000000085e+01,7.183540479642533394e-02
5.400000000000000000e+01,5.451352266690493581e-02
5.403999999999999915e+01,7.323781277198093687e-02
5.407999999999999829e+01,7.345676379479861018e-02
5.411999999999999744e+01,6.793095770621428164e-02
5.415999999999999659e+01,5.985053667314417514e-02
5.420000000000000284e+01,5.017254024158535747e-02
5.424000000000000199e+01,6.058996086607157383e-02
5.428000000000000114e+01,5.856329877880973173e-02
5.432000000000000028e+01,5.749116527091899242e-02
5.435999999999999943e+01,6.630596639167961326e-02
5.439999999999999858e+01,6.746189139947135482e-02
5.443999999999999773e+01,6.095893585989724250e-02
5.447999999999999687e+01,5.572950582223756832e-02
5.452000000000000313e+01,7.155250578023807095e-02
5.456000000000000227e+01,6.217080558045845473e-02
5.460000000000000142e+01,6.171896942255436502e-02
5.464000000000000057e+01,7.593925675449285373e-02
5.467999999999999972e+01,6.399778664506632075e-02
5.471999999999999886e+01,5.875306465340505990e-02
5.475999999999999801e+01,8.445020051509337378e-02
5.479999999999999716e+01,7.632921378907379928e-02
5.484000000000000341e+01,7.075777129592122905e-02
5.488000000000000256e+01,9.708521733332124704e-02
5.492000000000000171e+01,7.364379447325590522e-02
5.496000000000000085e+01,8.433435389586846354e-02
5.500000000000000000e+01,9.151316127126489508e-02
5.503999999999999915e+01,9.390415352452283204e-02
5.507999999999999829e+01,8.066082777678001969e-02
5.511999999999999744e+01,8.049449900545933845e-02
5.515999999999999659e+01,1.042516612206291493e-01
5.520000000000000284e+01,9.642375912504067004e-02
5.524000000000000199e+01,1.077341192451787000e-01
5.528000000000000114e+01,1.117045203557457678e-01
5.532000000000000028e+01,1.268378083099620524e-01
5.535999999999999943e+01,1.327170404250254121e-01
5.539999999999999858e+01,1.331703881881148022e-01
5.543999999999999773e+01,1.218175539622067538e-01
5.547999999999999687e+01,1.117381343782886949e-01
5.552000000000000313e+01,1.109074915052470633e-01
5.556000000000000227e+01,1.103932104250076041e-01
5.560000000000000142e+01,1.095572573829105972e-01
5.564000000000000057e+01,8.638761639549723259e-02
5.567999999999999972e+01,8.586535010688838010e-02
5.571999999999999886e+01,8.980661845520097886e-02
5.575999999999999801e+01,8.800294788183553318e-02
5.579999999999999716e+01,8.938674443607240450e-02
5.584000000000000341e+01,8.853475446128197812e-02
5.588000000000000256e+01,8.736106148385511250e-02
5.592000000000000171e+01,9.862624747464832087e-02
5.596000000000000085e+01,1.159500147966378431e-01
5.600000000000000000e+01,9.786045319835356970e-02
5.603999999999999915e+01,1.097555635723216350e-01
5.607999999999999829e+01,1.053782157651019236e-01
5.611999999999999744e+01,1.271573551397645052e-01
5.615999999999999659e+01,1.189463970787981023e-01
5.620000000000000284e+01,1.279595068472429154e-01
5.624000000000000199e+01,1.258043752590131681e-01
5.628000000000000114e+01,1.322599068078547380e-01
5.632000000000000028e+01,1.122344844449239543e-01
5.635999999999999943e+01,1.301690650823530415e-01
5.639999999999999858e+01,1.500149876909044055e-01
5.643999999999999773e+01,1.424228991040985548e-01
5.647999999999999687e+01,1.361041142993584807e-01
5.652000000000000313e+01,1.696594027181781983e-01
5.656000000000000227e+01,1.448322446057105917e-01
5.660000000000000142e+01,1.793390451160202792e-01
5.664000000000000057e+01,1.685429912916331929e-01
5.667999999999999972e+01,1.698667175217923042e-01
5.671999999999999886e+01,1.603411638426445740e-01
5.675999999999999801e+01,1.415613991204497935e-01
5.679999999999999716e+01,1.457478995940754418e-01
5.684000000000000341e+01,1.298336817113948105e-01
5.688000000000000256e+01,1.327385295740333981e-01
5.692000000000000171e+01,1.353215591397142203e-01
5.696000000000000085e+01,1.225890769478678588e-01
5.700000000000000000e+01,1.337798817602510459e-01
5.703999999999999915e+01,1.315692539071009470e-01
5.707999999999999829e+01,1.395642738037392583e-01
5.711999999999999744e+01,1.408571600288083536e-01
5.715999999999999659e+01,1.380000254289620309e-01
5.720000000000000284e+01,1.271646896482270250e-01
5.724000000000000199e+01,1.246208959189046284e-01
5.728000000000000114e+01,1.507855780550028668e-01
5.732000000000000028e+01,1.348374770729693084e-01
5.735999999999999943e+01,1.421745938653297958e-01
5.739999999999999858e+01,1.472757511871808922e-01
5.743999999999999773e+01,1.472698126629436999e-01
5.747999999999999687e+01,1.201447623091592004e-01
5.752000000000000313e+01,1.147098386915243323e-01
5.756000000000000227e+01,1.300079933952479894e-01
5.760000000000000142e+01,9.777008471782830390e-02
5.764000000000000057e+01,1.041300664603279358e-01
5.767999999999999972e+01,9.995967652812468018e-02
5.771999999999999886e+01,8.015467592472026725e-02
5.775999999999999801e+01,9.384331787594281382e-02
5.779999999999999716e+01,7.945576854204842998e-02
5.784000000000000341e+01,7.144560678282382837e-02
5.788000000000000256e+01,8.512553185017600332e-02
5.792000000000000171e+01,7.041023766908896531e-02
5.796000000000000085e+01,6.972866960263278402e-02
5.800000000000000000e+01,5.979275302682321436e-02
5.803999999999999915e+01,5.846730447461798846e-02
5.807999999999999829e+01,7.213261271424674381e-02
5.811999999999999744e+01,5.485056225240064059e-02
5.815999999999999659e+01,6.946703670055512370e-02
5.820000000000000284e+01,5.441220221896621995e-02
5.824000000000000199e+01,4.477766698768336634e-02
5.828000000000000114e+01,5.523810093835087448e-02
5.832000000000000028e+01,4.527863779989267645e-02
5.835999999999999943e+01,5.222398837327757448e-02
5.839999999999999858e+01,4.959593143320804864e-02
5.843999999999999773e+01,4.217968244725718574e-02
5.847999999999999687e+01,5.390133649087774925e-02
5.852000000000000313e+01,5.126434981588302853e-02
5.856000000000000227e+01,5.085748031470528618e-02
5.860000000000000142e+01,3.896309316730037220e-02
5.864000000000000057e+01,4.812067927266688860e-02
5.867999999999999972e+01,3.207310847736499076e-02
5.871999999999999886e+01,4.888104449089998582e-02
5.875999999999999801e+01,5.643454774153913028e-02
5.879999999999999716e+01,4.580120331120812044e-02
5.884000000000000341e+01,3.739794501391532217e-02
5.888000000000000256e+01,2.197334327145504876e-02
5.892000000000000171e+01,4.865565130965539969e-02
5.896000000000000085e+01,4.694262480509514557e-02
5.900000000000000000e+01,4.490754941493443897e-02
5.903999999999999915e+01,3.967928876359443080e-02
5.907999999999999829e+01,4.146630754088063281e-02
5.911999999999999744e+01,3.431786830582961301e-02
5.915999999999999659e+01,4.566922739533878922e-02
5.920000000000000284e+01,4.234285572135266379e-02
5.924000000000000199e+01,3.773736457499043961e-02
5.928000000000000114e+01,4.269924796632011688e-02
5.932000000000000028e+01,4.414890039556031154e-02
5.935999999999999943e+01,3.028277500345469275e-02
5.939999999999999858e+01,4.416784647333614477e-02
5.943999999999999773e+01,4.879840979557310832e-02
5.947999999999999687e+01,1.865328772526213957e-02
5.952000000000000313e+01,3.763333144254654705e-02
5.956000000000000227e+01,2.885600342137824639e-02
5.960000000000000142e+01,3.092207310325164465e-02
5.964000000000000057e+01,2.405262712562695679e-02
5.967999999999999972e+01,4.238222968815986980e-02
5.971999999999999886e+01,3.486853073544024517e-02
5.975999999999999801e+01,3.309397718607293842e-02
5.979999999999999716e+01,3.992969654684311309e-02
5.984000000000000341e+01,3.400170215455430855e-02
5.988000000000000256e+01,2.615648801927499684e-02
5.992000000000000171e+01,3.298281203343748913e-02
5.996000000000000085e+01,3.310668753384547747e-02
