2.003999999999999915e+01,1.694417439871348172e-02
2.007999999999999829e+01,1.792028642014928397e-02
2.012000000000000099e+01,1.436360599688351301e-02
2.016000000000000014e+01,1.660648787519623110e-02
2.019999999999999929e+01,1.758293359567490721e-02
2.023999999999999844e+01,8.227133985608280076e-03
2.028000000000000114e+01,1.733636271073020832e-02
2.032000000000000028e+01,9.247328111464224107e-03
2.035999999999999943e+01,7.091173499199269689e-03
2.039999999999999858e+01,9.134728983317540185e-03
2.044000000000000128e+01,1.477805074406999750e-02
2.048000000000000043e+01,1.555527282273503134e-02
2.051999999999999957e+01,1.419946925506061601e-02
2.055999999999999872e+01,8.044225150889563331e-03
2.060000000000000142e+01,1.042161132645009515e-02
2.064000000000000057e+01,1.346570503701000066e-02
2.067999999999999972e+01,1.684320389126005985e-02
2.071999999999999886e+01,1.062171407405991010e-02
2.076000000000000156e+01,1.053307925759546133e-02
2.080000000000000071e+01,1.111114955309231225e-02
2.083999999999999986e+01,1.175598114080142302e-02
2.087999999999999901e+01,1.226759234363352172e-02
2.092000000000000171e+01,1.477911398334708602e-02
2.096000000000000085e+01,1.502428259914656214e-02
2.100000000000000000e+01,2.046905758158551469e-02
2.103999999999999915e+01,1.298182119100124189e-02
2.107999999999999829e+01,1.269400066883552385e-02
2.112000000000000099e+01,1.113973005636665833e-02
2.116000000000000014e+01,9.918857318473741844e-03
2.119999999999999929e+01,8.298117921187904422e-03
2.123999999999999844e+01,8.943925543147131577e-03
2.128000000000000114e+01,1.425605243454962714e-02
2.132000000000000028e+01,1.270225620961666808e-02
2.135999999999999943e+01,9.348723402943983490e-03
2.139999999999999858e+01,1.059484769132610325e-02
2.144000000000000128e+01,1.617398704056382044e-02
2.148000000000000043e+01,1.102090013805151134e-02
2.151999999999999957e+01,1.240061886950364137e-02
2.155999999999999872e+01,6.714429778733421554e-03
2.160000000000000142e+01,1.416042046429247594e-02
2.164000000000000057e+01,9.074352833095118004e-03
2.167999999999999972e+01,8.787919127965771598e-03
2.171999999999999886e+01,9.034855888108879463e-03
2.176000000000000156e+01,5.482239295618922433e-03
2.180000000000000071e+01,7.195877311687986014e-03
2.183999999999999986e+01,9.242902904421116880e-03
2.187999999999999901e+01,1.095671189695943300e-02
2.192000000000000171e+01,1.220398296932347429e-02
2.196000000000000085e+01,1.745095944211962416e-02
2.200000000000000000e+01,1.083247571742312378e-02
2.203999999999999915e+01,1.014684653782787875e-02
2.207999999999999829e+01,1.312761915583652433e-02
2.212000000000000099e+01,6.309400829481983698e-03
2.216000000000000014e+01,1.255669344171353105e-02
2.219999999999999929e+01,7.738447112974094350e-03
2.223999999999999844e+01,1.151946658493579329e-02
2.228000000000000114e+01,1.323409411424912238e-02
2.232000000000000028e+01,8.416085168788611792e-03
2.235999999999999943e+01,9.997548422122836884e-03
2.239999999999999858e+01,1.071250434350896896e-02
2.244000000000000128e+01,2.561709473994879926e-03
2.248000000000000043e+01,8.609646767859753524e-03
2.251999999999999957e+01,8.058284201043208750e-03
2.255999999999999872e+01,1.137329723404617229e-02
2.260000000000000142e+01,7.155764195309632404e-03
2.264000000000000057e+01,1.373728268430703288e-02
2.267999999999999972e+01,9.453236034549008029e-03
2.271999999999999886e+01,8.702260776022614081e-03
2.276000000000000156e+01,8.684621304351033966e-03
2.280000000000000071e+01,7.667147728916261576e-03
2.283999999999999986e+01,9.849441941884928137e-03
2.287999999999999901e+01,1.296505119575957869e-02
2.292000000000000171e+01,1.034793917378690718e-02
2.296000000000000085e+01,1.059729133738939767e-02
2.300000000000000000e+01,5.447222799175226692e-03
2.303999999999999915e+01,1.109619973109984663e-02
2.307999999999999829e+01,1.274562224899744751e-02
2.312000000000000099e+01,1.092877260398802258e-02
2.316000000000000014e+01,1.204504447286609999e-02
2.319999999999999929e+01,5.828742254941725320e-03
2.323999999999999844e+01,9.478237478819373507e-03
2.328000000000000114e+01,1.299447597224881283e-02
2.332000000000000028e+01,8.111572847838255385e-03
2.335999999999999943e+01,5.428524280308251113e-03
2.339999999999999858e+01,8.544988947835967588e-03
2.344000000000000128e+01,7.728554106610988593e-03
2.348000000000000043e+01,1.284495200314456770e-02
2.351999999999999957e+01,8.895601681941102054e-03
2.355999999999999872e+01,5.746235389511965795e-03
2.360000000000000142e+01,3.663493948537370048e-03
2.364000000000000057e+01,6.713658536963966299e-03
2.367999999999999972e+01,7.764070338268965442e-03
2.371999999999999886e+01,6.481426961143053368e-03
2.376000000000000156e+01,6.865349226423069287e-03
2.380000000000000071e+01,7.515969029040748921e-03
2.383999999999999986e+01,1.156632254740368182e-02
2.387999999999999901e+01,1.108382667966970048e-02
2.392000000000000171e+01,8.734895104476824226e-03
2.396000000000000085e+01,1.365199614012709700e-02
2.400000000000000000e+01,7.503530975627871469e-03
2.403999999999999915e+01,5.954682926055272600e-03
2.407999999999999829e+01,9.472073885419214634e-03
2.412000000000000099e+01,8.456611824129170452e-03
2.416000000000000014e+01,7.907822919670945416e-03
2.419999999999999929e+01,1.095874335045206836e-02
2.423999999999999844e+01,1.034339358572988928e-02
2.428000000000000114e+01,1.026137551767083468e-02
2.432000000000000028e+01,1.497895139555149510e-02
2.435999999999999943e+01,6.164522408379403615e-03
2.439999999999999858e+01,4.882760797135433060e-03
2.444000000000000128e+01,6.600761672584332974e-03
2.448000000000000043e+01,7.318903002370210666e-03
2.451999999999999957e+01,1.043686239334046771e-02
2.455999999999999872e+01,4.489057816826192045e-03
2.460000000000000142e+01,1.007353901403876956e-02
2.464000000000000057e+01,6.592255032247760008e-03
2.467999999999999972e+01,7.177295616351471799e-03
2.471999999999999886e+01,8.029019805323922218e-03
2.476000000000000156e+01,2.948013782181352436e-03
2.480000000000000071e+01,9.132649075528234336e-03
2.483999999999999986e+01,3.985064019336086519e-03
2.487999999999999901e+01,7.770006569266550873e-03
2.492000000000000171e+01,8.088649697111564493e-03
2.496000000000000085e+01,5.807577439540924022e-03
2.500000000000000000e+01,6.126297045370193879e-03
2.503999999999999915e+01,1.391101397786534410e-02
2.507999999999999829e+01,5.897262999898494201e-03
2.512000000000000099e+01,8.615865635465434075e-03
2.516000000000000014e+01,8.801410213929003815e-03
2.519999999999999929e+01,1.187727917844561172e-03
2.523999999999999844e+01,5.972906345763822136e-03
2.528000000000000114e+01,9.291590613060157072e-03
2.532000000000000028e+01,4.677725474310053672e-03
2.535999999999999943e+01,7.463192459039773644e-03
2.539999999999999858e+01,9.382106679857409384e-03
2.544000000000000128e+01,6.901468604176758115e-03
2.548000000000000043e+01,1.354484768437074155e-03
2.551999999999999957e+01,3.473472061578859217e-03
2.555999999999999872e+01,9.858751665235804609e-03
2.560000000000000142e+01,1.312140125986105930e-03
2.564000000000000057e+01,8.964023608411430394e-03
2.567999999999999972e+01,8.883333304284443330e-03
2.571999999999999886e+01,1.869992893164860656e-03
2.576000000000000156e+01,4.322449618338014381e-03
2.580000000000000071e+01,8.441441092181568850e-03
2.583999999999999986e+01,1.036066599655958466e-02
2.587999999999999901e+01,9.480180511723109577e-03
2.592000000000000171e+01,1.259934045712631477e-02
2.596000000000000085e+01,1.018571416028855002e-02
2.600000000000000000e+01,5.705639585167055633e-03
2.603999999999999915e+01,3.092077195488654711e-03
2.607999999999999829e+01,9.411024239147329148e-03
2.612000000000000099e+01,7.797409761569148827e-03
2.616000000000000014e+01,6.383796724407047977e-03
2.619999999999999929e+01,4.303599879472294436e-03
2.623999999999999844e+01,4.889836476502362576e-03
2.628000000000000114e+01,8.875769837946979532e-03
2.632000000000000028e+01,6.528987219995637144e-03
2.635999999999999943e+01,1.151486122442624098e-02
2.639999999999999858e+01,4.701868754926914924e-03
2.644000000000000128e+01,7.288002766698541482e-03
2.648000000000000043e+01,8.207643373731823844e-03
2.651999999999999957e+01,1.099378889709399544e-02
2.655999999999999872e+01,5.180762664765192760e-03
2.660000000000000142e+01,1.349974584547488678e-02
2.664000000000000057e+01,1.075312284590687791e-02
2.667999999999999972e+01,9.606360911189928617e-03
2.671999999999999886e+01,8.126309079376265940e-03
2.676000000000000156e+01,9.512663885983471679e-03
2.680000000000000071e+01,2.966446873441969979e-03
2.683999999999999986e+01,5.886010641686144004e-03
2.687999999999999901e+01,7.872338875806149383e-03
2.692000000000000171e+01,3.392621329917509289e-03
2.696000000000000085e+01,6.845494534007451684e-03
2.700000000000000000e+01,4.965546817438723851e-03
2.703999999999999915e+01,4.018851142785931883e-03
2.707999999999999829e+01,1.027148047262382846e-02
2.712000000000000099e+01,5.858458495729404990e-03
2.716000000000000014e+01,1.104453316776442262e-02
2.719999999999999929e+01,8.298029963055522651e-03
2.723999999999999844e+01,3.818361487067500198e-03
2.728000000000000114e+01,1.073761748469863331e-02
2.732000000000000028e+01,1.152412343027571159e-02
2.735999999999999943e+01,9.310915502206239605e-03
2.739999999999999858e+01,9.630802734855611197e-03
2.744000000000000128e+01,6.084390239910219579e-03
2.748000000000000043e+01,1.113716419116900225e-02
2.751999999999999957e+01,7.790732919838198531e-03
2.755999999999999872e+01,8.777224028156472083e-03
2.760000000000000142e+01,1.529652333834318270e-02
2.764000000000000057e+01,8.283768111196505510e-03
2.767999999999999972e+01,4.270726304221574877e-03
2.771999999999999886e+01,8.923527666003679831e-03
2.776000000000000156e+01,8.910100168795604889e-03
2.780000000000000071e+01,9.496611418522937081e-03
2.783999999999999986e+01,1.001645723832679524e-02
2.787999999999999901e+01,9.269750594468793847e-03
2.792000000000000171e+01,9.856244808476960842e-03
2.796000000000000085e+01,4.443299992498595842e-03
2.800000000000000000e+01,6.562968034091650263e-03
2.803999999999999915e+01,8.549307259853681021e-03
2.807999999999999829e+01,6.735997422978597104e-03
2.812000000000000099e+01,1.465509041102429182e-02
2.816000000000000014e+01,8.308857058653584815e-03
2.819999999999999929e+01,7.962045321528062047e-03
2.823999999999999844e+01,8.348486382203115092e-03
2.828000000000000114e+01,5.601878922542831429e-03
2.832000000000000028e+01,5.255031976912578028e-03
2.835999999999999943e+01,7.707907082212426056e-03
2.839999999999999858e+01,1.242722077580336003e-02
2.844000000000000128e+01,1.114708817029355647e-02
2.848000000000000043e+01,4.667432945242706160e-03
2.851999999999999957e+01,1.058658877191498253e-02
2.855999999999999872e+01,8.573146126019755633e-03
2.860000000000000142e+01,9.026120110947817229e-03
2.864000000000000057e+01,9.079114765212364935e-03
2.867999999999999972e+01,7.065620555305345864e-03
2.871999999999999886e+01,7.251899730503326251e-03
2.876000000000000156e+01,6.704895972209541817e-03
2.880000000000000071e+01,1.002417331525012195e-02
2.883999999999999986e+01,7.010696516045087159e-03
2.887999999999999901e+01,8.996725677524363557e-03
2.892000000000000171e+01,1.038279019669367462e-02
2.896000000000000085e+01,1.050228589669400733e-02
2.900000000000000000e+01,6.022194316269041149e-03
2.903999999999999915e+01,1.327430234159408980e-02
2.907999999999999829e+01,1.066065366328966361e-02
2.912000000000000099e+01,1.737943052325839274e-02
2.916000000000000014e+01,1.316588375431960826e-02
2.919999999999999929e+01,1.228532917224053195e-02
2.923999999999999844e+01,1.567101117080077141e-02
2.928000000000000114e+01,1.905666628920477113e-02
2.932000000000000028e+01,1.504299428248989830e-02
2.935999999999999943e+01,2.002844239394141121e-02
2.939999999999999858e+01,1.901442966806366278e-02
2.944000000000000128e+01,2.346653692200655755e-02
2.948000000000000043e+01,2.131923891311176406e-02
2.951999999999999957e+01,2.730447395691604218e-02
2.955999999999999872e+01,3.522282823643566735e-02
2.960000000000000142e+01,4.074137793376515077e-02
2.964000000000000057e+01,4.679317815598219715e-02
2.967999999999999972e+01,7.877582435621377499e-02
2.971999999999999886e+01,1.036257788021710119e-01
2.976000000000000156e+01,1.308754719548155532e-01
2.980000000000000071e+01,1.629913364214556071e-01
2.983999999999999986e+01,1.703761730395190743e-01
2.987999999999999901e+01,1.612292051277688931e-01
2.992000000000000171e+01,1.522821817150399326e-01
2.996000000000000085e+01,1.266700318467584019e-01
3.000000000000000000e+01,9.512507241186478335e-02
3.003999999999999915e+01,7.497899565318351389e-02
3.007999999999999829e+01,5.649938882690402897e-02
3.012000000000000099e+01,5.181843632127563354e-02
3.016000000000000014e+01,5.433676217665488195e-02
3.019999999999999929e+01,4.845584222355673459e-02
3.023999999999999844e+01,4.844099227774844446e-02
3.028000000000000114e+01,5.535877744722955685e-02
3.032000000000000028e+01,5.774361570333107901e-02
3.035999999999999943e+01,7.139401107534890101e-02
3.039999999999999858e+01,9.750984938550237568e-02
3.044000000000000128e+01,1.352245453856028012e-01
3.048000000000000043e+01,2.098690341716671348e-01
3.051999999999999957e+01,3.479741372676912192e-01
3.055999999999999872e+01,5.722043754852946806e-01
3.060000000000000142e+01,8.758270521506139605e-01
3.064000000000000057e+01,1.000000000000000000e+00
3.067999999999999972e+01,9.473229723549804193e-01
3.071999999999999886e+01,7.397938864560757999e-01
3.076000000000000156e+01,5.044673823490685161e-01
3.080000000000000071e+01,3.274686408142390981e-01
3.083999999999999986e+01,2.111307737446758703e-01
3.087999999999999901e+01,1.539205923210908156e-01
3.092000000000000171e+01,1.196415220270279772e-01
3.096000000000000085e+01,9.656133940537865723e-02
3.100000000000000000e+01,6.634844564515041121e-02
3.103999999999999915e+01,5.893334048294592009e-02
3.107999999999999829e+01,5.385129368025463881e-02
3.112000000000000099e+01,4.743598499027048415e-02
3.116000000000000014e+01,4.482026130469913411e-02
3.119999999999999929e+01,3.460520095198171137e-02
3.123999999999999844e+01,3.438913760338227488e-02
3.128000000000000114e+01,3.803931779902707672e-02
3.132000000000000028e+01,4.115615736390064450e-02
3.135999999999999943e+01,4.460624033467264909e-02
3.139999999999999858e+01,4.225681325146928707e-02
3.144000000000000128e+01,4.817321085872795783e-02
3.148000000000000043e+01,4.349055148857666753e-02
3.151999999999999957e+01,4.660709309759883401e-02
3.155999999999999872e+01,4.859034722730316141e-02
3.160000000000000142e+01,6.437223326455634997e-02
3.164000000000000057e+01,7.308805882818823763e-02
3.167999999999999972e+01,8.160384009476288891e-02
3.171999999999999886e+01,9.358589609956742550e-02
3.176000000000000156e+01,1.129671873063286397e-01
3.180000000000000071e+01,1.250824345451006514e-01
3.183999999999999986e+01,1.349311639933692963e-01
3.187999999999999901e+01,1.532456925400750847e-01
3.192000000000000171e+01,1.796260574367988250e-01
3.196000000000000085e+01,2.286708762848575216e-01
3.200000000000000000e+01,2.861148320569648629e-01
3.203999999999999915e+01,3.061622588128338762e-01
3.207999999999999829e+01,2.660819741722160181e-01
3.211999999999999744e+01,2.172691128611142775e-01
3.215999999999999659e+01,1.472581874942104629e-01
3.220000000000000284e+01,9.611207208881801523e-02
3.224000000000000199e+01,7.456308353387743060e-02
3.228000000000000114e+01,5.508049373722475467e-02
3.232000000000000028e+01,4.519692244652346452e-02
3.235999999999999943e+01,4.437908619913450564e-02
3.239999999999999858e+01,3.636185725447350220e-02
3.243999999999999773e+01,3.034436428795236895e-02
3.247999999999999687e+01,3.132613347705694856e-02
3.252000000000000313e+01,2.270873529565311730e-02
3.256000000000000227e+01,2.249046555766466907e-02
3.260000000000000142e+01,2.300538258968918767e-02
3.264000000000000057e+01,2.125376971601996776e-02
3.267999999999999972e+01,2.116858740038381204e-02
3.271999999999999886e+01,2.654947539228768097e-02
3.275999999999999801e+01,2.039804202293779220e-02
3.279999999999999716e+01,1.717958417943126967e-02
3.284000000000000341e+01,2.062708125416509025e-02
3.288000000000000256e+01,2.154140336020830132e-02
3.292000000000000171e+01,1.465638168011621986e-02
3.296000000000000085e+01,1.663710488561390144e-02
3.300000000000000000e+01,1.728453773312128156e-02
3.303999999999999915e+01,2.086494247191487614e-02
3.307999999999999829e+01,1.957905671437239897e-02
3.311999999999999744e+01,2.042621735127785401e-02
3.315999999999999659e+01,1.747365199408722203e-02
3.320000000000000284e+01,2.698648717186588608e-02
3.324000000000000199e+01,4.043219656878224016e-02
3.328000000000000114e+01,5.187800779629227199e-02
3.332000000000000028e+01,7.418936917085451610e-02
3.335999999999999943e+01,6.896991439138509816e-02
3.339999999999999858e+01,5.201814748717982495e-02
3.343999999999999773e+01,4.319885427124077470e-02
3.347999999999999687e+01,3.444613092750585526e-02
3.352000000000000313e+01,2.869303256305288236e-02
3.356000000000000227e+01,2.673948285744156758e-02
3.360000000000000142e+01,2.298601120767757716e-02
3.364000000000000057e+01,2.156555914881758476e-02
3.367999999999999972e+01,2.374467286019087825e-02
3.371999999999999886e+01,2.139078816862549984e-02
3.375999999999999801e+01,1.883682768050788658e-02
3.379999999999999716e+01,2.448199578593074008e-02
3.384000000000000341e+01,2.239446652985930750e-02
3.388000000000000256e+01,2.263995323013475239e-02
3.392000000000000171e+01,2.641834170897642414e-02
3.396000000000000085e+01,2.246403100904527730e-02
3.400000000000000000e+01,2.537563873165822603e-02
3.403999999999999915e+01,3.002031677359052325e-02
3.407999999999999829e+01,3.886449774215036679e-02
3.411999999999999744e+01,3.957601496623967124e-02
3.415999999999999659e+01,4.415373211988776053e-02
3.420000000000000284e+01,3.493265396320154731e-02
3.424000000000000199e+01,4.657616558758934100e-02
3.428000000000000114e+01,4.782055890273061161e-02
3.432000000000000028e+01,4.493190687120001553e-02
3.435999999999999943e+01,6.057473030461706792e-02
3.439999999999999858e+01,5.975234111450464236e-02
3.443999999999999773e+01,6.006307297212694352e-02
3.447999999999999687e+01,6.124028384328466385e-02
3.452000000000000313e+01,5.488476812636610552e-02
3.456000000000000227e+01,5.606176592245777635e-02
3.460000000000000142e+01,5.177250698936216450e-02
3.464000000000000057e+01,4.568331036236641940e-02
3.467999999999999972e+01,4.206043829074701534e-02
3.471999999999999886e+01,3.543774088572949899e-02
3.475999999999999801e+01,3.921394932065198902e-02
3.479999999999999716e+01,3.472416299897218561e-02
3.484000000000000341e+01,3.243405738119094911e-02
3.488000000000000256e+01,2.421106829413622111e-02
3.492000000000000171e+01,2.665362405242314991e-02
3.496000000000000085e+01,2.696293548518405997e-02
3.500000000000000000e+01,2.653886948596814732e-02
3.503999999999999915e+01,2.284833187883822045e-02
3.507999999999999829e+01,2.135747134104970177e-02
3.511999999999999744e+01,2.026645762487475078e-02
3.515999999999999659e+01,2.004191262432340401e-02
3.520000000000000284e+01,2.195038251872498056e-02
3.524000000000000199e+01,2.265884884682303063e-02
3.528000000000000114e+01,2.296723528817730051e-02
3.532000000000000028e+01,1.867593873910217833e-02
3.535999999999999943e+01,2.898314144150030899e-02
3.539999999999999858e+01,2.242515423372140951e-02
3.543999999999999773e+01,2.673268506774018408e-02
3.547999999999999687e+01,2.157432441926599234e-02
3.552000000000000313e+01,2.281523667470461772e-02
3.556000000000000227e+01,2.585585658771076892e-02
3.560000000000000142e+01,2.622993962615911834e-02
3.564000000000000057e+01,3.020355875262428075e-02
3.567999999999999972e+01,2.991079122237406615e-02
3.571999999999999886e+01,3.728384035232786692e-02
3.575999999999999801e+01,3.479103161681245532e-02
3.579999999999999716e+01,3.943075547310253420e-02
3.584000000000000341e+01,4.280380631958636412e-02
3.588000000000000256e+01,5.184286068993798624e-02
3.592000000000000171e+01,5.068275298623261399e-02
3.596000000000000085e+01,5.385544045267724733e-02
3.600000000000000000e+01,5.862784784200490706e-02
3.603999999999999915e+01,6.659982311909456998e-02
3.607999999999999829e+01,7.557157389355877164e-02
3.611999999999999744e+01,8.067689349061250847e-02
3.615999999999999659e+01,8.718194951618137012e-02
3.620000000000000284e+01,1.026860220750387964e-01
3.624000000000000199e+01,1.012582316456593079e-01
3.628000000000000114e+01,1.064296836820915332e-01
3.632000000000000028e+01,1.036017593714995688e-01
3.635999999999999943e+01,1.041733791739232889e-01
3.639999999999999858e+01,9.941203570220123742e-02
3.643999999999999773e+01,9.011765263589319175e-02
3.647999999999999687e+01,8.702254686393964822e-02
3.652000000000000313e+01,7.006195029048974121e-02
3.656000000000000227e+01,6.196704408427281680e-02
3.660000000000000142e+01,6.527092120970705291e-02
3.664000000000000057e+01,5.190957071774894571e-02
3.667999999999999972e+01,4.808051234684464909e-02
3.671999999999999886e+01,4.531788013827250938e-02
3.675999999999999801e+01,4.502154098558171919e-02
3.679999999999999716e+01,3.525929036033383784e-02
3.684000000000000341e+01,3.202961336315449103e-02
3.688000000000000256e+01,3.633241474493321965e-02
3.692000000000000171e+01,3.670211247700115587e-02
3.696000000000000085e+01,3.073893309764100940e-02
3.700000000000000000e+01,3.277485277972996131e-02
3.703999999999999915e+01,3.514392984986558499e-02
3.707999999999999829e+01,2.298090406677218145e-02
3.711999999999999744e+01,3.141578302162763292e-02
3.715999999999999659e+01,2.825161362457227765e-02
3.720000000000000284e+01,1.955448776685097395e-02
3.724000000000000199e+01,1.918975912157134742e-02
3.728000000000000114e+01,1.955814637244092380e-02
3.732000000000000028e+01,2.152623355612935663e-02
3.735999999999999943e+01,1.649483399969513611e-02
3.739999999999999858e+01,1.259651066479120299e-02
3.743999999999999773e+01,1.376422401514434436e-02
3.747999999999999687e+01,9.198995593185117087e-03
3.752000000000000313e+01,8.633236931204928133e-03
3.756000000000000227e+01,8.067325996847991496e-03
3.760000000000000142e+01,7.834563969904459815e-03
3.764000000000000057e+01,9.868100600803052583e-03
3.767999999999999972e+01,9.835012071638239359e-03
3.771999999999999886e+01,9.468467061508898178e-03
3.775999999999999801e+01,7.968540679336260507e-03
3.779999999999999716e+01,7.335043032658931407e-03
3.784000000000000341e+01,9.634444586125520335e-03
3.788000000000000256e+01,5.267653310145381344e-03
3.792000000000000171e+01,6.766815735627343571e-03
3.796000000000000085e+01,4.332858761651014155e-03
3.800000000000000000e+01,6.564967849638904049e-03
3.803999999999999915e+01,7.797012039486714979e-03
3.807999999999999829e+01,5.362576441037436581e-03
3.811999999999999744e+01,5.594394373975649856e-03
3.815999999999999659e+01,8.225823804102090631e-03
3.820000000000000284e+01,8.723959842181432112e-03
3.824000000000000199e+01,4.489047955166611953e-03
3.828000000000000114e+01,8.319876102406177643e-03
3.832000000000000028e+01,7.017692970372881728e-03
3.835999999999999943e+01,6.781911164531459479e-03
3.839999999999999858e+01,5.346077937384499310e-03
3.843999999999999773e+01,3.510116968491718004e-03
3.847999999999999687e+01,7.740082291757602144e-03
3.852000000000000313e+01,7.636957592272294350e-03
3.856000000000000227e+01,4.267307978035264453e-03
3.860000000000000142e+01,6.430299981798858790e-03
3.864000000000000057e+01,7.793199072359397774e-03
3.867999999999999972e+01,4.356383217361107542e-03
3.871999999999999886e+01,2.519246093598498468e-03
3.875999999999999801e+01,3.481673523290962011e-03
3.879999999999999716e+01,5.377174901600717018e-03
3.884000000000000341e+01,6.805882123459524799e-03
3.888000000000000256e+01,8.701039582646995577e-03
3.892000000000000171e+01,5.329855961948929896e-03
3.896000000000000085e+01,3.691668152149336479e-03
3.900000000000000000e+01,4.719720547027793020e-03
3.903999999999999915e+01,4.414391114228539102e-03
3.907999999999999829e+01,6.575319603258488778e-03
3.911999999999999744e+01,6.802921839102224304e-03
3.915999999999999659e+01,5.963781858429421760e-03
3.920000000000000284e+01,6.524332268548276373e-03
3.924000000000000199e+01,4.684932108432759458e-03
3.928000000000000114e+01,8.378163268406044889e-03
3.932000000000000028e+01,4.671915863380563666e-03
3.935999999999999943e+01,5.698374281605586046e-03
3.939999999999999858e+01,6.724652562515950720e-03
3.943999999999999773e+01,3.017864745546540179e-03
3.947999999999999687e+01,4.843705219868313025e-03
3.952000000000000313e+01,4.602892669188785035e-03
3.956000000000000227e+01,4.228576843936659654e-03
3.960000000000000142e+01,3.720757138352411442e-03
3.964000000000000057e+01,3.679376160665978612e-03
3.967999999999999972e+01,3.237848662688615990e-03
3.971999999999999886e+01,4.729286537508670465e-03
3.975999999999999801e+01,7.020463108497644253e-03
3.979999999999999716e+01,2.245455630923346053e-03
3.984000000000000341e+01,5.936126705641813980e-03
3.988000000000000256e+01,5.093706090455623822e-03
3.992000000000000171e+01,2.651248892442513699e-03
3.996000000000000085e+01,2.875017360879002573e-03
4.000000000000000000e+01,2.098691248958984689e-03
4.003999999999999915e+01,3.521967092199982004e-03
4.007999999999999829e+01,2.278638215816941072e-03
4.011999999999999744e+01,3.568211868625590245e-03
4.015999999999999659e+01,3.857688518039624828e-03
4.020000000000000284e+01,3.547029700959177141e-03
4.024000000000000199e+01,4.302743739373198449e-03
4.028000000000000114e+01,3.458415743124618105e-03
4.032000000000000028e+01,4.013761176401136124e-03
4.035999999999999943e+01,4.168949791474931520e-03
4.039999999999999858e+01,2.324132411947930649e-03
4.043999999999999773e+01,8.124209309084956922e-04
4.047999999999999687e+01,6.366510810700807405e-03
4.052000000000000313e+01,7.854121808205709321e-03
4.056000000000000227e+01,6.675120816972355750e-03
4.060000000000000142e+01,4.362695444769850057e-03
4.064000000000000057e+01,2.716674727806959316e-03
4.067999999999999972e+01,1.372094896856705193e-04
4.071999999999999886e+01,5.356805906048354472e-03
4.075999999999999801e+01,6.438083798919497659e-04
4.079999999999999716e+01,3.796531653810410016e-03
4.084000000000000341e+01,6.082468340642324840e-03
4.088000000000000256e+01,4.501901764680970447e-03
4.092000000000000171e+01,1.065373345729603814e-02
4.096000000000000085e+01,6.739647464374551485e-03
4.100000000000000000e+01,9.491392814751467219e-03
4.103999999999999915e+01,5.510237123569671283e-03
4.107999999999999829e+01,2.462120852712551978e-03
4.111999999999999744e+01,4.479985537236737432e-03
4.115999999999999659e+01,4.164530932179581410e-03
4.120000000000000284e+01,7.115226429016396729e-03
4.124000000000000199e+01,0.000000000000000000e+00
4.128000000000000114e+01,1.017128530383987770e-03
4.132000000000000028e+01,4.100518917404478818e-03
4.135999999999999943e+01,2.517474487198208440e-03
4.139999999999999858e+01,5.867086057836738526e-03
4.143999999999999773e+01,2.150488743771692985e-03
4.147999999999999687e+01,2.499961576603189871e-03
4.152000000000000313e+01,2.249278952876101328e-03
4.156000000000000227e+01,5.131420264987381248e-03
4.160000000000000142e+01,4.213707767743973126e-03
4.164000000000000057e+01,6.162176566380185919e-03
4.167999999999999972e+01,3.977488558592973469e-03
4.171999999999999886e+01,6.792112062684337211e-03
4.175999999999999801e+01,9.473198975429544810e-03
4.179999999999999716e+01,5.688014765624929692e-03
4.184000000000000341e+01,5.968895250881205670e-03
4.188000000000000256e+01,7.116142684161825063e-03
4.192000000000000171e+01,2.463720748713469667e-03
4.196000000000000085e+01,9.476642401580380459e-03
4.200000000000000000e+01,4.957102762744590267e-03
4.203999999999999915e+01,2.903776219533583860e-03
4.207999999999999829e+01,3.050020737748080583e-03
4.211999999999999744e+01,2.996062855670778447e-03
4.215999999999999659e+01,1.542015539563307324e-03
4.220000000000000284e+01,5.553894965989753657e-03
4.224000000000000199e+01,6.965797318888074068e-03
4.228000000000000114e+01,5.244439135619282343e-03
4.232000000000000028e+01,1.923008023952390991e-03
4.235999999999999943e+01,6.467274087739115739e-03
4.239999999999999858e+01,5.745146370562123107e-03
4.243999999999999773e+01,7.089263548755091009e-03
4.247999999999999687e+01,4.166891091114354601e-03
4.252000000000000313e+01,6.710440529931409326e-03
4.256000000000000227e+01,5.787423406714994889e-03
4.260000000000000142e+01,7.597252326929843959e-03
4.264000000000000057e+01,4.807287402723227528e-03
4.267999999999999972e+01,1.017187312272282160e-03
4.271999999999999886e+01,4.426175374339932390e-03
4.275999999999999801e+01,5.168518130895752120e-03
4.279999999999999716e+01,8.443722830755439127e-03
4.284000000000000341e+01,4.319395658778666346e-03
4.288000000000000256e+01,3.927815646565594766e-03
4.292000000000000171e+01,8.029275486926843244e-04
4.296000000000000085e+01,3.477256469472528744e-03
4.300000000000000000e+01,1.181748108892572389e-02
4.303999999999999915e+01,6.425436882300747735e-03
4.307999999999999829e+01,1.203211573162512628e-02
4.311999999999999744e+01,7.772825255728693997e-03
4.315999999999999659e+01,5.579768771530887496e-03
4.320000000000000284e+01,5.652926744601972052e-03
4.324000000000000199e+01,7.792317497852628040e-03
4.328000000000000114e+01,7.864998284707174284e-03
4.332000000000000028e+01,6.137609927845838823e-03
4.335999999999999943e+01,8.742904675623407174e-03
4.339999999999999858e+01,7.748299426197744789e-03
4.343999999999999773e+01,1.035311214168260600e-02
4.347999999999999687e+01,5.958345435838324940e-03
4.352000000000000313e+01,9.629239409751442352e-03
4.356000000000000227e+01,8.966967035213907478e-03
4.360000000000000142e+01,9.304356275261235418e-03
4.364000000000000057e+01,1.397442437963084157e-02
4.367999999999999972e+01,1.077832539144452616e-02
4.371999999999999886e+01,1.531458226866830481e-02
4.375999999999999801e+01,2.205038476541775969e-02
4.379999999999999716e+01,3.098573227593337184e-02
4.384000000000000341e+01,4.798673562013022753e-02
4.388000000000000256e+01,6.118785062667978641e-02
4.392000000000000171e+01,5.592379812563610247e-02
4.396000000000000085e+01,4.859302536028450858e-02
4.400000000000000000e+01,4.166196493793314359e-02
4.403999999999999915e+01,3.753038910878028073e-02
4.407999999999999829e+01,2.839903548520363377e-02
4.411999999999999744e+01,1.960073203023875513e-02
4.415999999999999659e+01,1.993464527663791480e-02
4.420000000000000284e+01,1.413555284046581588e-02
4.424000000000000199e+01,1.233582839667349967e-02
4.428000000000000114e+01,1.446881098239148969e-02
4.432000000000000028e+01,1.120204999646897022e-02
4.435999999999999943e+01,1.046812732922906830e-02
4.439999999999999858e+01,1.146711808959294081e-02
4.443999999999999773e+01,1.526558738556014518e-02
4.447999999999999687e+01,1.586410247147670288e-02
4.452000000000000313e+01,1.632903916864024071e-02
4.456000000000000227e+01,1.652707615707137145e-02
4.460000000000000142e+01,1.732479747343979026e-02
4.464000000000000057e+01,2.012207001129463421e-02
4.467999999999999972e+01,1.891946102498201152e-02
4.471999999999999886e+01,2.371602347523305010e-02
4.475999999999999801e+01,3.791143496889514547e-02
4.479999999999999716e+01,5.457301776077517347e-02
4.484000000000000341e+01,7.070105517516639404e-02
4.488000000000000256e+01,9.536135517326092825e-02
4.492000000000000171e+01,1.130220539426835952e-01
4.496000000000000085e+01,1.038183644589133203e-01
4.500000000000000000e+01,8.394875289390561768e-02
4.503999999999999915e+01,7.347798613199230111e-02
4.507999999999999829e+01,5.674087964657838906e-02
4.511999999999999744e+01,3.727043175873107073e-02
4.515999999999999659e+01,2.933195828421761644e-02
4.520000000000000284e+01,2.192649969413870345e-02
4.524000000000000199e+01,2.092016680840935380e-02
4.528000000000000114e+01,1.198098224263337806e-02
4.532000000000000028e+01,1.050748788344695213e-02
4.535999999999999943e+01,1.023360955675637306e-02
4.539999999999999858e+01,1.229257272767105523e-02
4.543999999999999773e+01,9.018435722788615411e-03
4.547999999999999687e+01,1.281002435879800491e-02
4.552000000000000313e+01,6.868928038235327070e-03
4.556000000000000227e+01,1.245980007341129098e-02
4.560000000000000142e+01,9.451212011365082988e-03
4.564000000000000057e+01,1.164185716809437027e-02
4.567999999999999972e+01,9.365983156898616963e-03
4.571999999999999886e+01,7.689776512373569517e-03
4.575999999999999801e+01,6.613236628759730680e-03
4.579999999999999716e+01,9.002758256024931752e-03
4.584000000000000341e+01,9.525512219614579862e-03
4.588000000000000256e+01,5.915045772031282505e-03
4.592000000000000171e+01,8.970336159325477052e-03
4.596000000000000085e+01,7.292461709938227211e-03
4.600000000000000000e+01,8.680683599972776124e-03
4.603999999999999915e+01,5.802361941576423404e-03
4.607999999999999829e+01,3.857003983564807198e-03
4.611999999999999744e+01,6.977551260994570813e-03
4.615999999999999659e+01,9.831174599311159543e-03
4.620000000000000284e+01,7.085044823959996997e-03
4.624000000000000199e+01,6.005140254164807213e-03
4.628000000000000114e+01,7.258063855265467317e-03
4.632000000000000028e+01,7.244155737565810028e-03
4.635999999999999943e+01,1.076296100722182181e-02
4.639999999999999858e+01,8.815330848632368932e-03
4.643999999999999773e+01,1.373343072137647898e-02
4.647999999999999687e+01,1.071866074128837408e-02
4.652000000000000313e+01,1.096996029707812161e-02
4.656000000000000227e+01,1.075434878482967732e-02
4.660000000000000142e+01,9.471882384794081192e-03
4.664000000000000057e+01,1.298867191688636569e-02
4.667999999999999972e+01,8.372607496019021656e-03
4.671999999999999886e+01,9.689023866629462370e-03
4.675999999999999801e+01,1.247167649659231686e-02
4.679999999999999716e+01,1.105443442580333023e-02
4.684000000000000341e+01,1.183669133105703930e-02
4.688000000000000256e+01,1.161874946531690420e-02
4.692000000000000171e+01,1.093389107970290514e-02
4.696000000000000085e+01,1.098200199643438457e-02
4.700000000000000000e+01,1.369623196594007067e-02
4.703999999999999915e+01,1.701010931205234472e-02
4.707999999999999829e+01,1.345767343269860250e-02
4.711999999999999744e+01,1.190475121774110974e-02
4.715999999999999659e+01,1.615098241668681128e-02
4.720000000000000284e+01,1.153108785958981489e-02
4.724000000000000199e+01,1.504345800372481647e-02
4.728000000000000114e+01,1.308937939290491341e-02
4.732000000000000028e+01,2.233394069885514047e-02
4.735999999999999943e+01,1.464647061542203969e-02
4.739999999999999858e+01,1.649113030949156747e-02
4.743999999999999773e+01,1.980201596500168887e-02
4.747999999999999687e+01,1.831305340785868707e-02
4.752000000000000313e+01,2.015680559971550281e-02
4.756000000000000227e+01,2.200025407931571406e-02
4.760000000000000142e+01,2.284349288425072122e-02
4.764000000000000057e+01,2.175327640922187708e-02
4.767999999999999972e+01,2.492901725969388568e-02
4.771999999999999886e+01,2.590466019024327202e-02
4.775999999999999801e+01,2.508016673777010638e-02
4.779999999999999716e+01,2.698844057999067250e-02
4.784000000000000341e+01,3.036293432605665157e-02
4.788000000000000256e+01,2.613783880325689160e-02
4.792000000000000171e+01,2.351228268700338367e-02
4.796000000000000085e+01,2.221962394309682370e-02
4.800000000000000000e+01,1.786027839652177748e-02
4.803999999999999915e+01,1.523379115343429999e-02
4.807999999999999829e+01,1.647329303559285502e-02
4.811999999999999744e+01,1.951231236682986203e-02
4.815999999999999659e+01,1.335188961824599480e-02
4.820000000000000284e+01,1.472377381867623521e-02
4.824000000000000199e+01,1.529541972361877188e-02
4.828000000000000114e+01,1.333365744245569064e-02
4.832000000000000028e+01,1.403799422400266173e-02
4.835999999999999943e+01,1.387543053567343899e-02
4.839999999999999858e+01,1.104613612974016459e-02
4.843999999999999773e+01,1.374933432496572815e-02
4.847999999999999687e+01,9.852839521581852750e-03
4.852000000000000313e+01,1.175547753627752788e-02
4.856000000000000227e+01,1.085806169611120385e-02
4.860000000000000142e+01,1.022696782238050571e-02
4.864000000000000057e+01,8.262346738687411860e-03
4.867999999999999972e+01,8.697177837428933869e-03
4.871999999999999886e+01,1.073153622752631015e-02
4.875999999999999801e+01,1.149902594749266198e-02
4.879999999999999716e+01,1.046636353468896607e-02
4.884000000000000341e+01,1.243309409527127395e-02
4.888000000000000256e+01,1.033321916982657233e-02
4.892000000000000171e+01,6.966473151212792224e-03
4.896000000000000085e+01,9.865475787093416771e-03
4.900000000000000000e+01,9.764436833427507165e-03
4.903999999999999915e+01,7.929902469544376428e-03
4.907999999999999829e+01,7.894871016511218961e-03
4.911999999999999744e+01,8.392795083479709026e-03
4.915999999999999659e+01,1.169012620642822034e-02
4.920000000000000284e+01,1.305397842479160374e-02
4.924000000000000199e+01,1.021789899107246324e-02
4.928000000000000114e+01,9.981243724724964822e-03
4.932000000000000028e+01,1.001089952114175667e-02
4.935999999999999943e+01,7.840432561495597891e-03
4.939999999999999858e+01,8.469369023272343283e-03
4.943999999999999773e+01,1.003121830163420346e-02
4.947999999999999687e+01,8.792999792665111627e-03
4.952000000000000313e+01,6.887844318123587106e-03
4.956000000000000227e+01,8.981976269945754141e-03
4.960000000000000142e+01,1.180903754398514999e-02
4.964000000000000057e+01,6.836501824410166038e-03
4.967999999999999972e+01,6.996477784789264902e-03
4.971999999999999886e+01,7.956041607216982059e-03
4.975999999999999801e+01,6.315514473326924900e-03
4.979999999999999716e+01,7.741026131704316533e-03
4.984000000000000341e+01,8.499595978433110988e-03
4.988000000000000256e+01,6.058129837576131486e-03
4.992000000000000171e+01,8.415869956566455687e-03
4.996000000000000085e+01,1.103991144616875419e-02
5.000000000000000000e+01,9.130707988707955844e-03
5.003999999999999915e+01,9.687596474968057647e-03
5.007999999999999829e+01,1.217729344231003111e-02
5.011999999999999744e+01,1.353342185791720463e-02
5.015999999999999659e+01,1.108956683163253056e-02
5.020000000000000284e+01,1.211170668267973899e-02
5.024000000000000199e+01,1.140033295072416172e-02
5.028000000000000114e+01,9.355407172665884674e-03
5.032000000000000028e+01,1.424281302437772033e-02
5.035999999999999943e+01,1.559687383383986936e-02
5.039999999999999858e+01,1.828379506431827492e-02
5.043999999999999773e+01,1.730404932680809985e-02
5.047999999999999687e+01,2.185676529672123808e-02
5.052000000000000313e+01,2.674243451372303182e-02
5.056000000000000227e+01,2.736149173146821406e-02
5.060000000000000142e+01,3.317970705380848817e-02
5.064000000000000057e+01,3.246485702363522546e-02
5.067999999999999972e+01,3.041644888976405628e-02
5.071999999999999886e+01,3.176736740124110059e-02
5.075999999999999801e+01,2.778510517090492307e-02
5.079999999999999716e+01,2.073611373473390959e-02
5.084000000000000341e+01,2.348584140918660856e-02
5.088000000000000256e+01,1.850261366858974368e-02
5.092000000000000171e+01,1.645208704477391787e-02
5.096000000000000085e+01,1.433454486203240494e-02
5.100000000000000000e+01,9.683553301537953586e-03
5.103999999999999915e+01,9.431788896964613672e-03
5.107999999999999829e+01,1.024623318705598397e-02
5.111999999999999744e+01,1.072701806674379761e-02
5.115999999999999659e+01,1.054084114471889704e-02
5.120000000000000284e+01,1.128755038586024342e-02
5.124000000000000199e+01,8.767542686482209316e-03
5.128000000000000114e+01,9.180230652049557738e-03
5.132000000000000028e+01,1.119240653460397590e-02
5.135999999999999943e+01,1.007118437358034760e-02
5.139999999999999858e+01,1.088275070357444183e-02
5.143999999999999773e+01,1.229389777662798222e-02
5.147999999999999687e+01,8.571834275526791017e-03
5.152000000000000313e+01,7.649142090593962287e-03
5.156000000000000227e+01,1.039240525849917038e-02
5.160000000000000142e+01,9.002361391620149894e-03
5.164000000000000057e+01,1.021170595230111791e-02
5.167999999999999972e+01,9.954156551076337803e-03
5.171999999999999886e+01,1.042950436681425869e-02
5.175999999999999801e+01,8.171410224038545139e-03
5.179999999999999716e+01,8.912664228444394307e-03
5.184000000000000341e+01,8.853625419005799191e-03
5.188000000000000256e+01,1.266051818765890312e-02
5.192000000000000171e+01,1.373396657476030208e-02
5.196000000000000085e+01,1.014081961836229770e-02
5.200000000000000000e+01,9.013734923468737920e-03
5.203999999999999915e+01,9.286146170561084684e-03
5.207999999999999829e+01,7.025091684393478322e-03
5.211999999999999744e+01,8.629965141760474745e-03
5.215999999999999659e+01,9.167899510767105881e-03
5.220000000000000284e+01,8.372252757214107555e-03
5.224000000000000199e+01,5.376439632912775358e-03
5.228000000000000114e+01,6.513193457547715448e-03
5.232000000000000028e+01,1.031598576894074415e-02
5.235999999999999943e+01,7.119064180391316936e-03
5.239999999999999858e+01,5.654934867541841666e-03
5.243999999999999773e+01,7.990068295040847132e-03
5.247999999999999687e+01,1.025816314475241908e-02
5.252000000000000313e+01,7.926314527441247204e-03
5.256000000000000227e+01,8.993764690540367521e-03
5.260000000000000142e+01,8.994269101924424678e-03
5.264000000000000057e+01,8.594430726933294934e-03
5.267999999999999972e+01,1.032734252998506602e-02
5.271999999999999886e+01,6.727043909007177080e-03
5.275999999999999801e+01,8.725832824269945040e-03
5.279999999999999716e+01,5.058108318434358271e-03
5.284000000000000341e+01,7.989375493969426076e-03
5.288000000000000256e+01,1.232012589054052969e-02
5.292000000000000171e+01,7.051399979248307304e-03
5.296000000000000085e+01,5.915230718980526645e-03
5.300000000000000000e+01,9.244919289527352493e-03
5.303999999999999915e+01,9.174542946156561893e-03
5.307999999999999829e+01,4.570875012239680041e-03
5.311999999999999744e+01,8.965967375334636669e-03
5.315999999999999659e+01,5.961371580637141697e-03
5.320000000000000284e+01,8.755837730155396903e-03
5.324000000000000199e+01,7.616953080078942701e-03
5.328000000000000114e+01,1.047729952073090526e-02
5.332000000000000028e+01,8.604369664949837113e-03
5.335999999999999943e+01,1.086399040259800226e-02
5.339999999999999858e+01,6.723824704545664638e-03
5.343999999999999773e+01,6.849529102623412406e-03
5.347999999999999687e+01,9.041311206443742102e-03
5.352000000000000313e+01,9.032907555211104264e-03
5.356000000000000227e+01,9.490731827563537309e-03
5.360000000000000142e+01,7.348406990684313266e-03
5.364000000000000057e+01,8.472043864488496695e-03
5.367999999999999972e+01,8.928680773730227060e-03
5.371999999999999886e+01,7.718411756000906516e-03
5.375999999999999801e+01,1.064068727410563166e-02
5.379999999999999716e+01,9.829584583312166515e-03
5.384000000000000341e+01,9.751347004226876281e-03
5.388000000000000256e+01,1.113923785929952885e-02
5.392000000000000171e+01,9.393691902184884979e-03
5.396000000000000085e+01,7.447764239960736991e-03
5.400000000000000000e+01,8.701132479474359832e-03
5.403999999999999915e+01,1.068736280189854469e-02
5.407999999999999829e+01,1.173994567372533063e-02
5.411999999999999744e+01,9.259126561907594574e-03
5.415999999999999659e+01,8.177771286821242450e-03
5.420000000000000284e+01,7.495973886057684214e-03
5.424000000000000199e+01,7.147073396747483272e-03
5.428000000000000114e+01,9.130879926429221263e-03
5.432000000000000028e+01,1.044767679939618242e-02
5.435999999999999943e+01,7.164502340402515747e-03
5.439999999999999858e+01,1.288006879411605042e-02
5.443999999999999773e+01,7.729589136015727578e-03
5.447999999999999687e+01,7.044944895627783775e-03
5.452000000000000313e+01,7.759759040135558693e-03
5.456000000000000227e+01,9.340748106900003886e-03
5.460000000000000142e+01,7.388327920905707683e-03
5.464000000000000057e+01,5.168855374780116640e-03
5.467999999999999972e+01,9.881648430637015451e-03
5.471999999999999886e+01,1.032776648824729367e-02
5.475999999999999801e+01,9.240283583358894354e-03
5.479999999999999716e+01,9.018971966170047372e-03
5.484000000000000341e+01,1.039709495913057787e-02
5.488000000000000256e+01,6.975257673926913739e-03
5.492000000000000171e+01,8.885833785510098906e-03
5.496000000000000085e+01,7.996259120708166038e-03
5.500000000000000000e+01,8.039513071918157061e-03
5.503999999999999915e+01,9.815519318699799170e-03
5.507999999999999829e+01,1.152444761332523798e-02
5.511999999999999744e+01,1.443284413512379086e-02
5.515999999999999659e+01,1.167469149601229293e-02
5.520000000000000284e+01,1.504887229869029605e-02
5.524000000000000199e+01,1.542291701333673055e-02
5.528000000000000114e+01,1.599652217546913488e-02
5.532000000000000028e+01,2.350238324743170182e-02
5.535999999999999943e+01,2.420846605881769517e-02
5.539999999999999858e+01,2.278099500156324092e-02
5.543999999999999773e+01,2.341957196783494774e-02
5.547999999999999687e+01,2.292449921059623932e-02
5.552000000000000313e+01,2.142909683830748063e-02
5.556000000000000227e+01,1.820010031699984682e-02
5.560000000000000142e+01,1.603724403953120381e-02
5.564000000000000057e+01,1.254075454418425960e-02
5.567999999999999972e+01,1.464330836463308486e-02
5.571999999999999886e+01,1.474562418458517585e-02
5.575999999999999801e+01,1.344764461227047035e-02
5.579999999999999716e+01,1.354910404054686206e-02
5.584000000000000341e+01,1.018379579462933525e-02
5.588000000000000256e+01,1.221754676438015219e-02
5.592000000000000171e+01,1.491747098923417933e-02
5.596000000000000085e+01,1.321738072307660286e-02
5.600000000000000000e+01,1.165017964362367875e-02
5.603999999999999915e+01,1.294894178662338129e-02
5.607999999999999829e+01,1.418061083347890543e-02
5.611999999999999744e+01,1.414529975045182054e-02
5.615999999999999659e+01,1.610936543016959488e-02
5.620000000000000284e+01,1.480663905518762001e-02
5.624000000000000199e+01,2.003619251490722578e-02
5.628000000000000114e+01,2.026578342354963536e-02
5.632000000000000028e+01,2.142818295813981797e-02
5.635999999999999943e+01,2.105695729985054832e-02
5.639999999999999858e+01,2.195184084153967846e-02
5.643999999999999773e+01,2.477943654854711242e-02
5.647999999999999687e+01,2.527348096007727904e-02
5.652000000000000313e+01,2.763357596829672108e-02
5.656000000000000227e+01,2.866002382616892816e-02
5.660000000000000142e+01,2.935272928458346545e-02
5.664000000000000057e+01,3.337801137882737829e-02
5.667999999999999972e+01,3.213668343595912219e-02
5.671999999999999886e+01,3.722764698734845612e-02
5.675999999999999801e+01,3.685201821877678863e-02
5.679999999999999716e+01,3.420949366576159917e-02
5.684000000000000341e+01,2.876678986566390955e-02
5.688000000000000256e+01,2.725660228082793859e-02
5.692000000000000171e+01,2.741247816375625562e-02
5.696000000000000085e+01,2.303500369746510137e-02
5.700000000000000000e+01,2.105685541562853438e-02
5.703999999999999915e+01,1.981152378473856682e-02
5.707999999999999829e+01,2.036557391279469886e-02
5.711999999999999744e+01,2.331894840802684402e-02
5.715999999999999659e+01,2.427206309541959928e-02
5.720000000000000284e+01,2.095846522747548887e-02
5.724000000000000199e+01,2.397715097891521194e-02
5.728000000000000114e+01,2.426231117702764423e-02
5.732000000000000028e+01,2.574690628553960234e-02
5.735999999999999943e+01,2.656444569961330729e-02
5.739999999999999858e+01,2.678158917059919250e-02
5.743999999999999773e+01,2.953137287690480936e-02
5.747999999999999687e+01,2.748115693067744447e-02
5.752000000000000313e+01,2.563046750940297172e-02
5.756000000000000227e+01,2.317937972200256533e-02
5.760000000000000142e+01,2.072783617670617348e-02
5.764000000000000057e+01,1.967570376706300264e-02
5.767999999999999972e+01,1.648998296048677717e-02
5.771999999999999886e+01,1.430370993538507100e-02
5.775999999999999801e+01,1.451675158530707672e-02
5.779999999999999716e+01,1.066305266482927769e-02
5.784000000000000341e+01,1.500811827642076039e-02
5.788000000000000256e+01,1.015359460862815671e-02
5.792000000000000171e+01,7.565062478601326107e-03
5.796000000000000085e+01,1.030889770763786933e-02
5.800000000000000000e+01,1.191904505031428189e-02
5.803999999999999915e+01,9.729089616473526533e-03
5.807999999999999829e+01,7.938633298282194578e-03
5.811999999999999744e+01,9.680712274147844354e-03
5.815999999999999659e+01,8.422610941537008594e-03
5.820000000000000284e+01,9.030534763715673818e-03
5.824000000000000199e+01,1.323765241978268337e-02
5.828000000000000114e+01,1.191149437991701268e-02
5.832000000000000028e+01,8.118436465416323244e-03
5.835999999999999943e+01,1.005770199504343702e-02
5.839999999999999858e+01,9.596726795626406639e-03
5.843999999999999773e+01,6.935491332735523387e-03
5.847999999999999687e+01,5.606993927438006821e-03
5.852000000000000313e+01,6.611139330623364875e-03
5.856000000000000227e+01,8.214757651673730218e-03
5.860000000000000142e+01,6.284906144013414735e-03
5.864000000000000057e+01,7.620940627096566174e-03
5.867999999999999972e+01,6.023447283939412263e-03
5.871999999999999886e+01,9.291687290645240377e-03
5.875999999999999801e+01,8.893134331382411550e-03
5.879999999999999716e+01,6.560957085249797746e-03
5.884000000000000341e+01,7.028040301293502455e-03
5.888000000000000256e+01,5.628158376058345347e-03
5.892000000000000171e+01,5.294366416622058903e-03
5.896000000000000085e+01,6.159984531445015024e-03
5.900000000000000000e+01,7.091786043898751050e-03
5.903999999999999915e+01,9.222996419092683099e-03
5.907999999999999829e+01,5.554277554723787563e-03
5.911999999999999744e+01,6.751285982622680371e-03
5.915999999999999659e+01,3.148269316088749773e-03
5.920000000000000284e+01,6.010827300942070579e-03
5.924000000000000199e+01,5.939848978921836997e-03
5.928000000000000114e+01,4.535182314907023650e-03
5.932000000000000028e+01,4.529901344645599626e-03
5.935999999999999943e+01,6.723929747697296455e-03
5.939999999999999858e+01,6.717683349046681650e-03
5.943999999999999773e+01,6.977594756001926149e-03
5.947999999999999687e+01,4.037324793086738764e-03
5.952000000000000313e+01,3.096380709116787564e-03
5.956000000000000227e+01,7.354459039609573257e-03
5.960000000000000142e+01,4.479393113467021285e-03
5.964000000000000057e+01,7.669933032697364220e-03
5.967999999999999972e+01,7.526967839039809711e-03
5.971999999999999886e+01,6.650250854022397851e-03
5.975999999999999801e+01,5.239762543215461567e-03
5.979999999999999716e+01,3.895445514848917823e-03
5.984000000000000341e+01,3.750525234032174929e-03
5.988000000000000256e+01,5.404944308995179338e-03
5.992000000000000171e+01,3.459213208073408808e-03
5.996000000000000085e+01,5.179310250490601689e-03
