2.003999999999999915e+01,5.778506705108565900e-02
2.007999999999999829e+01,6.358723810437566515e-02
2.012000000000000099e+01,5.081431543783077043e-02
2.016000000000000014e+01,5.369807279264574018e-02
2.019999999999999929e+01,5.021341183379541412e-02
2.023999999999999844e+01,3.929887995277007301e-02
2.028000000000000114e+01,7.429235838835168693e-02
2.032000000000000028e+01,5.409069277384125074e-02
2.035999999999999943e+01,4.583061976294368345e-02
2.039999999999999858e+01,5.296185101741290868e-02
2.044000000000000128e+01,5.478610122288794793e-02
2.048000000000000043e+01,5.979497151965175450e-02
2.051999999999999957e+01,6.904991013226059737e-02
2.055999999999999872e+01,5.548392924715826041e-02
2.060000000000000142e+01,5.969750510473653682e-02
2.064000000000000057e+01,5.250074905837455452e-02
2.067999999999999972e+01,5.432657943434627407e-02
2.071999999999999886e+01,3.173930591990063027e-02
2.076000000000000156e+01,4.497623746128113359e-02
2.080000000000000071e+01,3.008498427042673867e-02
2.083999999999999986e+01,3.828052675305472496e-02
2.087999999999999901e+01,4.939530480307033344e-02
2.092000000000000171e+01,5.918351456236676383e-02
2.096000000000000085e+01,4.402788207111848345e-02
2.100000000000000000e+01,6.257354065077026795e-02
2.103999999999999915e+01,7.687363571830779785e-02
2.107999999999999829e+01,6.808742018830238329e-02
2.112000000000000099e+01,4.709475863823520819e-02
2.116000000000000014e+01,4.414698574730621661e-02
2.119999999999999929e+01,5.340612203260955426e-02
2.123999999999999844e+01,5.921577165831408418e-02
2.128000000000000114e+01,4.114301191419168779e-02
2.132000000000000028e+01,3.341961654143964233e-02
2.135999999999999943e+01,6.205111855312722691e-02
2.139999999999999858e+01,4.291757024707604229e-02
2.144000000000000128e+01,4.607469692245522858e-02
2.148000000000000043e+01,6.356161826329424780e-02
2.151999999999999957e+01,6.300409437337421703e-02
2.155999999999999872e+01,5.236300118471232806e-02
2.160000000000000142e+01,6.029749775170982484e-02
2.164000000000000057e+01,3.108143501443267828e-02
2.167999999999999972e+01,5.308055795723579107e-02
2.171999999999999886e+01,3.580621637874566859e-02
2.176000000000000156e+01,4.533369651613436413e-02
2.180000000000000071e+01,4.663513243185222340e-02
2.183999999999999986e+01,5.616300339017612359e-02
2.187999999999999901e+01,5.056539803541420380e-02
2.192000000000000171e+01,6.407409010876315147e-02
2.196000000000000085e+01,4.441264440401969382e-02
2.200000000000000000e+01,5.606417153355730543e-02
2.203999999999999915e+01,3.348410608451632409e-02
2.207999999999999829e+01,3.850193262793896731e-02
2.212000000000000099e+01,2.680209408161581333e-02
2.216000000000000014e+01,2.332867304208432677e-02
2.219999999999999929e+01,4.692241221081975416e-02
2.223999999999999844e+01,3.973426169482291437e-02
2.228000000000000114e+01,4.846803762954818295e-02
2.232000000000000028e+01,3.942268709811069805e-02
2.235999999999999943e+01,5.850593842356550944e-02
2.239999999999999858e+01,3.592742452692267163e-02
2.244000000000000128e+01,2.555575185523024234e-02
2.248000000000000043e+01,4.198586144383386481e-02
2.251999999999999957e+01,5.523177683371312957e-02
2.255999999999999872e+01,5.069855260556883209e-02
2.260000000000000142e+01,2.573256052609289649e-02
2.264000000000000057e+01,3.207950620926893620e-02
2.267999999999999972e+01,1.985121788609159679e-02
2.271999999999999886e+01,3.283252304655043252e-02
2.276000000000000156e+01,2.750395242083530575e-02
2.280000000000000071e+01,1.156101933683056221e-02
2.283999999999999986e+01,4.099523107464893984e-02
2.287999999999999901e+01,7.334856878101339572e-02
2.292000000000000171e+01,4.201501662653178010e-02
2.296000000000000085e+01,5.685469053034229031e-02
2.300000000000000000e+01,4.250460872665989126e-02
2.303999999999999915e+01,3.717698401867797903e-02
2.307999999999999829e+01,4.830196713014756754e-02
2.312000000000000099e+01,4.111705472765163349e-02
2.316000000000000014e+01,1.986804628534375589e-02
2.319999999999999929e+01,1.984816596095300908e-02
2.323999999999999844e+01,4.609930104103215215e-02
2.328000000000000114e+01,4.103776423671535306e-02
2.332000000000000028e+01,3.544561543546863314e-02
2.335999999999999943e+01,3.144575327838017992e-02
2.339999999999999858e+01,4.947109609172430783e-02
2.344000000000000128e+01,4.865580064702223345e-02
2.348000000000000043e+01,4.757524704161597562e-02
2.351999999999999957e+01,2.075462308674841383e-02
2.355999999999999872e+01,2.232789783360117700e-02
2.360000000000000142e+01,2.735098430168310044e-02
2.364000000000000057e+01,4.484620883954391901e-02
2.367999999999999972e+01,5.650354957002067663e-02
2.371999999999999886e+01,3.950182034568770761e-02
2.376000000000000156e+01,3.603367303173551917e-02
2.380000000000000071e+01,5.167172012298294065e-02
2.383999999999999986e+01,3.652778985042508947e-02
2.387999999999999901e+01,3.226380887098614231e-02
2.392000000000000171e+01,2.879599603563052015e-02
2.396000000000000085e+01,2.214391009038454289e-02
2.400000000000000000e+01,1.973770175899886709e-02
2.403999999999999915e+01,1.520866635030142938e-02
2.407999999999999829e+01,1.943666844177389594e-02
2.412000000000000099e+01,4.038258396543335793e-02
2.416000000000000014e+01,3.452694365146944527e-02
2.419999999999999929e+01,3.955123509480994864e-02
2.423999999999999844e+01,3.900297464722420060e-02
2.428000000000000114e+01,3.500506094980003480e-02
2.432000000000000028e+01,5.064403837014299498e-02
2.435999999999999943e+01,4.505406367977454057e-02
2.439999999999999858e+01,2.911500145617572713e-02
2.444000000000000128e+01,3.360891158681294372e-02
2.448000000000000043e+01,2.616155417546776191e-02
2.451999999999999957e+01,6.754096337664966532e-02
2.455999999999999872e+01,4.496803024180204972e-02
2.460000000000000142e+01,3.433645736102297619e-02
2.464000000000000057e+01,4.573002149939456307e-02
2.467999999999999972e+01,3.562925338710678375e-02
2.471999999999999886e+01,4.118491541082076879e-02
2.476000000000000156e+01,4.939423777603661747e-02
2.480000000000000071e+01,5.893040527011175062e-02
2.483999999999999986e+01,4.511469351668810635e-02
2.487999999999999901e+01,3.262582250817006729e-02
2.492000000000000171e+01,5.596092858988752777e-02
2.496000000000000085e+01,2.595817458113236151e-02
2.500000000000000000e+01,2.620677859186321124e-02
2.503999999999999915e+01,2.963975280852436042e-02
2.507999999999999829e+01,5.828219118218835870e-02
2.512000000000000099e+01,3.677111194707004260e-02
2.516000000000000014e+01,3.197788915274088484e-02
2.519999999999999929e+01,4.124889456589281300e-02
2.523999999999999844e+01,2.371828495804702980e-02
2.528000000000000114e+01,2.343625042332632413e-02
2.532000000000000028e+01,2.554248293829861766e-02
2.535999999999999943e+01,4.861236260030581124e-02
2.539999999999999858e+01,1.064884254023455018e-02
2.544000000000000128e+01,2.469638992682083103e-02
2.548000000000000043e+01,2.414898893067248323e-02
2.551999999999999957e+01,3.766579860619050091e-02
2.555999999999999872e+01,4.905969790927743046e-02
2.560000000000000142e+01,5.408488298182588527e-02
2.564000000000000057e+01,2.487827819788086467e-02
2.567999999999999972e+01,4.157938781367057773e-02
2.571999999999999886e+01,2.112971454354867565e-02
2.576000000000000156e+01,3.199280806188534859e-02
2.580000000000000071e+01,2.268832097487710406e-02
2.583999999999999986e+01,4.257369545930895366e-02
2.587999999999999901e+01,3.486133203871448483e-02
2.592000000000000171e+01,2.635285153856297552e-02
2.596000000000000085e+01,4.172697395125846143e-02
2.600000000000000000e+01,3.109552750779593158e-02
2.603999999999999915e+01,4.514276740562613022e-02
2.607999999999999829e+01,1.885485344015572565e-02
2.612000000000000099e+01,2.149142309815443505e-02
2.616000000000000014e+01,5.146029856284658338e-02
2.619999999999999929e+01,3.472531108911250386e-02
2.623999999999999844e+01,4.160754858025455388e-02
2.628000000000000114e+01,3.442551905739160700e-02
2.632000000000000028e+01,5.086071011545088144e-02
2.635999999999999943e+01,4.580147685982398353e-02
2.639999999999999858e+01,4.551871490771364909e-02
2.644000000000000128e+01,4.099009352661660277e-02
2.648000000000000043e+01,3.274633573282242915e-02
2.651999999999999957e+01,2.980976787488061677e-02
2.655999999999999872e+01,3.271111296908042060e-02
2.660000000000000142e+01,4.675762090610780658e-02
2.664000000000000057e+01,5.416999501706649262e-02
2.667999999999999972e+01,6.264374862983988768e-02
2.671999999999999886e+01,4.750015736807039479e-02
2.676000000000000156e+01,4.509389580601996794e-02
2.680000000000000071e+01,5.860931300130907406e-02
2.683999999999999986e+01,4.505766489239424605e-02
2.687999999999999901e+01,3.628246178327402399e-02
2.692000000000000171e+01,6.651547741514519940e-02
2.696000000000000085e+01,3.332674440064303106e-02
2.700000000000000000e+01,3.861550053491261125e-02
2.703999999999999915e+01,5.159968154653365308e-02
2.707999999999999829e+01,5.662289159967490854e-02
2.712000000000000099e+01,4.545888777423261196e-02
2.716000000000000014e+01,3.588696235514961252e-02
2.719999999999999929e+01,4.515568241910231095e-02
2.723999999999999844e+01,3.080702911281320983e-02
2.728000000000000114e+01,4.883250971639598731e-02
2.732000000000000028e+01,6.208135745923547971e-02
2.735999999999999943e+01,4.454803494430824989e-02
2.739999999999999858e+01,3.975200705747064522e-02
2.744000000000000128e+01,4.450892035714838768e-02
2.748000000000000043e+01,4.448919202817548657e-02
2.751999999999999957e+01,3.412020519177966227e-02
2.755999999999999872e+01,1.844384713451330954e-02
2.760000000000000142e+01,5.000191128275899288e-02
2.764000000000000057e+01,3.379458316488004321e-02
2.767999999999999972e+01,5.739151995283207214e-02
2.771999999999999886e+01,3.959176258990065173e-02
2.776000000000000156e+01,4.063262002232964631e-02
2.780000000000000071e+01,6.608670474493742730e-02
2.783999999999999986e+01,3.050725603487973794e-02
2.787999999999999901e+01,2.995553439637267668e-02
2.792000000000000171e+01,4.267180409852251721e-02
2.796000000000000085e+01,3.522037482857844071e-02
2.800000000000000000e+01,3.572968043267523569e-02
2.803999999999999915e+01,6.065220017508977240e-02
2.807999999999999829e+01,7.018354124387649051e-02
2.812000000000000099e+01,3.805280363787814923e-02
2.816000000000000014e+01,4.360340380092378454e-02
2.819999999999999929e+01,4.358123506733647262e-02
2.823999999999999844e+01,3.347513097487621325e-02
2.828000000000000114e+01,5.229339213913629381e-02
2.832000000000000028e+01,3.767580439685426497e-02
2.835999999999999943e+01,2.756921794709101675e-02
2.839999999999999858e+01,5.142887965664671990e-02
2.844000000000000128e+01,4.928283879945752344e-02
2.848000000000000043e+01,1.821210453808249502e-02
2.851999999999999957e+01,2.853776477582363122e-02
2.855999999999999872e+01,3.435208680567266443e-02
2.860000000000000142e+01,2.052940000006477084e-02
2.864000000000000057e+01,4.093831080604812267e-02
2.867999999999999972e+01,3.693368151822437606e-02
2.871999999999999886e+01,6.185339337537561211e-02
2.876000000000000156e+01,4.458026627784649615e-02
2.880000000000000071e+01,4.773987260907867208e-02
2.883999999999999986e+01,4.691885059684729881e-02
2.887999999999999901e+01,5.724286648476398232e-02
2.892000000000000171e+01,5.482928370887032304e-02
2.896000000000000085e+01,5.719203194997583145e-02
2.900000000000000000e+01,4.655181453918432605e-02
2.903999999999999915e+01,3.140023261677875321e-02
2.907999999999999829e+01,4.013108263302736511e-02
2.912000000000000099e+01,5.310752969010157365e-02
2.916000000000000014e+01,4.087432253724741782e-02
2.919999999999999929e+01,4.748165126858731877e-02
2.923999999999999844e+01,4.028991338376963771e-02
2.928000000000000114e+01,3.177114908507463337e-02
2.932000000000000028e+01,4.952306701037078457e-02
2.935999999999999943e+01,4.392285799478641561e-02
2.939999999999999858e+01,5.610172348697939348e-02
2.944000000000000128e+01,5.925803827752684771e-02
2.948000000000000043e+01,5.604542621578342126e-02
2.951999999999999957e+01,6.450854219082480245e-02
2.955999999999999872e+01,6.580663911722245407e-02
2.960000000000000142e+01,1.061128079221635573e-01
2.964000000000000057e+01,8.644679507201440127e-02
2.967999999999999972e+01,1.187916173189783181e-01
2.971999999999999886e+01,1.296418311262021172e-01
2.976000000000000156e+01,1.603940005464768170e-01
2.980000000000000071e+01,1.608945912066641337e-01
2.983999999999999986e+01,1.653753768479611641e-01
2.987999999999999901e+01,1.626911259047995051e-01
2.992000000000000171e+01,1.385122555620133811e-01
2.996000000000000085e+01,1.220286500822701237e-01
3.000000000000000000e+01,1.156285707107911065e-01
3.003999999999999915e+01,1.195773778597324921e-01
3.007999999999999829e+01,1.028276446535416055e-01
3.012000000000000099e+01,9.881505702101567312e-02
3.016000000000000014e+01,1.009055476668495599e-01
3.019999999999999929e+01,1.112220152321316963e-01
3.023999999999999844e+01,9.632876940411078115e-02
3.028000000000000114e+01,1.114212296505010802e-01
3.032000000000000028e+01,1.092648502436285307e-01
3.035999999999999943e+01,1.620382573157274075e-01
3.039999999999999858e+01,1.689036591042320512e-01
3.044000000000000128e+01,2.081430216364386077e-01
3.048000000000000043e+01,2.768373540749057282e-01
3.051999999999999957e+01,3.582688101672694692e-01
3.055999999999999872e+01,4.407614331396954022e-01
3.060000000000000142e+01,5.216615947588754132e-01
3.064000000000000057e+01,5.088884691986369502e-01
3.067999999999999972e+01,4.531263116564306359e-01
3.071999999999999886e+01,4.249615726396920867e-01
3.076000000000000156e+01,3.604418623603603544e-01
3.080000000000000071e+01,3.028212831001585448e-01
3.083999999999999986e+01,2.321976373571252583e-01
3.087999999999999901e+01,2.172998374097641350e-01
3.092000000000000171e+01,1.917872300328158919e-01
3.096000000000000085e+01,1.718469318864247475e-01
3.100000000000000000e+01,1.800347621299296930e-01
3.103999999999999915e+01,1.454989032678085659e-01
3.107999999999999829e+01,1.759765703861348451e-01
3.112000000000000099e+01,1.700992465140763188e-01
3.116000000000000014e+01,1.719171217457557688e-01
3.119999999999999929e+01,1.700196019114717794e-01
3.123999999999999844e+01,1.824513419003002124e-01
3.128000000000000114e+01,1.723269375457593955e-01
3.132000000000000028e+01,2.054563124808883035e-01
3.135999999999999943e+01,2.303591193118832703e-01
3.139999999999999858e+01,2.520772453252967393e-01
3.144000000000000128e+01,2.581386459348949391e-01
3.148000000000000043e+01,2.822443696736085528e-01
3.151999999999999957e+01,3.145759979965346287e-01
3.155999999999999872e+01,4.087367747465887602e-01
3.160000000000000142e+01,4.561933926413440088e-01
3.164000000000000057e+01,5.153256223981121931e-01
3.167999999999999972e+01,5.476558842256125104e-01
3.171999999999999886e+01,6.293432433180765617e-01
3.176000000000000156e+01,6.683068738493314065e-01
3.180000000000000071e+01,7.433594670549397154e-01
3.183999999999999986e+01,7.661352735665921676e-01
3.187999999999999901e+01,7.960755145181337422e-01
3.192000000000000171e+01,8.313226494886550855e-01
3.196000000000000085e+01,9.257452849252043592e-01
3.200000000000000000e+01,1.000000000000000000e+00
3.203999999999999915e+01,8.882351649378588121e-01
3.207999999999999829e+01,7.509951530473473191e-01
3.211999999999999744e+01,6.235731884861948071e-01
3.215999999999999659e+01,5.091536203120217152e-01
3.220000000000000284e+01,4.228621147684399895e-01
3.224000000000000199e+01,3.577992419560110382e-01
3.228000000000000114e+01,2.890209148942442519e-01
3.232000000000000028e+01,2.674767513847234879e-01
3.235999999999999943e+01,2.461975683039079599e-01
3.239999999999999858e+01,1.912169501307803277e-01
3.243999999999999773e+01,1.951464435158259125e-01
3.247999999999999687e+01,1.736007381527326920e-01
3.252000000000000313e+01,1.618730581992300355e-01
3.256000000000000227e+01,1.578405006302761870e-01
3.260000000000000142e+01,1.569918989836310008e-01
3.264000000000000057e+01,1.479166590895932276e-01
3.267999999999999972e+01,1.165505607371300767e-01
3.271999999999999886e+01,1.138432217278255859e-01
3.275999999999999801e+01,1.159120054977210990e-01
3.279999999999999716e+01,1.145306691267130583e-01
3.284000000000000341e+01,1.014729696946974485e-01
3.288000000000000256e+01,1.048673410478092455e-01
3.292000000000000171e+01,1.045462230799537318e-01
3.296000000000000085e+01,1.023671518280858950e-01
3.300000000000000000e+01,1.081485414531548617e-01
3.303999999999999915e+01,1.009267440366664048e-01
3.307999999999999829e+01,1.276709383182076663e-01
3.311999999999999744e+01,1.164678563857238086e-01
3.315999999999999659e+01,1.020799971886779123e-01
3.320000000000000284e+01,1.182084092600006464e-01
3.324000000000000199e+01,1.149649208306866982e-01
3.328000000000000114e+01,1.151707136642083351e-01
3.332000000000000028e+01,1.392587060868398230e-01
3.335999999999999943e+01,1.198267944567895094e-01
3.339999999999999858e+01,1.242770780318954160e-01
3.343999999999999773e+01,1.170509656663411696e-01
3.347999999999999687e+01,1.164584748533360886e-01
3.352000000000000313e+01,1.317872945455627332e-01
3.356000000000000227e+01,9.165488203923256860e-02
3.360000000000000142e+01,1.231699225221375149e-01
3.364000000000000057e+01,1.337208649598389532e-01
3.367999999999999972e+01,1.317993104926198644e-01
3.371999999999999886e+01,1.240393220318317807e-01
3.375999999999999801e+01,1.380386082153433891e-01
3.379999999999999716e+01,1.557525097701247807e-01
3.384000000000000341e+01,1.681586959636731105e-01
3.388000000000000256e+01,1.606622213766893126e-01
3.392000000000000171e+01,2.115450520364694775e-01
3.396000000000000085e+01,1.944945861836674394e-01
3.400000000000000000e+01,2.204323901539542441e-01
3.403999999999999915e+01,2.309786888460649557e-01
3.407999999999999829e+01,2.298485565258862329e-01
3.411999999999999744e+01,2.730335004735315874e-01
3.415999999999999659e+01,3.016230203794694753e-01
3.420000000000000284e+01,3.031450716574660142e-01
3.424000000000000199e+01,3.426134901281611689e-01
3.428000000000000114e+01,3.645674893357538360e-01
3.432000000000000028e+01,3.626383645890723928e-01
3.435999999999999943e+01,3.633623741094526571e-01
3.439999999999999858e+01,3.699238669545154012e-01
3.443999999999999773e+01,3.579094813520359852e-01
3.447999999999999687e+01,3.737576708333353315e-01
3.452000000000000313e+01,3.410440032160949597e-01
3.456000000000000227e+01,3.436230592144073337e-01
3.460000000000000142e+01,3.093162083120841177e-01
3.464000000000000057e+01,2.893384309148427369e-01
3.467999999999999972e+01,2.696255068116502618e-01
3.471999999999999886e+01,2.507081590187962283e-01
3.475999999999999801e+01,2.299327593029722727e-01
3.479999999999999716e+01,2.189752600540597338e-01
3.484000000000000341e+01,2.019139028320935392e-01
3.488000000000000256e+01,1.941397164848185919e-01
3.492000000000000171e+01,1.638091863242826240e-01
3.496000000000000085e+01,1.852238393157847052e-01
3.500000000000000000e+01,1.562190706760936409e-01
3.503999999999999915e+01,1.633030871606323264e-01
3.507999999999999829e+01,1.679983089781203476e-01
3.511999999999999744e+01,1.381958588364724239e-01
3.515999999999999659e+01,1.466050880761887998e-01
3.520000000000000284e+01,1.534216038853235542e-01
3.524000000000000199e+01,1.421929226156455894e-01
3.528000000000000114e+01,1.609496734232746251e-01
3.532000000000000028e+01,1.648455740177349749e-01
3.535999999999999943e+01,1.334477016887989087e-01
3.539999999999999858e+01,1.710435576688092152e-01
3.543999999999999773e+01,1.765299875910668614e-01
3.547999999999999687e+01,1.897113798835645404e-01
3.552000000000000313e+01,2.153642592287215718e-01
3.556000000000000227e+01,2.118266945856600025e-01
3.560000000000000142e+01,2.074924824046477934e-01
3.564000000000000057e+01,2.339397703855502775e-01
3.567999999999999972e+01,2.622440324858796301e-01
3.571999999999999886e+01,2.531316011019561496e-01
3.575999999999999801e+01,2.745353006998839107e-01
3.579999999999999716e+01,3.020417695074381070e-01
3.584000000000000341e+01,3.136259091895922113e-01
3.588000000000000256e+01,3.398044170296792843e-01
3.592000000000000171e+01,3.925186080217132334e-01
3.596000000000000085e+01,4.454975821645376088e-01
3.600000000000000000e+01,4.833503062264540295e-01
3.603999999999999915e+01,5.302247749916002562e-01
3.607999999999999829e+01,5.858556236638664538e-01
3.611999999999999744e+01,5.844329242262599200e-01
3.615999999999999659e+01,6.459005715549778204e-01
3.620000000000000284e+01,6.330660971212158650e-01
3.624000000000000199e+01,6.719767356962335070e-01
3.628000000000000114e+01,6.602025198926659844e-01
3.632000000000000028e+01,6.285255095979794815e-01
3.635999999999999943e+01,5.979093483467144976e-01
3.639999999999999858e+01,5.943595691519405477e-01
3.643999999999999773e+01,5.204880941048226628e-01
3.647999999999999687e+01,4.943812798526263652e-01
3.652000000000000313e+01,4.401454194213000326e-01
3.656000000000000227e+01,4.148334705074893658e-01
3.660000000000000142e+01,3.467975278032727759e-01
3.664000000000000057e+01,3.196268094186091036e-01
3.667999999999999972e+01,2.887403956671559802e-01
3.671999999999999886e+01,2.636913381057289230e-01
3.675999999999999801e+01,2.452757223547506193e-01
3.679999999999999716e+01,1.955466938312068748e-01
3.684000000000000341e+01,1.949091193954588519e-01
3.688000000000000256e+01,1.568547879081296503e-01
3.692000000000000171e+01,1.652382800833112342e-01
3.696000000000000085e+01,1.539843052998776662e-01
3.700000000000000000e+01,1.642240650064871466e-01
3.703999999999999915e+01,1.312090816026792173e-01
3.707999999999999829e+01,1.186263778884281556e-01
3.711999999999999744e+01,1.190457987560293585e-01
3.715999999999999659e+01,1.199952996192491655e-01
3.720000000000000284e+01,9.732688130999576914e-02
3.724000000000000199e+01,9.137565746452815107e-02
3.728000000000000114e+01,9.285393474620973198e-02
3.732000000000000028e+01,7.708298877868287324e-02
3.735999999999999943e+01,6.263819965928972555e-02
3.739999999999999858e+01,7.154466133910312997e-02
3.743999999999999773e+01,6.320189319377755854e-02
3.747999999999999687e+01,7.502602021410727240e-02
3.752000000000000313e+01,5.792495844348664880e-02
3.756000000000000227e+01,4.745729464377817369e-02
3.760000000000000142e+01,6.087159589165831025e-02
3.764000000000000057e+01,3.846127406519630337e-02
3.767999999999999972e+01,6.646917331568213960e-02
3.771999999999999886e+01,6.104070854507035598e-02
3.775999999999999801e+01,5.056967620362876753e-02
3.779999999999999716e+01,2.523765774645485294e-02
3.784000000000000341e+01,4.846631336938960616e-02
3.788000000000000256e+01,5.338426463890764279e-02
3.792000000000000171e+01,5.219818915315612567e-02
3.796000000000000085e+01,4.729634815735640763e-02
3.800000000000000000e+01,3.814801425126525952e-02
3.803999999999999915e+01,5.128944565621888774e-02
3.807999999999999829e+01,4.452798612307289072e-02
3.811999999999999744e+01,3.272393929130558432e-02
3.815999999999999659e+01,4.851690327731517788e-02
3.820000000000000284e+01,4.254943152036274462e-02
3.824000000000000199e+01,2.384385036899783206e-02
3.828000000000000114e+01,3.751180033387550156e-02
3.832000000000000028e+01,3.101148360465946080e-02
3.835999999999999943e+01,4.069757475561153193e-02
3.839999999999999858e+01,3.817627295251001945e-02
3.843999999999999773e+01,3.114309152323886665e-02
3.847999999999999687e+01,3.127398285767891278e-02
3.852000000000000313e+01,1.309413476707304430e-02
3.856000000000000227e+01,3.524868057286574541e-02
3.860000000000000142e+01,2.264000111340484095e-02
3.864000000000000057e+01,4.585454689612572521e-02
3.867999999999999972e+01,6.708152199793828395e-03
3.871999999999999886e+01,1.851064679727843290e-02
3.875999999999999801e+01,3.243530933610699191e-02
3.879999999999999716e+01,3.919444647964311079e-02
3.884000000000000341e+01,2.339702499618852988e-02
3.888000000000000256e+01,3.811556352039210949e-02
3.892000000000000171e+01,2.576637476338819455e-02
3.896000000000000085e+01,2.217340809117217607e-02
3.900000000000000000e+01,2.707129870763422957e-02
3.903999999999999915e+01,2.984554025547229289e-02
3.907999999999999829e+01,2.014698898151745521e-02
3.911999999999999744e+01,1.575493717071268021e-02
3.915999999999999659e+01,4.728065445090287588e-03
3.920000000000000284e+01,2.872830046157456504e-02
3.924000000000000199e+01,3.176413055609856456e-02
3.928000000000000114e+01,2.259251947307874819e-02
3.932000000000000028e+01,2.615754980905234811e-02
3.935999999999999943e+01,2.494528749925600114e-02
3.939999999999999858e+01,4.363445253609385399e-02
3.943999999999999773e+01,1.933410554803766113e-02
3.947999999999999687e+01,3.259226940804301267e-03
3.952000000000000313e+01,2.619187660185991889e-02
3.956000000000000227e+01,8.788633703422319213e-03
3.960000000000000142e+01,1.871696010746227296e-02
3.964000000000000057e+01,1.988753945989755328e-02
3.967999999999999972e+01,3.936735519033049413e-02
3.971999999999999886e+01,2.541069730082410119e-02
3.975999999999999801e+01,2.764037057229665542e-02
3.979999999999999716e+01,1.182459687959762362e-02
3.984000000000000341e+01,3.209734527390863124e-02
3.988000000000000256e+01,2.371013815476921346e-02
3.992000000000000171e+01,6.830531244320398911e-03
3.996000000000000085e+01,2.179363817882103843e-02
4.000000000000000000e+01,2.375317666779531989e-02
4.003999999999999915e+01,3.287670243338445403e-02
4.007999999999999829e+01,3.138491880669173895e-02
4.011999999999999744e+01,2.086999922053928841e-02
4.015999999999999659e+01,2.335703762599983593e-02
4.020000000000000284e+01,1.284049662604999989e-02
4.024000000000000199e+01,1.930634829575650704e-02
4.028000000000000114e+01,2.338312034142411844e-02
4.032000000000000028e+01,2.109037150907896660e-02
4.035999999999999943e+01,3.259565752086214518e-02
4.039999999999999858e+01,1.968676118962621804e-02
4.043999999999999773e+01,3.198648729628946613e-02
4.047999999999999687e+01,3.712059594463323203e-02
4.052000000000000313e+01,3.561981015094706216e-02
4.056000000000000227e+01,2.642267730672164319e-02
4.060000000000000142e+01,3.394255480022784904e-02
4.064000000000000057e+01,1.519069856992209290e-02
4.067999999999999972e+01,3.146586797858016288e-02
4.071999999999999886e+01,2.730727657040149178e-02
4.075999999999999801e+01,3.429307204525140068e-02
4.079999999999999716e+01,1.898756409037895276e-02
4.084000000000000341e+01,6.865560510587650003e-03
4.088000000000000256e+01,2.419795692308040688e-02
4.092000000000000171e+01,3.648761259857354056e-02
4.096000000000000085e+01,3.656973503349592036e-02
4.100000000000000000e+01,2.683258547306872563e-02
4.103999999999999915e+01,7.010799121182136225e-03
4.107999999999999829e+01,1.266296273969838224e-02
4.111999999999999744e+01,2.813268049278627031e-02
4.115999999999999659e+01,3.298702967021786142e-02
4.120000000000000284e+01,2.563383245521760889e-02
4.124000000000000199e+01,3.340543488152099977e-02
4.128000000000000114e+01,2.711194830250692953e-02
4.132000000000000028e+01,3.302426833537843581e-02
4.135999999999999943e+01,2.036033070871556827e-02
4.139999999999999858e+01,0.000000000000000000e+00
4.143999999999999773e+01,2.501579484388048030e-02
4.147999999999999687e+01,1.420675618364282758e-02
4.152000000000000313e+01,2.356439129940042163e-02
4.156000000000000227e+01,2.894070102306164211e-02
4.160000000000000142e+01,2.715133191305221447e-02
4.164000000000000057e+01,1.793091917326196383e-02
4.167999999999999972e+01,9.505701339841379077e-03
4.171999999999999886e+01,1.408235601093720847e-02
4.175999999999999801e+01,2.874189234910839649e-02
4.179999999999999716e+01,1.712963139613943656e-02
4.184000000000000341e+01,1.427343470562654135e-02
4.188000000000000256e+01,2.707272779305410632e-02
4.192000000000000171e+01,2.182645774153804327e-02
4.196000000000000085e+01,1.312956558642357739e-02
4.200000000000000000e+01,3.468309986064118527e-02
4.203999999999999915e+01,1.616596827693489447e-02
4.207999999999999829e+01,1.356967811541820272e-02
4.211999999999999744e+01,1.495290999812330657e-02
4.215999999999999659e+01,3.305306673146363172e-02
4.220000000000000284e+01,3.390373279442185361e-02
4.224000000000000199e+01,3.528420047194076592e-02
4.228000000000000114e+01,1.225038278352938957e-02
4.232000000000000028e+01,1.309827148944044291e-02
4.235999999999999943e+01,1.102624138025095658e-02
4.239999999999999858e+01,2.301749692850441412e-02
4.243999999999999773e+01,1.722852344624847820e-02
4.247999999999999687e+01,1.143861321842598935e-02
4.252000000000000313e+01,2.714213498784354139e-02
4.256000000000000227e+01,1.922744385989245616e-02
4.260000000000000142e+01,9.454271181512305389e-03
4.264000000000000057e+01,3.523874194349754796e-02
4.267999999999999972e+01,1.882961094286459899e-02
4.271999999999999886e+01,1.542229764732741190e-02
4.275999999999999801e+01,2.926260153103915976e-02
4.279999999999999716e+01,3.142599655151200738e-02
4.284000000000000341e+01,3.093480905729551964e-02
4.288000000000000256e+01,2.911584987707851666e-02
4.292000000000000171e+01,3.525680796354365570e-02
4.296000000000000085e+01,3.715100133459010162e-02
4.300000000000000000e+01,3.824814165197183008e-02
4.303999999999999915e+01,2.315719568399040099e-02
4.307999999999999829e+01,2.319094852637832924e-02
4.311999999999999744e+01,2.587735559290161788e-02
4.315999999999999659e+01,2.590916260892089928e-02
4.320000000000000284e+01,3.735058540151514617e-02
4.324000000000000199e+01,3.897261344805726113e-02
4.328000000000000114e+01,3.422495841030109148e-02
4.332000000000000028e+01,5.627794361291080932e-02
4.335999999999999943e+01,4.224062968435810667e-02
4.339999999999999858e+01,5.500395161221777879e-02
4.343999999999999773e+01,4.388364981508517670e-02
4.347999999999999687e+01,4.549976147135546128e-02
4.352000000000000313e+01,4.605342897412895153e-02
4.356000000000000227e+01,5.005581440169215579e-02
4.360000000000000142e+01,4.211588452234656804e-02
4.364000000000000057e+01,4.956598536982779329e-02
4.367999999999999972e+01,7.161002693975951350e-02
4.371999999999999886e+01,7.056651725326067159e-02
4.375999999999999801e+01,8.597448213419058016e-02
4.379999999999999716e+01,1.058926022045816318e-01
4.384000000000000341e+01,1.425275550625809129e-01
4.388000000000000256e+01,1.401531916482545159e-01
4.392000000000000171e+01,1.393699882019943936e-01
4.396000000000000085e+01,1.377896790946254446e-01
4.400000000000000000e+01,1.189597806779168487e-01
4.403999999999999915e+01,7.810376388549561399e-02
4.407999999999999829e+01,7.652038808013750248e-02
4.411999999999999744e+01,6.193321805563940796e-02
4.415999999999999659e+01,6.512431369946733439e-02
4.420000000000000284e+01,6.645684011379300593e-02
4.424000000000000199e+01,5.956209260744443901e-02
4.428000000000000114e+01,5.744283659096825062e-02
4.432000000000000028e+01,7.814372695344021236e-02
4.435999999999999943e+01,5.267048442826996468e-02
4.439999999999999858e+01,5.240564733529249480e-02
4.443999999999999773e+01,3.993308629975966806e-02
4.447999999999999687e+01,6.726386953978802374e-02
4.452000000000000313e+01,6.513835518465396768e-02
4.456000000000000227e+01,7.946427155741203618e-02
4.460000000000000142e+01,7.733665355357743909e-02
4.464000000000000057e+01,8.927219845648304286e-02
4.467999999999999972e+01,9.351117053523559652e-02
4.471999999999999886e+01,1.155283775946385344e-01
4.475999999999999801e+01,1.720416615031022389e-01
4.479999999999999716e+01,1.667243947683240135e-01
4.484000000000000341e+01,2.216433730995663320e-01
4.488000000000000256e+01,3.036282687882111975e-01
4.492000000000000171e+01,2.733637124723892198e-01
4.496000000000000085e+01,2.303606785100469068e-01
4.500000000000000000e+01,2.335296628267619357e-01
4.503999999999999915e+01,1.841557744930335250e-01
4.507999999999999829e+01,1.395573338096407767e-01
4.511999999999999744e+01,1.047762280631362036e-01
4.515999999999999659e+01,8.326216891527377095e-02
4.520000000000000284e+01,7.899559323607345529e-02
4.524000000000000199e+01,7.260502873184011829e-02
4.528000000000000114e+01,6.992845050152564357e-02
4.532000000000000028e+01,6.220889041676009451e-02
4.535999999999999943e+01,5.979548784675862289e-02
4.539999999999999858e+01,5.817707632928105499e-02
4.543999999999999773e+01,4.514697388222677077e-02
4.547999999999999687e+01,4.193418664426921960e-02
4.552000000000000313e+01,4.482363596556780683e-02
4.556000000000000227e+01,4.850806757148305032e-02
4.560000000000000142e+01,4.396515072951177883e-02
4.564000000000000057e+01,3.597141012207340921e-02
4.567999999999999972e+01,3.540671032664950008e-02
4.571999999999999886e+01,4.147496133886378888e-02
4.575999999999999801e+01,3.400860305262161376e-02
4.579999999999999716e+01,4.511650837605479802e-02
4.584000000000000341e+01,5.993836928573115230e-02
4.588000000000000256e+01,4.901893453089669478e-02
4.592000000000000171e+01,5.481621858087520893e-02
4.596000000000000085e+01,4.097554247745112399e-02
4.600000000000000000e+01,5.605826058501025416e-02
4.603999999999999915e+01,4.593039946841737109e-02
4.607999999999999829e+01,3.845503036967427152e-02
4.611999999999999744e+01,4.424665526212928635e-02
4.615999999999999659e+01,4.366843924795401483e-02
4.620000000000000284e+01,3.990473138476911125e-02
4.624000000000000199e+01,5.126554916578367899e-02
4.628000000000000114e+01,3.847722498731790536e-02
4.632000000000000028e+01,5.275473925508870204e-02
4.635999999999999943e+01,4.474064540835729492e-02
4.639999999999999858e+01,3.805221302299539865e-02
4.643999999999999773e+01,4.516148230128315400e-02
4.647999999999999687e+01,5.386177126111983682e-02
4.652000000000000313e+01,4.080116854681321847e-02
4.656000000000000227e+01,5.507175373101534654e-02
4.660000000000000142e+01,4.492781681578934122e-02
4.664000000000000057e+01,6.874912851844655615e-02
4.667999999999999972e+01,5.037661926080229391e-02
4.671999999999999886e+01,7.578777059001345906e-02
4.675999999999999801e+01,7.068105115682704609e-02
4.679999999999999716e+01,5.097821501725403187e-02
4.684000000000000341e+01,6.683279216047900706e-02
4.688000000000000256e+01,4.871977811164522609e-02
4.692000000000000171e+01,6.112228348312630233e-02
4.696000000000000085e+01,6.052083900511218834e-02
4.700000000000000000e+01,8.565838268906285358e-02
4.703999999999999915e+01,5.825294412372853531e-02
4.707999999999999829e+01,7.224288298025990929e-02
4.711999999999999744e+01,6.367580947059617302e-02
4.715999999999999659e+01,7.156002421033040573e-02
4.720000000000000284e+01,6.776708896937409798e-02
4.724000000000000199e+01,8.865167832198912745e-02
4.728000000000000114e+01,7.503792935451085444e-02
4.732000000000000028e+01,9.459330392891042438e-02
4.735999999999999943e+01,8.363077486125991555e-02
4.739999999999999858e+01,8.142400537128563487e-02
4.743999999999999773e+01,7.231659962315617474e-02
4.747999999999999687e+01,1.035430989605915925e-01
4.752000000000000313e+01,1.058438615128684951e-01
4.756000000000000227e+01,9.540600394013078189e-02
4.760000000000000142e+01,1.011540479009128413e-01
4.764000000000000057e+01,8.832549006179787887e-02
4.767999999999999972e+01,9.354036760118071558e-02
4.771999999999999886e+01,8.468980322697615415e-02
4.775999999999999801e+01,9.653629588864705291e-02
4.779999999999999716e+01,1.168731636040928196e-01
4.784000000000000341e+01,8.705526866791497842e-02
4.788000000000000256e+01,1.018170585636637843e-01
4.792000000000000171e+01,8.791845235861885099e-02
4.796000000000000085e+01,7.959122379397694236e-02
4.800000000000000000e+01,8.001972192735877509e-02
4.803999999999999915e+01,6.532131019480590106e-02
4.807999999999999829e+01,7.503501442017772305e-02
4.811999999999999744e+01,8.235920939405139141e-02
4.815999999999999659e+01,7.296431230126101952e-02
4.820000000000000284e+01,7.232513094661030539e-02
4.824000000000000199e+01,5.974338001573827744e-02
4.828000000000000114e+01,6.122459252171474908e-02
4.832000000000000028e+01,5.421294492124689030e-02
4.835999999999999943e+01,6.020280595714132960e-02
4.839999999999999858e+01,5.106573739930962696e-02
4.843999999999999773e+01,6.050278778068225033e-02
4.847999999999999687e+01,4.446376262318298134e-02
4.852000000000000313e+01,3.558826004320986974e-02
4.856000000000000227e+01,4.714440805544256596e-02
4.860000000000000142e+01,5.816855874138689153e-02
4.864000000000000057e+01,5.725011793134165278e-02
4.867999999999999972e+01,6.004547707718452254e-02
4.871999999999999886e+01,4.824461430175281534e-02
4.875999999999999801e+01,4.121899751478812213e-02
4.879999999999999716e+01,4.692950264830739182e-02
4.884000000000000341e+01,4.573929480448232776e-02
4.888000000000000256e+01,5.516230366412254449e-02
4.892000000000000171e+01,5.901140818313043573e-02
4.896000000000000085e+01,6.073632002325980717e-02
4.900000000000000000e+01,5.051862063960804727e-02
4.903999999999999915e+01,3.658454856832527718e-02
4.907999999999999829e+01,5.183906452994269110e-02
4.911999999999999744e+01,4.878226019265342883e-02
4.915999999999999659e+01,4.890850429926400789e-02
4.920000000000000284e+01,3.311168716021233721e-02
4.924000000000000199e+01,3.933865897455905702e-02
4.928000000000000114e+01,4.423750838661198725e-02
4.932000000000000028e+01,2.180269799934762831e-02
4.935999999999999943e+01,1.847268134408671172e-02
4.939999999999999858e+01,3.583963185365117432e-02
4.943999999999999773e+01,3.622205754915990006e-02
4.947999999999999687e+01,4.934056790154650596e-02
4.952000000000000313e+01,2.875670499553658124e-02
4.956000000000000227e+01,3.683067861043858027e-02
4.960000000000000142e+01,4.755695134922904160e-02
4.964000000000000057e+01,3.811433706448203590e-02
4.967999999999999972e+01,4.379605991392687692e-02
4.971999999999999886e+01,4.443455979146899298e-02
4.975999999999999801e+01,4.639853700432656353e-02
4.979999999999999716e+01,4.491146248612644387e-02
4.984000000000000341e+01,5.164928862674951493e-02
4.988000000000000256e+01,4.140256584157163411e-02
4.992000000000000171e+01,3.460421245686697012e-02
4.996000000000000085e+01,4.611453211211396369e-02
5.000000000000000000e+01,3.825203282843125940e-02
5.003999999999999915e+01,4.232949970155144848e-02
5.007999999999999829e+01,3.579110918818160375e-02
5.011999999999999744e+01,4.756138294685600953e-02
5.015999999999999659e+01,5.083869576815186475e-02
5.020000000000000284e+01,5.597218702128421708e-02
5.024000000000000199e+01,4.226357139189232393e-02
5.028000000000000114e+01,3.757592012197780162e-02
5.032000000000000028e+01,3.527516591623562625e-02
5.035999999999999943e+01,3.589203179095520196e-02
5.039999999999999858e+01,5.614435961454684182e-02
5.043999999999999773e+01,4.481716459733980917e-02
5.047999999999999687e+01,4.649136204172297365e-02
5.052000000000000313e+01,4.126475444573479701e-02
5.056000000000000227e+01,4.771272190671745073e-02
5.060000000000000142e+01,4.938278077644012859e-02
5.064000000000000057e+01,7.971061698370028592e-02
5.067999999999999972e+01,7.076340167843997442e-02
5.071999999999999886e+01,4.377014099933286551e-02
5.075999999999999801e+01,5.392625441409275300e-02
5.079999999999999716e+01,5.426255879917905867e-02
5.084000000000000341e+01,4.557513977501433805e-02
5.088000000000000256e+01,4.776619045960640159e-02
5.092000000000000171e+01,3.854524991379561921e-02
5.096000000000000085e+01,2.401565584066715428e-02
5.100000000000000000e+01,4.769687312607722579e-02
5.103999999999999915e+01,4.324824854476682495e-02
5.107999999999999829e+01,3.508313948500699914e-02
5.111999999999999744e+01,4.098083823174046569e-02
5.115999999999999659e+01,4.342741072020401411e-02
5.120000000000000284e+01,4.401503038321951528e-02
5.124000000000000199e+01,4.539732107014136236e-02
5.128000000000000114e+01,4.783964319312598856e-02
5.132000000000000028e+01,4.868836851886515493e-02
5.135999999999999943e+01,4.051334193965451524e-02
5.139999999999999858e+01,4.640110782309932180e-02
5.143999999999999773e+01,4.459193043830625425e-02
5.147999999999999687e+01,3.084000592716847761e-02
5.152000000000000313e+01,3.937710803088268624e-02
5.156000000000000227e+01,3.809435945736347473e-02
5.160000000000000142e+01,3.681017436755983779e-02
5.164000000000000057e+01,3.977035223562491728e-02
5.167999999999999972e+01,4.750561607784813123e-02
5.171999999999999886e+01,3.852159276746937311e-02
5.175999999999999801e+01,5.182658292008151396e-02
5.179999999999999716e+01,4.655474330720607568e-02
5.184000000000000341e+01,4.128145402618516729e-02
5.188000000000000256e+01,4.847875527929894346e-02
5.192000000000000171e+01,4.877517477285227970e-02
5.196000000000000085e+01,3.527128260740693827e-02
5.200000000000000000e+01,4.564856637789040106e-02
5.203999999999999915e+01,3.426465598142761082e-02
5.207999999999999829e+01,4.012785203361179248e-02
5.211999999999999744e+01,3.962088057461756602e-02
5.215999999999999659e+01,3.566272805793251066e-02
5.220000000000000284e+01,3.302991916597612654e-02
5.224000000000000199e+01,3.357998993570352614e-02
5.228000000000000114e+01,4.235482765366730545e-02
5.232000000000000028e+01,3.414498273524330801e-02
5.235999999999999943e+01,4.052860288029711683e-02
5.239999999999999858e+01,3.868450194140281989e-02
5.243999999999999773e+01,5.063777386963323052e-02
5.247999999999999687e+01,4.427954137290297798e-02
5.252000000000000313e+01,3.287793246589167107e-02
5.256000000000000227e+01,3.713122807900645639e-02
5.260000000000000142e+01,3.819868112681839428e-02
5.264000000000000057e+01,4.563334316614333502e-02
5.267999999999999972e+01,4.696316961074735452e-02
5.271999999999999886e+01,4.165743306038728611e-02
5.275999999999999801e+01,4.351498673800910377e-02
5.279999999999999716e+01,1.591578908126424843e-02
5.284000000000000341e+01,3.342672965958488895e-02
5.288000000000000256e+01,2.864570483117961225e-02
5.292000000000000171e+01,3.978492739924214400e-02
5.296000000000000085e+01,3.447015746755383719e-02
5.300000000000000000e+01,3.207286294585633135e-02
5.303999999999999915e+01,4.586117184882926995e-02
5.307999999999999829e+01,3.735750438519206545e-02
5.311999999999999744e+01,4.450871075400531646e-02
5.315999999999999659e+01,4.741259345330760960e-02
5.320000000000000284e+01,4.155798602085879201e-02
5.324000000000000199e+01,4.233591730440357942e-02
5.328000000000000114e+01,3.807043053010752964e-02
5.332000000000000028e+01,3.857993985891949862e-02
5.335999999999999943e+01,3.351530153767059983e-02
5.339999999999999858e+01,3.455246795624169337e-02
5.343999999999999773e+01,3.585345963172719558e-02
5.347999999999999687e+01,3.237638489362068550e-02
5.352000000000000313e+01,2.704023019540984299e-02
5.356000000000000227e+01,3.390921136417368587e-02
5.360000000000000142e+01,4.051128381367821024e-02
5.364000000000000057e+01,3.596657858248839684e-02
5.367999999999999972e+01,4.574990347540774938e-02
5.371999999999999886e+01,4.650934713674415022e-02
5.375999999999999801e+01,4.195998383238450785e-02
5.379999999999999716e+01,2.918282272488756032e-02
5.384000000000000341e+01,4.983979047117777922e-02
5.388000000000000256e+01,4.183603551212609212e-02
5.392000000000000171e+01,4.550667148399127615e-02
5.396000000000000085e+01,4.148022609307816522e-02
5.400000000000000000e+01,3.798293787553679024e-02
5.403999999999999915e+01,4.085278193031925686e-02
5.407999999999999829e+01,3.576017544225972705e-02
5.411999999999999744e+01,5.030282704922682535e-02
5.415999999999999659e+01,4.043054227314427096e-02
5.420000000000000284e+01,3.294494193948123428e-02
5.424000000000000199e+01,4.695213135384630060e-02
5.428000000000000114e+01,3.813655343402990588e-02
5.432000000000000028e+01,3.701490546336512477e-02
5.435999999999999943e+01,3.429949410521568320e-02
5.439999999999999858e+01,4.060482133292982188e-02
5.443999999999999773e+01,5.062363287186812111e-02
5.447999999999999687e+01,4.551518163660162042e-02
5.452000000000000313e+01,4.252803470380697032e-02
5.456000000000000227e+01,4.351972811043902656e-02
5.460000000000000142e+01,3.097632779173463413e-02
5.464000000000000057e+01,5.160164988314762391e-02
5.467999999999999972e+01,4.356620542968199505e-02
5.471999999999999886e+01,3.207943963200828030e-02
5.475999999999999801e+01,4.765804977345950572e-02
5.479999999999999716e+01,5.315126908342064638e-02
5.484000000000000341e+01,4.935518318231436191e-02
5.488000000000000256e+01,4.927255748068711666e-02
5.492000000000000171e+01,4.255424822536998941e-02
5.496000000000000085e+01,5.706332665836477691e-02
5.500000000000000000e+01,6.652889277851481431e-02
5.503999999999999915e+01,5.343701252105688415e-02
5.507999999999999829e+01,6.077642556358083675e-02
5.511999999999999744e+01,6.492985794626147944e-02
5.515999999999999659e+01,5.740570414486191597e-02
5.520000000000000284e+01,5.916760769392243047e-02
5.524000000000000199e+01,6.570440213120296025e-02
5.528000000000000114e+01,7.144347057793096201e-02
5.532000000000000028e+01,1.021249834430431880e-01
5.535999999999999943e+01,9.591945177154374835e-02
5.539999999999999858e+01,8.493574847156430685e-02
5.543999999999999773e+01,7.766547468338833027e-02
5.547999999999999687e+01,9.454154873328977915e-02
5.552000000000000313e+01,7.718419552000348183e-02
5.556000000000000227e+01,6.407099045085637434e-02
5.560000000000000142e+01,6.581643549919666270e-02
5.564000000000000057e+01,7.100993649532300056e-02
5.567999999999999972e+01,7.965149124725869056e-02
5.571999999999999886e+01,6.679701277451262353e-02
5.575999999999999801e+01,7.251625210921040787e-02
5.579999999999999716e+01,5.753554164767227252e-02
5.584000000000000341e+01,5.237157867323119498e-02
5.588000000000000256e+01,6.684277734683599648e-02
5.592000000000000171e+01,8.555810443678837918e-02
5.596000000000000085e+01,7.561259483860370556e-02
5.600000000000000000e+01,7.946426302160553012e-02
5.603999999999999915e+01,7.827236190036503116e-02
5.607999999999999829e+01,8.795864553089308147e-02
5.611999999999999744e+01,8.782482859882873028e-02
5.615999999999999659e+01,1.006920928676442450e-01
5.620000000000000284e+01,1.061275156271119929e-01
5.624000000000000199e+01,9.431267833232920283e-02
5.628000000000000114e+01,1.100938588898178472e-01
5.632000000000000028e+01,1.224236304240250706e-01
5.635999999999999943e+01,1.344863419925716452e-01
5.639999999999999858e+01,1.454859035910812670e-01
5.643999999999999773e+01,1.381737437589236617e-01
5.647999999999999687e+01,1.592536786315528474e-01
5.652000000000000313e+01,1.742285674796850981e-01
5.656000000000000227e+01,1.716878161336190534e-01
5.660000000000000142e+01,1.863939235428178631e-01
5.664000000000000057e+01,1.941988905391898446e-01
5.667999999999999972e+01,1.961641653472908364e-01
5.671999999999999886e+01,1.779601651519548688e-01
5.675999999999999801e+01,1.886789695258340449e-01
5.679999999999999716e+01,1.773709562833907516e-01
5.684000000000000341e+01,1.652651315632985007e-01
5.688000000000000256e+01,1.406855385917228085e-01
5.692000000000000171e+01,1.466209170462536293e-01
5.696000000000000085e+01,1.400825228653473364e-01
5.700000000000000000e+01,1.324809458347515623e-01
5.703999999999999915e+01,1.033832632442386601e-01
5.707999999999999829e+01,9.418603914659978704e-02
5.711999999999999744e+01,8.976360291426983828e-02
5.715999999999999659e+01,9.170812798007080269e-02
5.720000000000000284e+01,1.029386007974901485e-01
5.724000000000000199e+01,9.134614407444245632e-02
5.728000000000000114e+01,7.922121436613378809e-02
5.732000000000000028e+01,9.071180645670200160e-02
5.735999999999999943e+01,8.548280232593467864e-02
5.739999999999999858e+01,8.264030727944031429e-02
5.743999999999999773e+01,7.979605568804379323e-02
5.747999999999999687e+01,7.588859494323588195e-02
5.752000000000000313e+01,6.109950650011400364e-02
5.756000000000000227e+01,6.435331201721222749e-02
5.760000000000000142e+01,6.442100097190348040e-02
5.764000000000000057e+01,7.032489971273739315e-02
5.767999999999999972e+01,5.897845948815484685e-02
5.771999999999999886e+01,5.187604904096238673e-02
5.775999999999999801e+01,6.016289555277466727e-02
5.779999999999999716e+01,6.499825193816276270e-02
5.784000000000000341e+01,5.391007361089267258e-02
5.788000000000000256e+01,4.255475202284218078e-02
5.792000000000000171e+01,4.313896477215850567e-02
5.796000000000000085e+01,4.212921685607504130e-02
5.800000000000000000e+01,3.395289139581944560e-02
5.803999999999999915e+01,3.904290671766564441e-02
5.807999999999999829e+01,4.147750438164919673e-02
5.811999999999999744e+01,2.268129990647421365e-02
5.815999999999999659e+01,4.607595348798158852e-02
5.820000000000000284e+01,3.921747200585047610e-02
5.824000000000000199e+01,4.562532034593693581e-02
5.828000000000000114e+01,3.690569767401956358e-02
5.832000000000000028e+01,4.569820210649628428e-02
5.835999999999999943e+01,5.156991093313932628e-02
5.839999999999999858e+01,4.125269175531540849e-02
5.843999999999999773e+01,2.801467258770421256e-02
5.847999999999999687e+01,3.043123352764794121e-02
5.852000000000000313e+01,3.098844051038308206e-02
5.856000000000000227e+01,2.676730269846855012e-02
5.860000000000000142e+01,3.873146362644473706e-02
5.864000000000000057e+01,4.405973714688549148e-02
5.867999999999999972e+01,3.107616648595652384e-02
5.871999999999999886e+01,3.613542621791959730e-02
5.875999999999999801e+01,3.084371550855306496e-02
5.879999999999999716e+01,3.802221612132915263e-02
5.884000000000000341e+01,4.652569649067965496e-02
5.888000000000000256e+01,3.618659651051001069e-02
5.892000000000000171e+01,4.389031596334815044e-02
5.896000000000000085e+01,3.169000026617992127e-02
5.900000000000000000e+01,3.939003784699784266e-02
5.903999999999999915e+01,4.284242953771023876e-02
5.907999999999999829e+01,2.665614210661887418e-02
5.911999999999999744e+01,3.620817866851207267e-02
5.915999999999999659e+01,3.408240984864158163e-02
5.920000000000000284e+01,2.585144814182636572e-02
5.924000000000000199e+01,2.425269635447989403e-02
5.928000000000000114e+01,3.724703041861911895e-02
5.932000000000000028e+01,2.264179408509963201e-02
5.935999999999999943e+01,3.271341817617112735e-02
5.939999999999999858e+01,3.323012456668310299e-02
5.943999999999999773e+01,2.180364762746052343e-02
5.947999999999999687e+01,1.515182922691369130e-02
5.952000000000000313e+01,2.441989654665727844e-02
5.956000000000000227e+01,1.802969750287195319e-02
5.960000000000000142e+01,2.809010500368962562e-02
5.964000000000000057e+01,2.328832956942415711e-02
5.967999999999999972e+01,2.724164077594722760e-02
5.971999999999999886e+01,2.721263143289177205e-02
5.975999999999999801e+01,2.718173841027794399e-02
5.979999999999999716e+01,3.086403597399274210e-02
5.984000000000000341e+01,2.844110557913345771e-02
5.988000000000000256e+01,3.052744919904853971e-02
5.992000000000000171e+01,3.632697682936169431e-02
5.996000000000000085e+01,2.222241451024756578e-02
