2.003999999999999915e+01,3.336542709201924251e-02
2.007999999999999829e+01,2.833623528857343032e-02
2.012000000000000099e+01,4.311562775821047022e-02
2.016000000000000014e+01,3.086689725559781453e-02
2.019999999999999929e+01,2.102496808166791353e-02
2.023999999999999844e+01,3.561975176587016401e-02
2.028000000000000114e+01,3.188729808718813313e-02
2.032000000000000028e+01,2.334175388786755706e-02
2.035999999999999943e+01,3.664116367953395431e-02
2.039999999999999858e+01,3.587121405479205827e-02
2.044000000000000128e+01,2.658566312654429831e-02
2.048000000000000043e+01,4.155169094288899828e-02
2.051999999999999957e+01,3.874584855995807930e-02
2.055999999999999872e+01,3.001615494641356185e-02
2.060000000000000142e+01,3.406026588453846260e-02
2.064000000000000057e+01,3.921528479354003532e-02
2.067999999999999972e+01,5.325647361776559424e-02
2.071999999999999886e+01,3.397525809405978203e-02
2.076000000000000156e+01,4.357374403716113981e-02
2.080000000000000071e+01,2.096057461663602614e-02
2.083999999999999986e+01,2.482047458076901483e-02
2.087999999999999901e+01,2.312676222719254118e-02
2.092000000000000171e+01,2.828283248242977749e-02
2.096000000000000085e+01,2.881091408497517964e-02
2.100000000000000000e+01,3.470777281062042974e-02
2.103999999999999915e+01,3.042288037354501026e-02
2.107999999999999829e+01,4.298453192394881273e-02
2.112000000000000099e+01,5.536119662171480604e-02
2.116000000000000014e+01,2.201204445652093708e-02
2.119999999999999929e+01,4.401549829338555903e-02
2.123999999999999844e+01,3.436265660168829478e-02
2.128000000000000114e+01,4.211172752678758735e-02
2.132000000000000028e+01,2.579463808267619049e-02
2.135999999999999943e+01,3.576547364972212928e-02
2.139999999999999858e+01,2.370652442829747700e-02
2.144000000000000128e+01,2.904948196083438627e-02
2.148000000000000043e+01,4.068682562440102679e-02
2.151999999999999957e+01,2.548112180090776960e-02
2.155999999999999872e+01,2.878807224997197503e-02
2.160000000000000142e+01,3.968528166794908774e-02
2.164000000000000057e+01,2.984857473821245916e-02
2.167999999999999972e+01,2.612112129167479257e-02
2.171999999999999886e+01,3.313105284480370727e-02
2.176000000000000156e+01,3.014433217174108601e-02
2.180000000000000071e+01,4.770663548914087088e-02
2.183999999999999986e+01,2.972498958731934274e-02
2.187999999999999901e+01,1.729721388229195703e-02
2.192000000000000171e+01,3.393422245780470387e-02
2.196000000000000085e+01,2.021078635700718218e-02
2.200000000000000000e+01,4.443814693111032554e-02
2.203999999999999915e+01,2.923391925242056072e-02
2.207999999999999829e+01,2.550756465916648522e-02
2.212000000000000099e+01,3.270370572777827473e-02
2.216000000000000014e+01,1.824028479802713293e-02
2.219999999999999929e+01,3.376726448529000779e-02
2.223999999999999844e+01,4.077857691215255875e-02
2.228000000000000114e+01,1.520792910559028849e-02
2.232000000000000028e+01,1.759129900675826530e-02
2.235999999999999943e+01,2.515827087764092515e-02
2.239999999999999858e+01,2.976332920389967648e-02
2.244000000000000128e+01,3.825610933344660014e-02
2.248000000000000043e+01,3.712246149261830275e-02
2.251999999999999957e+01,3.117564251716934895e-02
2.255999999999999872e+01,2.374790668855776901e-02
2.260000000000000142e+01,3.872041872910361032e-02
2.264000000000000057e+01,2.388783713415143506e-02
2.267999999999999972e+01,1.664547493397552230e-02
2.271999999999999886e+01,2.125121300646920161e-02
2.276000000000000156e+01,1.308338242074665383e-02
2.280000000000000071e+01,3.416542918925845329e-02
2.283999999999999986e+01,3.895652330168272726e-02
2.287999999999999901e+01,2.486490882229187502e-02
2.292000000000000171e+01,2.262138728702686036e-02
2.296000000000000085e+01,2.852345084443794546e-02
2.300000000000000000e+01,3.720246376949207234e-02
2.303999999999999915e+01,1.700199499839564338e-02
2.307999999999999829e+01,2.642164396014620720e-02
2.312000000000000099e+01,2.899172128948726557e-02
2.316000000000000014e+01,2.378659892427461425e-02
2.319999999999999929e+01,2.339479711031870052e-02
2.323999999999999844e+01,2.226255480329927816e-02
2.328000000000000114e+01,3.242301629116570855e-02
2.332000000000000028e+01,1.796186816652233995e-02
2.335999999999999943e+01,2.108768176110667816e-02
2.339999999999999858e+01,2.421355027694068948e-02
2.344000000000000128e+01,1.141869478962965513e-02
2.348000000000000043e+01,1.972817769087413520e-02
2.351999999999999957e+01,8.414427271815072551e-03
2.355999999999999872e+01,2.042651614133832866e-02
2.360000000000000142e+01,8.557486415538799115e-03
2.364000000000000057e+01,1.927379176975566044e-02
2.367999999999999972e+01,4.017203434604857404e-02
2.371999999999999886e+01,3.145026903199368146e-02
2.376000000000000156e+01,2.735667842998576113e-02
2.380000000000000071e+01,3.363014597221442720e-02
2.383999999999999986e+01,2.842588251709956063e-02
2.387999999999999901e+01,4.210443896200784242e-02
2.392000000000000171e+01,1.264883188007025552e-02
2.396000000000000085e+01,1.336868624324808602e-02
2.400000000000000000e+01,3.037960163930421287e-02
2.403999999999999915e+01,1.758537210005535478e-02
2.407999999999999829e+01,3.126409322305474803e-02
2.412000000000000099e+01,3.420557436589755779e-02
2.416000000000000014e+01,2.918669385218040577e-02
2.419999999999999929e+01,3.620098469919565132e-02
2.423999999999999844e+01,2.396226648172382692e-02
2.428000000000000114e+01,1.968395966925185619e-02
2.432000000000000028e+01,1.855280449460775666e-02
2.435999999999999943e+01,2.260517800424030263e-02
2.439999999999999858e+01,2.054843425593080863e-02
2.444000000000000128e+01,1.849170732044326179e-02
2.448000000000000043e+01,3.143014659431943303e-02
2.451999999999999957e+01,3.307595527309004080e-02
2.455999999999999872e+01,2.731676359607443025e-02
2.460000000000000142e+01,2.914772095981437924e-02
2.464000000000000057e+01,2.598030418708210942e-02
2.467999999999999972e+01,4.206592863877180177e-02
2.471999999999999886e+01,4.204565686534895291e-02
2.476000000000000156e+01,2.684511399754025904e-02
2.480000000000000071e+01,2.478847242055454494e-02
2.483999999999999986e+01,2.032520384857146659e-02
2.487999999999999901e+01,1.567681064732674018e-02
2.492000000000000171e+01,2.121030923118625774e-02
2.496000000000000085e+01,2.156029663361628754e-02
2.500000000000000000e+01,1.561601947318585169e-02
2.503999999999999915e+01,1.078248905566819155e-02
2.507999999999999829e+01,1.372421540968787705e-02
2.512000000000000099e+01,1.814693621377681115e-02
2.516000000000000014e+01,2.830853234582822800e-02
2.519999999999999929e+01,1.125669550703920288e-02
2.523999999999999844e+01,3.585804300648191834e-02
2.528000000000000114e+01,3.787408758584288881e-02
2.532000000000000028e+01,1.360232139367237823e-02
2.535999999999999943e+01,2.505972492542189733e-02
2.539999999999999858e+01,1.078469071208350456e-02
2.544000000000000128e+01,1.261553944682083581e-02
2.548000000000000043e+01,3.184814689893439993e-02
2.551999999999999957e+01,2.701444008241727507e-02
2.555999999999999872e+01,2.236583435816356935e-02
2.560000000000000142e+01,2.882472209840016703e-02
2.564000000000000057e+01,2.473143948083415464e-02
2.567999999999999972e+01,3.044977016133160533e-02
2.571999999999999886e+01,2.968868457692383153e-02
2.576000000000000156e+01,1.652417104471661305e-02
2.580000000000000071e+01,1.465226896774289751e-02
2.583999999999999986e+01,1.148445516877506789e-02
2.587999999999999901e+01,2.312663096007713109e-02
2.592000000000000171e+01,1.662648804284631854e-02
2.596000000000000085e+01,2.345532923017144833e-02
2.600000000000000000e+01,1.880636027187976983e-02
2.603999999999999915e+01,1.674910396807808774e-02
2.607999999999999829e+01,1.857943608806683286e-02
2.612000000000000099e+01,2.874036282902627318e-02
2.616000000000000014e+01,2.501684441080216301e-02
2.619999999999999929e+01,1.999740107920494961e-02
2.623999999999999844e+01,2.256804669430408083e-02
2.628000000000000114e+01,3.883791532686321074e-02
2.632000000000000028e+01,1.900829462295839517e-02
2.635999999999999943e+01,3.305655380738396071e-02
2.639999999999999858e+01,2.507484498974355339e-02
2.644000000000000128e+01,3.023697736886691093e-02
2.648000000000000043e+01,2.632791116459987785e-02
2.651999999999999957e+01,3.574780854496621696e-02
2.655999999999999872e+01,1.684347120467190317e-02
2.660000000000000142e+01,3.329800751275176218e-02
2.664000000000000057e+01,2.716719106665191688e-02
2.667999999999999972e+01,4.325134766812847864e-02
2.671999999999999886e+01,3.619477262614658603e-02
2.676000000000000156e+01,2.469512172298918631e-02
2.680000000000000071e+01,2.948642925309631277e-02
2.683999999999999986e+01,1.743126159837833991e-02
2.687999999999999901e+01,4.036470669349932761e-02
2.692000000000000171e+01,2.756889110509876811e-02
2.696000000000000085e+01,1.792013041774771429e-02
2.700000000000000000e+01,2.844995254014547059e-02
2.703999999999999915e+01,3.416643790283217103e-02
2.707999999999999829e+01,3.044145205792301787e-02
2.712000000000000099e+01,1.597911630469976696e-02
2.716000000000000014e+01,1.910360302837164209e-02
2.719999999999999929e+01,2.389413330454400256e-02
2.723999999999999844e+01,3.220195886037851424e-02
2.728000000000000114e+01,5.150761179886865181e-03
2.732000000000000028e+01,2.382542864508629954e-02
2.735999999999999943e+01,3.176273740771905219e-02
2.739999999999999858e+01,2.692630748991901857e-02
2.744000000000000128e+01,2.486666424608912490e-02
2.748000000000000043e+01,3.465494685558584420e-02
2.751999999999999957e+01,2.630085212819905163e-02
2.755999999999999872e+01,1.368877754474845734e-02
2.760000000000000142e+01,3.199253230406371579e-02
2.764000000000000057e+01,3.122827873293416989e-02
2.767999999999999972e+01,1.676464962497505387e-02
2.771999999999999886e+01,1.007618055177492665e-02
2.776000000000000156e+01,2.245551452413497087e-02
2.780000000000000071e+01,2.928098261116912626e-02
2.783999999999999986e+01,2.759057823857615985e-02
2.787999999999999901e+01,1.275616695847103278e-02
2.792000000000000171e+01,3.328058095835077779e-02
2.796000000000000085e+01,2.585095957633736993e-02
2.800000000000000000e+01,3.026924499343658370e-02
2.803999999999999915e+01,4.653543574393967375e-02
2.807999999999999829e+01,2.559132075107095269e-02
2.812000000000000099e+01,3.704401860105062394e-02
2.816000000000000014e+01,3.016919034351961057e-02
2.819999999999999929e+01,2.051736133288075553e-02
2.823999999999999844e+01,2.012167585708351386e-02
2.828000000000000114e+01,1.954074116677953152e-02
2.832000000000000028e+01,1.599767600695452263e-02
2.835999999999999943e+01,1.263960933977957037e-02
2.839999999999999858e+01,3.612458567688027478e-02
2.844000000000000128e+01,4.368865479724037132e-02
2.848000000000000043e+01,2.052178969218753854e-02
2.851999999999999957e+01,3.863773809867380310e-02
2.855999999999999872e+01,3.453851403553370031e-02
2.860000000000000142e+01,3.969542031585613501e-02
2.864000000000000057e+01,2.689503353873669983e-02
2.867999999999999972e+01,2.612765396296800810e-02
2.871999999999999886e+01,1.517824180839582454e-02
2.876000000000000156e+01,1.422545541159936713e-02
2.880000000000000071e+01,2.734205033118493333e-02
2.883999999999999986e+01,3.231298678699819765e-02
2.887999999999999901e+01,3.635815076552514208e-02
2.892000000000000171e+01,2.448238993880640091e-02
2.896000000000000085e+01,2.426937541490303482e-02
2.900000000000000000e+01,3.979186275242108800e-02
2.903999999999999915e+01,2.773052577248339562e-02
2.907999999999999829e+01,4.991721965125420213e-02
2.912000000000000099e+01,4.433496096186456681e-02
2.916000000000000014e+01,3.245828527590298440e-02
2.919999999999999929e+01,4.797999923790305377e-02
2.923999999999999844e+01,4.276751836752405722e-02
2.928000000000000114e+01,4.533014036926232698e-02
2.932000000000000028e+01,4.770747504806605033e-02
2.935999999999999943e+01,4.767801710678200994e-02
2.939999999999999858e+01,6.523529956270239516e-02
2.944000000000000128e+01,7.075926986419106557e-02
2.948000000000000043e+01,6.628630505769672610e-02
2.951999999999999957e+01,8.180670540201206986e-02
2.955999999999999872e+01,1.182460960278634982e-01
2.960000000000000142e+01,1.526489358779487548e-01
2.964000000000000057e+01,2.122286454217545415e-01
2.967999999999999972e+01,2.892099597835163238e-01
2.971999999999999886e+01,3.991434043176371183e-01
2.976000000000000156e+01,4.587225838792375887e-01
2.980000000000000071e+01,5.558820236639557821e-01
2.983999999999999986e+01,6.211997274734409880e-01
2.987999999999999901e+01,5.617427835598869379e-01
2.992000000000000171e+01,4.593365815824595466e-01
2.996000000000000085e+01,3.734063475665916898e-01
3.000000000000000000e+01,2.774791593885267971e-01
3.003999999999999915e+01,2.191322226393269679e-01
3.007999999999999829e+01,1.752248709424027717e-01
3.012000000000000099e+01,1.313173279276557415e-01
3.016000000000000014e+01,1.372083030175925422e-01
3.019999999999999929e+01,1.077401478744633989e-01
3.023999999999999844e+01,1.104836025723311688e-01
3.028000000000000114e+01,8.471756091933614619e-02
3.032000000000000028e+01,1.096756581046249429e-01
3.035999999999999943e+01,9.335060897682739833e-02
3.039999999999999858e+01,1.205298083037014967e-01
3.044000000000000128e+01,1.428955462856194569e-01
3.048000000000000043e+01,1.582263176254281589e-01
3.051999999999999957e+01,2.026215581183926084e-01
3.055999999999999872e+01,2.727490105516373053e-01
3.060000000000000142e+01,4.384009188306695615e-01
3.064000000000000057e+01,7.762191636746175183e-01
3.067999999999999972e+01,1.000000000000000000e+00
3.071999999999999886e+01,6.926560819873945896e-01
3.076000000000000156e+01,5.709926444505328824e-01
3.080000000000000071e+01,3.001179833334406410e-01
3.083999999999999986e+01,2.099254161399244645e-01
3.087999999999999901e+01,1.600899493846949517e-01
3.092000000000000171e+01,1.383933105290984233e-01
3.096000000000000085e+01,1.298403472451752083e-01
3.100000000000000000e+01,9.000098143832584163e-02
3.103999999999999915e+01,8.922283297191882512e-02
3.107999999999999829e+01,9.529409482429936074e-02
3.112000000000000099e+01,9.155348679392460998e-02
3.116000000000000014e+01,8.633164678300299377e-02
3.119999999999999929e+01,8.999559120590008843e-02
3.123999999999999844e+01,9.865768689187934259e-02
3.128000000000000114e+01,1.136138096102412010e-01
3.132000000000000028e+01,1.046885308514885482e-01
3.135999999999999943e+01,1.105730408809051935e-01
3.139999999999999858e+01,1.190490671598371658e-01
3.144000000000000128e+01,1.306719841804369897e-01
3.148000000000000043e+01,1.561790589956445485e-01
3.151999999999999957e+01,1.876099014104080920e-01
3.155999999999999872e+01,2.010833437709898808e-01
3.160000000000000142e+01,2.526923563556561780e-01
3.164000000000000057e+01,2.619074238088331952e-01
3.167999999999999972e+01,3.000017925903247784e-01
3.171999999999999886e+01,3.297652720577259888e-01
3.176000000000000156e+01,3.845204182169963958e-01
3.180000000000000071e+01,4.072486312620168802e-01
3.183999999999999986e+01,4.473783699767201472e-01
3.187999999999999901e+01,4.564067992421914632e-01
3.192000000000000171e+01,5.070881680725307650e-01
3.196000000000000085e+01,5.549923983731387400e-01
3.200000000000000000e+01,6.604703427658831227e-01
3.203999999999999915e+01,6.815308798918912059e-01
3.207999999999999829e+01,6.015127295496200954e-01
3.211999999999999744e+01,4.850246267045402737e-01
3.215999999999999659e+01,3.666850045976202677e-01
3.220000000000000284e+01,2.827784243434122713e-01
3.224000000000000199e+01,2.305280046869017663e-01
3.228000000000000114e+01,1.747599334978414409e-01
3.232000000000000028e+01,1.610150378551357120e-01
3.235999999999999943e+01,1.396797307241474384e-01
3.239999999999999858e+01,1.318582970378912866e-01
3.243999999999999773e+01,9.960004487681407837e-02
3.247999999999999687e+01,9.585081409130206953e-02
3.252000000000000313e+01,9.654431170833048526e-02
3.256000000000000227e+01,7.946549794774519782e-02
3.260000000000000142e+01,8.312043775554295300e-02
3.264000000000000057e+01,8.085108368868033912e-02
3.267999999999999972e+01,8.209882556508790730e-02
3.271999999999999886e+01,8.908516575050151598e-02
3.275999999999999801e+01,7.107929977756272111e-02
3.279999999999999716e+01,5.585002407361968485e-02
3.284000000000000341e+01,6.653800208384436088e-02
3.288000000000000256e+01,6.315616337652607548e-02
3.292000000000000171e+01,6.366166245679953650e-02
3.296000000000000085e+01,6.564786870822432452e-02
3.300000000000000000e+01,6.189489321289699114e-02
3.303999999999999915e+01,5.073660663152530087e-02
3.307999999999999829e+01,6.975344731367064122e-02
3.311999999999999744e+01,8.691873355696555503e-02
3.315999999999999659e+01,6.872478110474593282e-02
3.320000000000000284e+01,1.040317417490848606e-01
3.324000000000000199e+01,1.384127701538823141e-01
3.328000000000000114e+01,2.157425655244591400e-01
3.332000000000000028e+01,2.445692186673061319e-01
3.335999999999999943e+01,2.274844825867331499e-01
3.339999999999999858e+01,1.839265143421712767e-01
3.343999999999999773e+01,1.533270054760524359e-01
3.347999999999999687e+01,1.206908036604171786e-01
3.352000000000000313e+01,8.472203019454736805e-02
3.356000000000000227e+01,6.948697512005021226e-02
3.360000000000000142e+01,7.220875718191122061e-02
3.364000000000000057e+01,7.233846447355955778e-02
3.367999999999999972e+01,6.117520552279546303e-02
3.371999999999999886e+01,7.666966931775431870e-02
3.375999999999999801e+01,8.013066266173494989e-02
3.379999999999999716e+01,8.877483878272378337e-02
3.384000000000000341e+01,8.612604279846508559e-02
3.388000000000000256e+01,9.051167985266750371e-02
3.392000000000000171e+01,8.582584570164930593e-02
3.396000000000000085e+01,1.102043546528331530e-01
3.400000000000000000e+01,1.084798600929707257e-01
3.403999999999999915e+01,1.113831635580027901e-01
3.407999999999999829e+01,1.290961561430080951e-01
3.411999999999999744e+01,1.395889233871195068e-01
3.415999999999999659e+01,1.413804612703317143e-01
3.420000000000000284e+01,1.516874230206314844e-01
3.424000000000000199e+01,1.890223391010143472e-01
3.428000000000000114e+01,1.897020982110279586e-01
3.432000000000000028e+01,2.118560491410958757e-01
3.435999999999999943e+01,2.104987378387573049e-01
3.439999999999999858e+01,2.276536103164627234e-01
3.443999999999999773e+01,2.181500872024642879e-01
3.447999999999999687e+01,2.017965761947671244e-01
3.452000000000000313e+01,1.945138532863484038e-01
3.456000000000000227e+01,1.892671548785915814e-01
3.460000000000000142e+01,1.793919680114542670e-01
3.464000000000000057e+01,1.717379280328484026e-01
3.467999999999999972e+01,1.435346192047586567e-01
3.471999999999999886e+01,1.312517279610241894e-01
3.475999999999999801e+01,1.261883628294449833e-01
3.479999999999999716e+01,1.103873663734690619e-01
3.484000000000000341e+01,9.606700820033260702e-02
3.488000000000000256e+01,9.100255025438271084e-02
3.492000000000000171e+01,9.260223659989197387e-02
3.496000000000000085e+01,1.025321936447350785e-01
3.500000000000000000e+01,8.321198010793301458e-02
3.503999999999999915e+01,9.591807520778908303e-02
3.507999999999999829e+01,9.677577680756470346e-02
3.511999999999999744e+01,7.227093513359679477e-02
3.515999999999999659e+01,7.960727237987369476e-02
3.520000000000000284e+01,7.324395853607344742e-02
3.524000000000000199e+01,7.706215832451608627e-02
3.528000000000000114e+01,6.569970153716767070e-02
3.532000000000000028e+01,7.988415695146942885e-02
3.535999999999999943e+01,8.425658711788693023e-02
3.539999999999999858e+01,8.881375781221186039e-02
3.543999999999999773e+01,1.024416828945136221e-01
3.547999999999999687e+01,1.142179670611477155e-01
3.552000000000000313e+01,9.952094138122842548e-02
3.556000000000000227e+01,1.092600671929844225e-01
3.560000000000000142e+01,1.114086627940481800e-01
3.564000000000000057e+01,1.267007624788599462e-01
3.567999999999999972e+01,1.212584313521815477e-01
3.571999999999999886e+01,1.321067318057134177e-01
3.575999999999999801e+01,1.470273913008018629e-01
3.579999999999999716e+01,1.582451449616820438e-01
3.584000000000000341e+01,1.589103545090246039e-01
3.588000000000000256e+01,1.851224557380946878e-01
3.592000000000000171e+01,1.907852426807091495e-01
3.596000000000000085e+01,2.068146421920958322e-01
3.600000000000000000e+01,2.467248011145002640e-01
3.603999999999999915e+01,2.731204034862305119e-01
3.607999999999999829e+01,3.026627265774118891e-01
3.611999999999999744e+01,3.297980093437243299e-01
3.615999999999999659e+01,3.371244703064767423e-01
3.620000000000000284e+01,3.777730746353424318e-01
3.624000000000000199e+01,3.873202097527207455e-01
3.628000000000000114e+01,3.944602986823951274e-01
3.632000000000000028e+01,3.742014218549055138e-01
3.635999999999999943e+01,3.815257976327956491e-01
3.639999999999999858e+01,3.544164425891965231e-01
3.643999999999999773e+01,3.410059382730313837e-01
3.647999999999999687e+01,3.055650965961915211e-01
3.652000000000000313e+01,2.871553584625347599e-01
3.656000000000000227e+01,2.407912698196004453e-01
3.660000000000000142e+01,2.184930439213393638e-01
3.664000000000000057e+01,2.174837995127372470e-01
3.667999999999999972e+01,1.937037091377685205e-01
3.671999999999999886e+01,1.754769451816421966e-01
3.675999999999999801e+01,1.637291327750848291e-01
3.679999999999999716e+01,1.506850070423318144e-01
3.684000000000000341e+01,1.435644539698691380e-01
3.688000000000000256e+01,1.284830731454595365e-01
3.692000000000000171e+01,1.100689960855704974e-01
3.696000000000000085e+01,1.190530243261427035e-01
3.700000000000000000e+01,1.284068597855588245e-01
3.703999999999999915e+01,1.086955752314697904e-01
3.707999999999999829e+01,1.130501358335489898e-01
3.711999999999999744e+01,1.001875939250764375e-01
3.715999999999999659e+01,6.677569229317656396e-02
3.720000000000000284e+01,6.946277717397651708e-02
3.724000000000000199e+01,6.418902111145077805e-02
3.728000000000000114e+01,4.243865795268633723e-02
3.732000000000000028e+01,5.197401860803239210e-02
3.735999999999999943e+01,5.262290732649107378e-02
3.739999999999999858e+01,4.327457072663151716e-02
3.743999999999999773e+01,3.818365692784735782e-02
3.747999999999999687e+01,3.697991382585575498e-02
3.752000000000000313e+01,4.003359059352209343e-02
3.756000000000000227e+01,3.494128937290557485e-02
3.760000000000000142e+01,4.114116722343707372e-02
3.764000000000000057e+01,3.234542734064746461e-02
3.767999999999999972e+01,2.595584827181029661e-02
3.771999999999999886e+01,3.826345664847672495e-02
3.775999999999999801e+01,4.168457843116820521e-02
3.779999999999999716e+01,2.214968788836059119e-02
3.784000000000000341e+01,1.909047656248573713e-02
3.788000000000000256e+01,2.510193021635314520e-02
3.792000000000000171e+01,2.333764332913284070e-02
3.796000000000000085e+01,2.101750188731083685e-02
3.800000000000000000e+01,2.276963740735450659e-02
3.803999999999999915e+01,3.636931183361107045e-02
3.807999999999999829e+01,9.240933022850693346e-03
3.811999999999999744e+01,1.228749679630317636e-02
3.815999999999999659e+01,2.051708358450853031e-02
3.820000000000000284e+01,2.134117021023889185e-02
3.824000000000000199e+01,2.179451734069333749e-02
3.828000000000000114e+01,3.502102117954326160e-02
3.832000000000000028e+01,3.695438875376396565e-02
3.835999999999999943e+01,2.889049583265596022e-02
3.839999999999999858e+01,1.490209797482558440e-02
3.843999999999999773e+01,1.479760287827788096e-02
3.847999999999999687e+01,8.768599913590226225e-03
3.852000000000000313e+01,1.292099039302687345e-02
3.856000000000000227e+01,1.337037390435053680e-02
3.860000000000000142e+01,2.974003282627939865e-02
3.864000000000000057e+01,2.426440055854729716e-02
3.867999999999999972e+01,3.422861810492101951e-03
3.871999999999999886e+01,1.997613111321300261e-02
3.875999999999999801e+01,2.116349100419335008e-02
3.879999999999999716e+01,1.142794768061337375e-02
3.884000000000000341e+01,1.539116714194138820e-02
3.888000000000000256e+01,2.398200727740342278e-02
3.892000000000000171e+01,1.517055362613230381e-02
3.896000000000000085e+01,2.172398623622627534e-02
3.900000000000000000e+01,2.383389447826275709e-02
3.903999999999999915e+01,1.909364773580130362e-02
3.907999999999999829e+01,1.694463582677259786e-02
3.911999999999999744e+01,3.034562963556097087e-02
3.915999999999999659e+01,1.856905745330764829e-02
3.920000000000000284e+01,1.530772592454621162e-02
3.924000000000000199e+01,1.667400187853988747e-02
3.928000000000000114e+01,1.711412427096858924e-02
3.932000000000000028e+01,1.477683844325299554e-02
3.935999999999999943e+01,1.077289484540674969e-02
3.939999999999999858e+01,1.843131500038827295e-02
3.943999999999999773e+01,1.998006679093247001e-02
3.947999999999999687e+01,1.541914875133054350e-02
3.952000000000000313e+01,2.437184326030059772e-02
3.956000000000000227e+01,1.814372436264181238e-02
3.960000000000000142e+01,1.969033018423902923e-02
3.964000000000000057e+01,1.216525520426235338e-02
3.967999999999999972e+01,1.307382854901478330e-03
3.971999999999999886e+01,1.488550956350439235e-02
3.975999999999999801e+01,9.024933193332564108e-03
3.979999999999999716e+01,8.532445063141375421e-03
3.984000000000000341e+01,1.396341966508311133e-02
3.988000000000000256e+01,2.143022382842116325e-02
3.992000000000000171e+01,1.760383309877936939e-02
3.996000000000000085e+01,1.988602602343135864e-02
4.000000000000000000e+01,1.050477048511194722e-02
4.003999999999999915e+01,1.315610588685420593e-02
4.007999999999999829e+01,1.358538117784683849e-02
4.011999999999999744e+01,1.345872276596448737e-02
4.015999999999999659e+01,2.314314706557296653e-02
4.020000000000000284e+01,2.320049408582370090e-02
4.024000000000000199e+01,1.400101299958207528e-02
4.028000000000000114e+01,1.350185831198267260e-02
4.032000000000000028e+01,7.448378972214285930e-03
4.035999999999999943e+01,1.453823076255972291e-02
4.039999999999999858e+01,1.459275241502222716e-02
4.043999999999999773e+01,5.205313313161433891e-03
4.047999999999999687e+01,1.636621371577000675e-02
4.052000000000000313e+01,1.068013766115599381e-02
4.056000000000000227e+01,7.585242208750347589e-03
4.060000000000000142e+01,1.430141334503912467e-02
4.064000000000000057e+01,6.392107458423577047e-03
4.067999999999999972e+01,1.384762480769624431e-02
4.071999999999999886e+01,1.537855220913813409e-02
4.075999999999999801e+01,1.376176798634620724e-02
4.079999999999999716e+01,2.584367472873285582e-02
4.084000000000000341e+01,1.478433243246720340e-02
4.088000000000000256e+01,4.464905819869384104e-03
4.092000000000000171e+01,1.747068237825018938e-02
4.096000000000000085e+01,1.622122082663056061e-02
4.100000000000000000e+01,1.349016673010801012e-02
4.103999999999999915e+01,1.871890990661293289e-02
4.107999999999999829e+01,1.802304994390825643e-02
4.111999999999999744e+01,6.774452394109023445e-03
4.115999999999999659e+01,1.311216432313743775e-02
4.120000000000000284e+01,2.537328915020084855e-02
4.124000000000000199e+01,1.227164645007979525e-02
4.128000000000000114e+01,4.167787120140947592e-03
4.132000000000000028e+01,6.430343953999905805e-03
4.135999999999999943e+01,1.480143314234580454e-02
4.139999999999999858e+01,1.169414788720065344e-02
4.143999999999999773e+01,1.265901354296738134e-02
4.147999999999999687e+01,1.547452481249281080e-02
4.152000000000000313e+01,1.458692065145669910e-02
4.156000000000000227e+01,5.182941292687188659e-03
4.160000000000000142e+01,2.021489210356955044e-02
4.164000000000000057e+01,1.932545201381914365e-02
4.167999999999999972e+01,1.621389318496852319e-02
4.171999999999999886e+01,1.587859777205919559e-02
4.175999999999999801e+01,1.813443899009530361e-02
4.179999999999999716e+01,2.464754324695160939e-02
4.184000000000000341e+01,1.338799608176078140e-02
4.188000000000000256e+01,1.156921796400985428e-02
4.192000000000000171e+01,1.715482891583243116e-02
4.196000000000000085e+01,2.533156917005669612e-02
4.200000000000000000e+01,0.000000000000000000e+00
4.203999999999999915e+01,1.650612488978106876e-02
4.207999999999999829e+01,1.431396296682725840e-02
4.211999999999999744e+01,1.841543086918089045e-02
4.215999999999999659e+01,1.492612818460492541e-02
4.220000000000000284e+01,2.179925573807062721e-03
4.224000000000000199e+01,1.294400308488566874e-02
4.228000000000000114e+01,1.722805752763054490e-02
4.232000000000000028e+01,1.225520764702727090e-02
4.235999999999999943e+01,1.431648007462708524e-02
4.239999999999999858e+01,1.915399100111920758e-02
4.243999999999999773e+01,1.880735023145189977e-02
4.247999999999999687e+01,5.316167570573427162e-03
4.252000000000000313e+01,2.051876371164729207e-02
4.256000000000000227e+01,2.091068715650910501e-02
4.260000000000000142e+01,4.640683246579526376e-03
4.264000000000000057e+01,1.687932842218901885e-02
4.267999999999999972e+01,2.282306119166418665e-02
4.271999999999999886e+01,1.747349646854610625e-02
4.275999999999999801e+01,2.304567110157139734e-02
4.279999999999999716e+01,2.232292893133611816e-02
4.284000000000000341e+01,1.530526849213147828e-02
4.288000000000000256e+01,1.680271386121238650e-02
4.292000000000000171e+01,2.015075207853636238e-02
4.296000000000000085e+01,1.831461954548700699e-02
4.300000000000000000e+01,1.832907692926321816e-02
4.303999999999999915e+01,1.223373403481330980e-02
4.307999999999999829e+01,1.539399089725326103e-02
4.311999999999999744e+01,2.558834221942981810e-02
4.315999999999999659e+01,2.245300141405911359e-02
4.320000000000000284e+01,2.209386979340544413e-02
4.324000000000000199e+01,1.766130907813934572e-02
4.328000000000000114e+01,3.137035611699743459e-02
4.332000000000000028e+01,2.286368983969515323e-02
4.335999999999999943e+01,1.639272560712660282e-02
4.339999999999999858e+01,1.769634685148138709e-02
4.343999999999999773e+01,2.066541657057839598e-02
4.347999999999999687e+01,2.548505861799577749e-02
4.352000000000000313e+01,2.400975747939481167e-02
4.356000000000000227e+01,2.327427382197449005e-02
4.360000000000000142e+01,2.327860618002597706e-02
4.364000000000000057e+01,2.494837968427581626e-02
4.367999999999999972e+01,3.309685117047832942e-02
4.371999999999999886e+01,3.217349235281307535e-02
4.375999999999999801e+01,4.309746284500726166e-02
4.379999999999999716e+01,5.402074074698141187e-02
4.384000000000000341e+01,9.086086929321289529e-02
4.388000000000000256e+01,1.195547882691767455e-01
4.392000000000000171e+01,1.086311919303664386e-01
4.396000000000000085e+01,9.881764905422316114e-02
4.400000000000000000e+01,9.862992286224224470e-02
4.403999999999999915e+01,6.697019100699083682e-02
4.407999999999999829e+01,6.252317823675365704e-02
4.411999999999999744e+01,4.400593688481076876e-02
4.415999999999999659e+01,5.418241424076087470e-02
4.420000000000000284e+01,4.380927390854111314e-02
4.424000000000000199e+01,3.102879571257324484e-02
4.428000000000000114e+01,4.175852288733481604e-02
4.432000000000000028e+01,4.452714968831932713e-02
4.435999999999999943e+01,3.359578975191959693e-02
4.439999999999999858e+01,2.969847737257604731e-02
4.443999999999999773e+01,3.302033640386681929e-02
4.447999999999999687e+01,2.560420940923983923e-02
4.452000000000000313e+01,3.892139920178404322e-02
4.456000000000000227e+01,3.242945939192765081e-02
4.460000000000000142e+01,4.093194853992655063e-02
4.464000000000000057e+01,4.943371431782126596e-02
4.467999999999999972e+01,6.978277569427389360e-02
4.471999999999999886e+01,4.958866584534180055e-02
4.475999999999999801e+01,6.919577187589401324e-02
4.479999999999999716e+01,1.039824248550447056e-01
4.484000000000000341e+01,1.371022192619640034e-01
4.488000000000000256e+01,1.672592763959337148e-01
4.492000000000000171e+01,1.781625666939851693e-01
4.496000000000000085e+01,1.692567127325483589e-01
4.500000000000000000e+01,1.707171400897031233e-01
4.503999999999999915e+01,1.553304253645448052e-01
4.507999999999999829e+01,1.143956770848736232e-01
4.511999999999999744e+01,8.827021338955672036e-02
4.515999999999999659e+01,7.177052387284797719e-02
4.520000000000000284e+01,5.971309812900146147e-02
4.524000000000000199e+01,4.395242064367840817e-02
4.528000000000000114e+01,3.781751293983726808e-02
4.532000000000000028e+01,2.779422524381493578e-02
4.535999999999999943e+01,3.313558929575542017e-02
4.539999999999999858e+01,2.625793105618018375e-02
4.543999999999999773e+01,3.789205206102998214e-02
4.547999999999999687e+01,2.619962868572384487e-02
4.552000000000000313e+01,3.061235247269363316e-02
4.556000000000000227e+01,4.205908131116533472e-02
4.560000000000000142e+01,3.277101584237341464e-02
4.564000000000000057e+01,2.922107525865651895e-02
4.567999999999999972e+01,2.363399468425013070e-02
4.571999999999999886e+01,2.841316904567739790e-02
4.575999999999999801e+01,2.837832069569187765e-02
4.579999999999999716e+01,1.853106454783458659e-02
4.584000000000000341e+01,2.330794128228673781e-02
4.588000000000000256e+01,1.993853516103301013e-02
4.592000000000000171e+01,1.860473727915209000e-02
4.596000000000000085e+01,1.634454106234255535e-02
4.600000000000000000e+01,2.167370973209964413e-02
4.603999999999999915e+01,2.107809351476030296e-02
4.607999999999999829e+01,2.103707711966243052e-02
4.611999999999999744e+01,2.081015780394900386e-02
4.615999999999999659e+01,3.187510389770809721e-02
4.620000000000000284e+01,2.794411859647048108e-02
4.624000000000000199e+01,2.438260193535214324e-02
4.628000000000000114e+01,4.136921225093238147e-02
4.632000000000000028e+01,3.243749293645390580e-02
4.635999999999999943e+01,2.424548850354251231e-02
4.639999999999999858e+01,1.957007727579519393e-02
4.643999999999999773e+01,3.636841375834649892e-02
4.647999999999999687e+01,1.947315133794819478e-02
4.652000000000000313e+01,3.034589455219054502e-02
4.656000000000000227e+01,3.455333254797435943e-02
4.660000000000000142e+01,2.469045108810909855e-02
4.664000000000000057e+01,3.574593405213753738e-02
4.667999999999999972e+01,2.495583121904339924e-02
4.671999999999999886e+01,2.823445306480481046e-02
4.675999999999999801e+01,2.910564470716586402e-02
4.679999999999999716e+01,2.923553255400124923e-02
4.684000000000000341e+01,3.658450386894519790e-02
4.688000000000000256e+01,2.375400993180615608e-02
4.692000000000000171e+01,3.165674483931243954e-02
4.696000000000000085e+01,4.566780690207868088e-02
4.700000000000000000e+01,4.190602846636723444e-02
4.703999999999999915e+01,4.110544382661847351e-02
4.707999999999999829e+01,4.141479832425313395e-02
4.711999999999999744e+01,4.098283730069202102e-02
4.715999999999999659e+01,4.814019865814336829e-02
4.720000000000000284e+01,5.437111624369442286e-02
4.724000000000000199e+01,5.078957326585818027e-02
4.728000000000000114e+01,3.591456570462944059e-02
4.732000000000000028e+01,4.232814828881954067e-02
4.735999999999999943e+01,4.670452932255195894e-02
4.739999999999999858e+01,5.293133904514590177e-02
4.743999999999999773e+01,6.563670897306871088e-02
4.747999999999999687e+01,6.075434613329573630e-02
4.752000000000000313e+01,6.457204439887863356e-02
4.756000000000000227e+01,7.005504017120096905e-02
4.760000000000000142e+01,7.498182815310934501e-02
4.764000000000000057e+01,6.843001304095940041e-02
4.767999999999999972e+01,7.668738870780275607e-02
4.771999999999999886e+01,8.549930410282823023e-02
4.775999999999999801e+01,7.764910306663173889e-02
4.779999999999999716e+01,8.442296309301530743e-02
4.784000000000000341e+01,8.101408993180599094e-02
4.788000000000000256e+01,7.501262020806388764e-02
4.792000000000000171e+01,6.882518160681182218e-02
4.796000000000000085e+01,6.837578287952655876e-02
4.800000000000000000e+01,6.126102616826728520e-02
4.803999999999999915e+01,6.266118618886289127e-02
4.807999999999999829e+01,5.758111061335392800e-02
4.811999999999999744e+01,5.472168798252284583e-02
4.815999999999999659e+01,4.741840533632715043e-02
4.820000000000000284e+01,4.603827908913273037e-02
4.824000000000000199e+01,4.188041776873960287e-02
4.828000000000000114e+01,3.161256416227221921e-02
4.832000000000000028e+01,4.244813873921745445e-02
4.835999999999999943e+01,4.921009661082838965e-02
4.839999999999999858e+01,4.134629311203472102e-02
4.843999999999999773e+01,3.533288019367469834e-02
4.847999999999999687e+01,3.542773873364152976e-02
4.852000000000000313e+01,3.181922534401312314e-02
4.856000000000000227e+01,3.228260196913662616e-02
4.860000000000000142e+01,2.885747841396026081e-02
4.864000000000000057e+01,3.672412939431304868e-02
4.867999999999999972e+01,4.292378109439295986e-02
4.871999999999999886e+01,3.246128118624066333e-02
4.875999999999999801e+01,3.088392226575961685e-02
4.879999999999999716e+01,3.911732946367621477e-02
4.884000000000000341e+01,3.161420725266955029e-02
4.888000000000000256e+01,2.855321396931867831e-02
4.892000000000000171e+01,2.882359623219265393e-02
4.896000000000000085e+01,2.502033980410088565e-02
4.900000000000000000e+01,3.139809280443709577e-02
4.903999999999999915e+01,3.092532439308433648e-02
4.907999999999999829e+01,3.378392566512131850e-02
4.911999999999999744e+01,2.942175195547772418e-02
4.915999999999999659e+01,3.375957925713067576e-02
4.920000000000000284e+01,3.013612736853731391e-02
4.924000000000000199e+01,1.929189610113708417e-02
4.928000000000000114e+01,2.492292485796301568e-02
4.932000000000000028e+01,1.703891044880500791e-02
4.935999999999999943e+01,2.914753419890950617e-02
4.939999999999999858e+01,3.255437015307567628e-02
4.943999999999999773e+01,2.152053194769635094e-02
4.947999999999999687e+01,2.825782367300871262e-02
4.952000000000000313e+01,2.666357384383059165e-02
4.956000000000000227e+01,2.988167866383341711e-02
4.960000000000000142e+01,2.569386559436340547e-02
4.964000000000000057e+01,2.113489530261956559e-02
4.967999999999999972e+01,3.268091973944017847e-02
4.971999999999999886e+01,2.182587102741097296e-02
4.975999999999999801e+01,1.874517474461164304e-02
4.979999999999999716e+01,2.751158644964840638e-02
4.984000000000000341e+01,3.294482849527477497e-02
4.988000000000000256e+01,2.801013728287424925e-02
4.992000000000000171e+01,2.770266220898875628e-02
4.996000000000000085e+01,2.184050924712205993e-02
5.000000000000000000e+01,2.301219864308440971e-02
5.003999999999999915e+01,4.565750383555667452e-02
5.007999999999999829e+01,3.164707310269771617e-02
5.011999999999999744e+01,2.133822458337479577e-02
5.015999999999999659e+01,3.416911533701882941e-02
5.020000000000000284e+01,4.959083345705905116e-02
5.024000000000000199e+01,3.057831362037759931e-02
5.028000000000000114e+01,4.803455164820414486e-02
5.032000000000000028e+01,4.938395539730894290e-02
5.035999999999999943e+01,5.943331618644740605e-02
5.039999999999999858e+01,6.448335892266932046e-02
5.043999999999999773e+01,7.082834299602552841e-02
5.047999999999999687e+01,8.513277843514090171e-02
5.052000000000000313e+01,8.888413184560207958e-02
5.056000000000000227e+01,1.109619515704794723e-01
5.060000000000000142e+01,1.082320367501826142e-01
5.064000000000000057e+01,1.016135469984389694e-01
5.067999999999999972e+01,9.888174425959561642e-02
5.071999999999999886e+01,1.068862638815645527e-01
5.075999999999999801e+01,8.489953415548688598e-02
5.079999999999999716e+01,7.901775811812832007e-02
5.084000000000000341e+01,6.073163513357496268e-02
5.088000000000000256e+01,5.503308183986926894e-02
5.092000000000000171e+01,4.507569271618134393e-02
5.096000000000000085e+01,4.030085758044169020e-02
5.100000000000000000e+01,4.015319900908041750e-02
5.103999999999999915e+01,1.908542147477649761e-02
5.107999999999999829e+01,3.356074589437005318e-02
5.111999999999999744e+01,2.730107373889048214e-02
5.115999999999999659e+01,2.974132930926925641e-02
5.120000000000000284e+01,3.366162368760278190e-02
5.124000000000000199e+01,2.462218050379281348e-02
5.128000000000000114e+01,2.206115681727035052e-02
5.132000000000000028e+01,3.079180946378981196e-02
5.135999999999999943e+01,3.859586590469740730e-02
5.139999999999999858e+01,3.084842445060777608e-02
5.143999999999999773e+01,3.087527386597990753e-02
5.147999999999999687e+01,2.275563522641914360e-02
5.152000000000000313e+01,3.092604921210668698e-02
5.156000000000000227e+01,2.521108731354535643e-02
5.160000000000000142e+01,3.115804212663871378e-02
5.164000000000000057e+01,3.006925493768632801e-02
5.167999999999999972e+01,2.805385981745199889e-02
5.171999999999999886e+01,3.011023892097717397e-02
5.175999999999999801e+01,2.550112226390442716e-02
5.179999999999999716e+01,3.088778711635912708e-02
5.184000000000000341e+01,1.961218603529791757e-02
5.188000000000000256e+01,2.999525864743045681e-02
5.192000000000000171e+01,2.297556111748138424e-02
5.196000000000000085e+01,2.743264178852106508e-02
5.200000000000000000e+01,2.763084705544184561e-02
5.203999999999999915e+01,2.838343375399813781e-02
5.207999999999999829e+01,2.857964850275890312e-02
5.211999999999999744e+01,2.933024175173766165e-02
5.215999999999999659e+01,2.693270564948473458e-02
5.220000000000000284e+01,2.805155022462497635e-02
5.224000000000000199e+01,2.620738783640307740e-02
5.228000000000000114e+01,2.158534233839728977e-02
5.232000000000000028e+01,2.862518716928839566e-02
5.235999999999999943e+01,2.677801042250558747e-02
5.239999999999999858e+01,2.937283362100736803e-02
5.243999999999999773e+01,2.641288805758449515e-02
5.247999999999999687e+01,2.808006482731573855e-02
5.252000000000000313e+01,2.252634203012144135e-02
5.256000000000000227e+01,1.567572841747823242e-02
5.260000000000000142e+01,1.956136827733536213e-02
5.264000000000000057e+01,2.622287141464112875e-02
5.267999999999999972e+01,2.214608805573234709e-02
5.271999999999999886e+01,2.084516504285464575e-02
5.275999999999999801e+01,3.250199347108674586e-02
5.279999999999999716e+01,2.508989163806107231e-02
5.284000000000000341e+01,2.600740533255148021e-02
5.288000000000000256e+01,3.025614946809904518e-02
5.292000000000000171e+01,2.765423001820752069e-02
5.296000000000000085e+01,2.042314934861260908e-02
5.300000000000000000e+01,1.670842004223561245e-02
5.303999999999999915e+01,2.354480276627551882e-02
5.307999999999999829e+01,2.593714519277279251e-02
5.311999999999999744e+01,1.870193691598144581e-02
5.315999999999999659e+01,2.331371350749000815e-02
5.320000000000000284e+01,3.125670881438561560e-02
5.324000000000000199e+01,1.957538177936579693e-02
5.328000000000000114e+01,1.900053393837144305e-02
5.332000000000000028e+01,2.490403084351761748e-02
5.335999999999999943e+01,2.506759995615047074e-02
5.339999999999999858e+01,2.930288173277475691e-02
5.343999999999999773e+01,2.557672895402371763e-02
5.347999999999999687e+01,2.592228590784649220e-02
5.352000000000000313e+01,3.108005240568259206e-02
5.356000000000000227e+01,2.327799633026684384e-02
5.360000000000000142e+01,3.009978878966022495e-02
5.364000000000000057e+01,2.211050255151377972e-02
5.367999999999999972e+01,2.448717957315693292e-02
5.371999999999999886e+01,2.371567008092659995e-02
5.375999999999999801e+01,3.145886772419789063e-02
5.379999999999999716e+01,2.050334910206627614e-02
5.384000000000000341e+01,2.676342469050993489e-02
5.388000000000000256e+01,1.450990640142020907e-02
5.392000000000000171e+01,2.095298194578454343e-02
5.396000000000000085e+01,2.517348877845806618e-02
5.400000000000000000e+01,2.106228989725941053e-02
5.403999999999999915e+01,2.028227895156372793e-02
5.407999999999999829e+01,3.042359256643115129e-02
5.411999999999999744e+01,3.149269479315202486e-02
5.415999999999999659e+01,2.978384502177701398e-02
5.420000000000000284e+01,3.251692923879221514e-02
5.424000000000000199e+01,1.932816085691388755e-02
5.428000000000000114e+01,1.872683758063818649e-02
5.432000000000000028e+01,2.441869708849682061e-02
5.435999999999999943e+01,2.529621875755834470e-02
5.439999999999999858e+01,3.542892538792941776e-02
5.443999999999999773e+01,2.408601251225172060e-02
5.447999999999999687e+01,2.255365762432719537e-02
5.452000000000000313e+01,3.416411500561391396e-02
5.456000000000000227e+01,3.503621700237418563e-02
5.460000000000000142e+01,3.257497492038108344e-02
5.464000000000000057e+01,2.826138984822225766e-02
5.467999999999999972e+01,2.542771606735569345e-02
5.471999999999999886e+01,3.036821296783226085e-02
5.475999999999999801e+01,3.364148780030381397e-02
5.479999999999999716e+01,2.395489462255176796e-02
5.484000000000000341e+01,2.648547539190559963e-02
5.488000000000000256e+01,2.549757650325771424e-02
5.492000000000000171e+01,3.302434224455724765e-02
5.496000000000000085e+01,2.111184793775154958e-02
5.500000000000000000e+01,3.011741172170783951e-02
5.503999999999999915e+01,3.708549253912369476e-02
5.507999999999999829e+01,3.609207870710484656e-02
5.511999999999999744e+01,3.639343472429484860e-02
5.515999999999999659e+01,2.836304252205856802e-02
5.520000000000000284e+01,3.699281873843841828e-02
5.524000000000000199e+01,3.914209699684485094e-02
5.528000000000000114e+01,4.499276839235668429e-02
5.532000000000000028e+01,5.435970613997807149e-02
5.535999999999999943e+01,6.668753281613909456e-02
5.539999999999999858e+01,5.291157182706485856e-02
5.543999999999999773e+01,4.561387790156672117e-02
5.547999999999999687e+01,4.701595340538027024e-02
5.552000000000000313e+01,4.786153090844456892e-02
5.556000000000000227e+01,3.870921766141156850e-02
5.560000000000000142e+01,4.455093030232358531e-02
5.564000000000000057e+01,4.095012521958184964e-02
5.567999999999999972e+01,3.512668839967242329e-02
5.571999999999999886e+01,5.170228584206353756e-02
5.575999999999999801e+01,3.421369369849754788e-02
5.579999999999999716e+01,4.004975948224982762e-02
5.584000000000000341e+01,3.922018000311024849e-02
5.588000000000000256e+01,4.061096912114821322e-02
5.592000000000000171e+01,3.700223791846015547e-02
5.596000000000000085e+01,4.746189281590310061e-02
5.600000000000000000e+01,3.903762551467403197e-02
5.603999999999999915e+01,4.912474904504744722e-02
5.607999999999999829e+01,5.013958936754486090e-02
5.611999999999999744e+01,4.226727033574448344e-02
5.615999999999999659e+01,4.420544773192915111e-02
5.620000000000000284e+01,6.224838094614972700e-02
5.624000000000000199e+01,6.066688189029752903e-02
5.628000000000000114e+01,6.630412039528547907e-02
5.632000000000000028e+01,7.508733797108975427e-02
5.635999999999999943e+01,7.276188356689920755e-02
5.639999999999999858e+01,8.006179147715401789e-02
5.643999999999999773e+01,7.495714724098707926e-02
5.647999999999999687e+01,9.576889048510810187e-02
5.652000000000000313e+01,1.082488356757047854e-01
5.656000000000000227e+01,1.127672319856425215e-01
5.660000000000000142e+01,1.109902058227959787e-01
5.664000000000000057e+01,1.158765280715495227e-01
5.667999999999999972e+01,1.205765604525737555e-01
5.671999999999999886e+01,1.195365419215485003e-01
5.675999999999999801e+01,1.166441027177929912e-01
5.679999999999999716e+01,1.139356198877559539e-01
5.684000000000000341e+01,1.140028464357472071e-01
5.688000000000000256e+01,1.003696274795110033e-01
5.692000000000000171e+01,8.988236560845970502e-02
5.696000000000000085e+01,9.846183681557045542e-02
5.700000000000000000e+01,8.667634662699379156e-02
5.703999999999999915e+01,8.599719785581866338e-02
5.707999999999999829e+01,7.587547859547427720e-02
5.711999999999999744e+01,7.889647633327144527e-02
5.715999999999999659e+01,7.913941214481551301e-02
5.720000000000000284e+01,8.012166563085147686e-02
5.724000000000000199e+01,8.628624298855974706e-02
5.728000000000000114e+01,1.044827795658522518e-01
5.732000000000000028e+01,9.583495684674055159e-02
5.735999999999999943e+01,9.662733594577692375e-02
5.739999999999999858e+01,1.014912811379282825e-01
5.743999999999999773e+01,9.561676541452215905e-02
5.747999999999999687e+01,9.973782306999891267e-02
5.752000000000000313e+01,8.478977751058365542e-02
5.756000000000000227e+01,7.928192644077260154e-02
5.760000000000000142e+01,6.618273902044877199e-02
5.764000000000000057e+01,5.974686336900601746e-02
5.767999999999999972e+01,6.145530057503183902e-02
5.771999999999999886e+01,4.872276021979793370e-02
5.775999999999999801e+01,4.394940447132804351e-02
5.779999999999999716e+01,5.009723697250619695e-02
5.784000000000000341e+01,4.291483943102055582e-02
5.788000000000000256e+01,4.035936635200584183e-02
5.792000000000000171e+01,2.965716923894716819e-02
5.796000000000000085e+01,3.061665578984959502e-02
5.800000000000000000e+01,2.953855091176298478e-02
5.803999999999999915e+01,2.956998356685839463e-02
5.807999999999999829e+01,3.237708016301044101e-02
5.811999999999999744e+01,3.407220752948245807e-02
5.815999999999999659e+01,2.206684248904645235e-02
5.820000000000000284e+01,3.153479424053243912e-02
5.824000000000000199e+01,1.860136064720180685e-02
5.828000000000000114e+01,2.084698005861600201e-02
5.832000000000000028e+01,2.105499631537113142e-02
5.835999999999999943e+01,2.163203710248991218e-02
5.839999999999999858e+01,1.813509329137452317e-02
5.843999999999999773e+01,2.889157002573375724e-02
5.847999999999999687e+01,1.983840709104239125e-02
5.852000000000000313e+01,1.652289708320398703e-02
5.856000000000000227e+01,2.301779556082480041e-02
5.860000000000000142e+01,2.173619572592678378e-02
5.864000000000000057e+01,1.971285824570875173e-02
5.867999999999999972e+01,2.046516272091589497e-02
5.871999999999999886e+01,2.510385960156177182e-02
5.875999999999999801e+01,2.178092698756659007e-02
5.879999999999999716e+01,1.086661405179574665e-02
5.884000000000000341e+01,1.568670955870823946e-02
5.888000000000000256e+01,1.680305351745549347e-02
5.892000000000000171e+01,2.013965467951416358e-02
5.896000000000000085e+01,2.236425583200871842e-02
5.900000000000000000e+01,2.977111636498993782e-02
5.903999999999999915e+01,1.625756479327558970e-02
5.907999999999999829e+01,2.440242308717743835e-02
5.911999999999999744e+01,2.291951082147603014e-02
5.915999999999999659e+01,1.884358866337026636e-02
5.920000000000000284e+01,1.384078302073477387e-02
5.924000000000000199e+01,2.049961413938005544e-02
5.928000000000000114e+01,1.938192202845737122e-02
5.932000000000000028e+01,2.307622693377714765e-02
5.935999999999999943e+01,1.269974482235192853e-02
5.939999999999999858e+01,1.694689871796509206e-02
5.943999999999999773e+01,1.860103246121255771e-02
5.947999999999999687e+01,1.192325968848715473e-02
5.952000000000000313e+01,1.598148682064588766e-02
5.956000000000000227e+01,1.226318046327532808e-02
5.960000000000000142e+01,1.483786341648224774e-02
5.964000000000000057e+01,1.630052144307606379e-02
5.967999999999999972e+01,2.294541393310750230e-02
5.971999999999999886e+01,9.965746636403705061e-03
5.975999999999999801e+01,1.383120598680393463e-02
5.979999999999999716e+01,1.177137624629281260e-02
5.984000000000000341e+01,2.118803596214380996e-02
5.988000000000000256e+01,1.375700981773024002e-02
5.992000000000000171e+01,1.206358530036289074e-02
5.996000000000000085e+01,7.777121576415875655e-03
