2.003999999999999915e+01,4.572830006704683287e-02
2.007999999999999829e+01,4.253046973493947169e-02
2.012000000000000099e+01,5.673949190353535371e-02
2.016000000000000014e+01,5.599352489336321959e-02
2.019999999999999929e+01,7.682221967410160501e-02
2.023999999999999844e+01,1.870773827993480951e-02
2.028000000000000114e+01,5.498205516176438851e-02
2.032000000000000028e+01,4.467503239965046891e-02
2.035999999999999943e+01,4.172306821625687556e-02
2.039999999999999858e+01,6.083608815145994525e-02
2.044000000000000128e+01,4.783252509598848873e-02
2.048000000000000043e+01,4.561633183047247159e-02
2.051999999999999957e+01,4.119373756256904801e-02
2.055999999999999872e+01,2.451295695114387441e-02
2.060000000000000142e+01,5.098138094446572760e-02
2.064000000000000057e+01,4.508804791199753914e-02
2.067999999999999972e+01,5.267889608557861647e-02
2.071999999999999886e+01,5.781816922165645967e-02
2.076000000000000156e+01,4.604110380228305932e-02
2.080000000000000071e+01,5.608383988554268423e-02
2.083999999999999986e+01,6.024267942304620954e-02
2.087999999999999901e+01,6.047894433276339993e-02
2.092000000000000171e+01,4.110204382540925960e-02
2.096000000000000085e+01,2.760918342862670946e-02
2.100000000000000000e+01,4.476207230725613023e-02
2.103999999999999915e+01,3.592748880935233563e-02
2.107999999999999829e+01,2.978978936803477334e-02
2.112000000000000099e+01,4.645253951706245638e-02
2.116000000000000014e+01,5.306356666843085879e-02
2.119999999999999929e+01,4.888737274316791448e-02
2.123999999999999844e+01,4.274991237873147082e-02
2.128000000000000114e+01,3.121886749920784951e-02
2.132000000000000028e+01,5.033355816573904101e-02
2.135999999999999943e+01,6.773214269885541317e-02
2.139999999999999858e+01,5.816257759284206019e-02
2.144000000000000128e+01,6.109649926858522900e-02
2.148000000000000043e+01,5.471418058011426333e-02
2.151999999999999957e+01,6.059017978679313160e-02
2.155999999999999872e+01,1.620730433425806097e-02
2.160000000000000142e+01,2.061239603038030055e-02
2.164000000000000057e+01,3.555964229327152060e-02
2.167999999999999972e+01,4.952626505619286273e-02
2.171999999999999886e+01,5.172498261520809548e-02
2.176000000000000156e+01,2.793619690663649846e-02
2.180000000000000071e+01,2.523167343365493795e-02
2.183999999999999986e+01,3.380479230939633511e-02
2.187999999999999901e+01,3.036483366228553277e-02
2.192000000000000171e+01,3.305403939194245799e-02
2.196000000000000085e+01,6.638895320894042107e-02
2.200000000000000000e+01,2.445809715358113201e-02
2.203999999999999915e+01,4.014114572264033953e-02
2.207999999999999829e+01,4.135945364532500612e-02
2.212000000000000099e+01,3.326149374508154122e-02
2.216000000000000014e+01,5.409307517145887922e-02
2.219999999999999929e+01,4.182733627862804393e-02
2.223999999999999844e+01,3.397458985333618592e-02
2.228000000000000114e+01,4.401893416412176741e-02
2.232000000000000028e+01,3.886303116871284852e-02
2.235999999999999943e+01,2.953932459297388055e-02
2.239999999999999858e+01,4.179018541881507343e-02
2.244000000000000128e+01,3.786013197288289750e-02
2.248000000000000043e+01,2.706544980117012861e-02
2.251999999999999957e+01,6.873617712022447868e-02
2.255999999999999872e+01,5.034136870512723183e-02
2.260000000000000142e+01,3.660470276630944236e-02
2.264000000000000057e+01,4.419742847778676542e-02
2.267999999999999972e+01,3.781571870887978637e-02
2.271999999999999886e+01,5.717637533474204115e-02
2.276000000000000156e+01,2.922009126751090244e-02
2.280000000000000071e+01,2.479968107430310931e-02
2.283999999999999986e+01,3.778600668226324982e-02
2.287999999999999901e+01,2.723643551256128142e-02
2.292000000000000171e+01,4.365504942811775785e-02
2.296000000000000085e+01,6.056397765188065857e-02
2.300000000000000000e+01,4.069806941903181263e-02
2.303999999999999915e+01,3.823888840650267740e-02
2.307999999999999829e+01,1.763744202934677124e-02
2.312000000000000099e+01,3.258496305596107062e-02
2.316000000000000014e+01,5.243576798674743494e-02
2.319999999999999929e+01,5.733145330987494265e-02
2.323999999999999844e+01,2.814911187631402231e-02
2.328000000000000114e+01,2.103163099713652173e-02
2.332000000000000028e+01,2.641755623974266845e-02
2.335999999999999943e+01,3.572609498860326860e-02
2.339999999999999858e+01,1.659540556424792673e-02
2.344000000000000128e+01,1.462626074424888331e-02
2.348000000000000043e+01,3.962527698313326324e-02
2.351999999999999957e+01,3.544956353749067340e-02
2.355999999999999872e+01,4.892572045623024696e-02
2.360000000000000142e+01,2.023337518192994469e-02
2.364000000000000057e+01,4.106440589443779987e-02
2.367999999999999972e+01,4.007566368576320759e-02
2.371999999999999886e+01,5.502262679692018071e-02
2.376000000000000156e+01,4.398200083200884403e-02
2.380000000000000071e+01,3.882529312962529344e-02
2.383999999999999986e+01,4.666230014735534004e-02
2.387999999999999901e+01,3.488601475146132364e-02
2.392000000000000171e+01,3.070980064945827079e-02
2.396000000000000085e+01,2.579803068008384992e-02
2.400000000000000000e+01,3.878327765149289924e-02
2.403999999999999915e+01,1.572913990868195569e-02
2.407999999999999829e+01,5.911477561926576502e-02
2.412000000000000099e+01,5.273175774431446833e-02
2.416000000000000014e+01,3.605172270471398988e-02
2.419999999999999929e+01,3.383637966530493590e-02
2.423999999999999844e+01,4.044692146176669112e-02
2.428000000000000114e+01,3.602494458226824375e-02
2.432000000000000028e+01,3.601587092948778379e-02
2.435999999999999943e+01,2.840659152815164581e-02
2.439999999999999858e+01,4.702993735099544187e-02
2.444000000000000128e+01,3.819467219728267526e-02
2.448000000000000043e+01,2.175919614650540651e-02
2.451999999999999957e+01,3.621448380248017129e-02
2.455999999999999872e+01,4.037273713210963455e-02
2.460000000000000142e+01,3.717593987043295300e-02
2.464000000000000057e+01,4.035335574025673833e-02
2.467999999999999972e+01,3.911770303764443291e-02
2.471999999999999886e+01,1.655256370197393315e-02
2.476000000000000156e+01,3.811711230647873289e-02
2.480000000000000071e+01,2.241641631820328814e-02
2.483999999999999986e+01,2.461270123114909364e-02
2.487999999999999901e+01,4.102848351513517511e-02
2.492000000000000171e+01,2.263067060050652154e-02
2.496000000000000085e+01,3.487843706049641168e-02
2.500000000000000000e+01,2.628703578277549052e-02
2.503999999999999915e+01,3.534744137116052620e-02
2.507999999999999829e+01,3.092363941751812700e-02
2.512000000000000099e+01,1.546728274835330527e-02
2.516000000000000014e+01,2.746934596748237811e-02
2.519999999999999929e+01,3.775513830091181688e-02
2.523999999999999844e+01,3.872452895018180241e-02
2.528000000000000114e+01,1.664825076014687238e-02
2.532000000000000028e+01,2.595303286200620688e-02
2.535999999999999943e+01,1.956710632024399182e-02
2.539999999999999858e+01,4.186541664109513089e-02
2.544000000000000128e+01,2.444680036777759774e-02
2.548000000000000043e+01,3.105427389365298177e-02
2.551999999999999957e+01,2.810016826791410932e-02
2.555999999999999872e+01,2.686209267069294623e-02
2.560000000000000142e+01,4.131447627906317810e-02
2.564000000000000057e+01,3.051468651419497746e-02
2.567999999999999972e+01,4.815395614448522016e-02
2.571999999999999886e+01,2.509562535034978031e-02
2.576000000000000156e+01,3.979263778119557227e-02
2.580000000000000071e+01,2.310833361743868872e-02
2.583999999999999986e+01,1.990798927384873282e-02
2.587999999999999901e+01,4.244987574762726368e-02
2.592000000000000171e+01,4.341705864899139677e-02
2.596000000000000085e+01,2.697734898431750072e-02
2.600000000000000000e+01,3.505403771716626704e-02
2.603999999999999915e+01,2.278184500042869723e-02
2.607999999999999829e+01,4.189067996836224467e-02
2.612000000000000099e+01,4.653460095678853964e-02
2.616000000000000014e+01,4.406856987756080368e-02
2.619999999999999929e+01,4.331854136813678702e-02
2.623999999999999844e+01,4.109736280687020099e-02
2.628000000000000114e+01,1.901762340753420863e-02
2.632000000000000028e+01,4.302882865189743694e-02
2.635999999999999943e+01,2.732306783019071081e-02
2.639999999999999858e+01,4.005633551258892117e-02
2.644000000000000128e+01,2.974388458676273037e-02
2.648000000000000043e+01,2.923788420837813984e-02
2.651999999999999957e+01,3.755767084419536772e-02
2.655999999999999872e+01,3.092219371410455039e-02
2.660000000000000142e+01,4.046746379389924014e-02
2.664000000000000057e+01,4.510925030041120637e-02
2.667999999999999972e+01,1.591802791391419905e-02
2.671999999999999886e+01,4.164368936304735369e-02
2.676000000000000156e+01,4.554944574593648710e-02
2.680000000000000071e+01,3.229343897749267084e-02
2.683999999999999986e+01,4.306346365847450036e-02
2.687999999999999901e+01,3.397490175884258085e-02
2.692000000000000171e+01,3.665409516292537223e-02
2.696000000000000085e+01,4.301058216372825871e-02
2.700000000000000000e+01,3.220529743235051728e-02
2.703999999999999915e+01,3.120643922203902160e-02
2.707999999999999829e+01,2.726540219471823567e-02
2.712000000000000099e+01,4.612455733229846311e-02
2.716000000000000014e+01,5.076391932422839870e-02
2.719999999999999929e+01,6.471937006401130843e-02
2.723999999999999844e+01,2.768020608569068605e-02
2.728000000000000114e+01,1.932519831001075841e-02
2.732000000000000028e+01,2.690574139889555239e-02
2.735999999999999943e+01,8.743706410712813112e-03
2.739999999999999858e+01,3.691773518391661124e-02
2.744000000000000128e+01,3.959434790198110288e-02
2.748000000000000043e+01,3.001247737917765723e-02
2.751999999999999957e+01,4.347594731384629707e-02
2.755999999999999872e+01,3.953245603569165850e-02
2.760000000000000142e+01,3.460808726446197581e-02
2.764000000000000057e+01,5.444521198206746238e-02
2.767999999999999972e+01,4.633325580484154438e-02
2.771999999999999886e+01,2.179499336718359118e-02
2.776000000000000156e+01,2.888285198933994435e-02
2.780000000000000071e+01,4.651260088814203331e-02
2.783999999999999986e+01,1.265737841776122877e-02
2.787999999999999901e+01,3.151250092568438216e-02
2.792000000000000171e+01,3.516713586366471134e-02
2.796000000000000085e+01,5.917027238430940667e-02
2.800000000000000000e+01,4.639835792713815910e-02
2.803999999999999915e+01,4.073600708985106872e-02
2.807999999999999829e+01,3.164110362277898492e-02
2.812000000000000099e+01,4.877866577611082721e-02
2.816000000000000014e+01,3.649613371497135300e-02
2.819999999999999929e+01,2.445852568954938119e-02
2.823999999999999844e+01,3.546622723054609905e-02
2.828000000000000114e+01,4.279620210664219354e-02
2.832000000000000028e+01,3.639666497670362988e-02
2.835999999999999943e+01,5.500375589881424665e-02
2.839999999999999858e+01,3.462928959300597131e-02
2.844000000000000128e+01,1.670622611430425467e-02
2.848000000000000043e+01,2.697693644461942111e-02
2.851999999999999957e+01,4.729917525199213435e-02
2.855999999999999872e+01,3.771097177466205957e-02
2.860000000000000142e+01,4.749058060421276067e-02
2.864000000000000057e+01,3.495987279901165840e-02
2.867999999999999972e+01,5.282941931038613592e-02
2.871999999999999886e+01,4.029818576384455037e-02
2.876000000000000156e+01,3.512165040040103603e-02
2.880000000000000071e+01,4.465477513190880404e-02
2.883999999999999986e+01,5.712961643736181455e-02
2.887999999999999901e+01,3.503585809767405940e-02
2.892000000000000171e+01,3.598738014952102687e-02
2.896000000000000085e+01,4.306776453228083196e-02
2.900000000000000000e+01,4.867688044749376997e-02
2.903999999999999915e+01,5.918902798994292447e-02
2.907999999999999829e+01,3.954554548321704416e-02
2.912000000000000099e+01,4.343766569571258507e-02
2.916000000000000014e+01,5.272314329547064110e-02
2.919999999999999929e+01,5.612436567001963250e-02
2.923999999999999844e+01,6.884158926777070309e-02
2.928000000000000114e+01,8.499084147013581669e-02
2.932000000000000028e+01,8.839120057929530927e-02
2.935999999999999943e+01,9.767523940340377964e-02
2.939999999999999858e+01,9.690720169890884583e-02
2.944000000000000128e+01,1.307071984263128983e-01
2.948000000000000043e+01,1.448936624763445535e-01
2.951999999999999957e+01,1.718284320961348255e-01
2.955999999999999872e+01,2.588284382431274011e-01
2.960000000000000142e+01,3.575960847104696083e-01
2.964000000000000057e+01,4.360146952729587189e-01
2.967999999999999972e+01,5.990150826408838780e-01
2.971999999999999886e+01,7.992803124244622914e-01
2.976000000000000156e+01,9.218277848561009513e-01
2.980000000000000071e+01,1.000000000000000000e+00
2.983999999999999986e+01,9.504407016890646931e-01
2.987999999999999901e+01,8.386090644965285001e-01
2.992000000000000171e+01,6.490596630873740613e-01
2.996000000000000085e+01,4.886846338060298334e-01
3.000000000000000000e+01,3.601807949332679337e-01
3.003999999999999915e+01,2.848775392741846324e-01
3.007999999999999829e+01,2.402196433200073367e-01
3.012000000000000099e+01,2.090455235558463520e-01
3.016000000000000014e+01,1.697806182899984639e-01
3.019999999999999929e+01,1.508641185013156194e-01
3.023999999999999844e+01,1.586703242845814432e-01
3.028000000000000114e+01,1.605922285060582266e-01
3.032000000000000028e+01,1.431457294648680045e-01
3.035999999999999943e+01,1.644350381062212596e-01
3.039999999999999858e+01,1.837626873055555887e-01
3.044000000000000128e+01,2.163289335112817402e-01
3.048000000000000043e+01,2.493851713853240393e-01
3.051999999999999957e+01,3.464292518667763665e-01
3.055999999999999872e+01,5.072160077852017057e-01
3.060000000000000142e+01,6.493698447905748017e-01
3.064000000000000057e+01,6.206430140666536754e-01
3.067999999999999972e+01,5.495022119334008748e-01
3.071999999999999886e+01,4.026049348942763451e-01
3.076000000000000156e+01,3.111146992661841804e-01
3.080000000000000071e+01,2.483084688178050226e-01
3.083999999999999986e+01,2.117345872902952342e-01
3.087999999999999901e+01,1.606955875590919680e-01
3.092000000000000171e+01,1.388309187676279310e-01
3.096000000000000085e+01,1.228498610443276157e-01
3.100000000000000000e+01,1.107910890388821845e-01
3.103999999999999915e+01,1.306034628216085625e-01
3.107999999999999829e+01,1.008920498595513859e-01
3.112000000000000099e+01,9.790330471371097576e-02
3.116000000000000014e+01,1.113402765886855883e-01
3.119999999999999929e+01,1.186477419757022006e-01
3.123999999999999844e+01,1.205611955213938130e-01
3.128000000000000114e+01,1.286034118601595833e-01
3.132000000000000028e+01,1.346839292850048053e-01
3.135999999999999943e+01,1.750872333113392132e-01
3.139999999999999858e+01,1.617989241409867607e-01
3.144000000000000128e+01,1.754784345117612887e-01
3.148000000000000043e+01,2.097514608965401206e-01
3.151999999999999957e+01,2.491725779603057300e-01
3.155999999999999872e+01,2.961934385295626471e-01
3.160000000000000142e+01,3.233555100101894730e-01
3.164000000000000057e+01,3.870468451675249111e-01
3.167999999999999972e+01,4.178856187277174006e-01
3.171999999999999886e+01,4.859891488950813798e-01
3.176000000000000156e+01,5.131496540421380814e-01
3.180000000000000071e+01,5.895880196231308989e-01
3.183999999999999986e+01,6.113540913125014020e-01
3.187999999999999901e+01,6.517523382200401949e-01
3.192000000000000171e+01,7.573641949403892015e-01
3.196000000000000085e+01,8.642014761935802314e-01
3.200000000000000000e+01,8.616945603888339633e-01
3.203999999999999915e+01,7.493531149014457382e-01
3.207999999999999829e+01,6.683924396732844331e-01
3.211999999999999744e+01,4.842166985953623715e-01
3.215999999999999659e+01,3.706481970271160997e-01
3.220000000000000284e+01,3.048865460055051324e-01
3.224000000000000199e+01,2.474601056773041985e-01
3.228000000000000114e+01,2.130788015823891768e-01
3.232000000000000028e+01,1.899746901997539372e-01
3.235999999999999943e+01,1.592700298346370058e-01
3.239999999999999858e+01,1.597009605451222836e-01
3.243999999999999773e+01,1.326729370451249501e-01
3.247999999999999687e+01,1.242770630207517824e-01
3.252000000000000313e+01,1.212744022253919446e-01
3.256000000000000227e+01,1.258714420312827542e-01
3.260000000000000142e+01,1.191904407436627233e-01
3.264000000000000057e+01,1.031927202805015542e-01
3.267999999999999972e+01,9.724634981275631640e-02
3.271999999999999886e+01,8.418974582553769015e-02
3.275999999999999801e+01,9.221693384342988242e-02
3.279999999999999716e+01,8.332726673881223067e-02
3.284000000000000341e+01,8.571477003626927493e-02
3.288000000000000256e+01,9.521162929708497369e-02
3.292000000000000171e+01,9.073361373809103736e-02
3.296000000000000085e+01,9.017779980464003808e-02
3.300000000000000000e+01,9.452484759763203626e-02
3.303999999999999915e+01,8.906482814485176813e-02
3.307999999999999829e+01,1.120435505958481265e-01
3.311999999999999744e+01,1.151634187437685780e-01
3.315999999999999659e+01,1.430445435491149442e-01
3.320000000000000284e+01,2.118678432773680453e-01
3.324000000000000199e+01,3.069233889563125484e-01
3.328000000000000114e+01,4.009978134460943089e-01
3.332000000000000028e+01,3.827859987931317987e-01
3.335999999999999943e+01,3.312312195553669958e-01
3.339999999999999858e+01,2.657015449037569699e-01
3.343999999999999773e+01,1.989455767440383993e-01
3.347999999999999687e+01,1.385634424423317912e-01
3.352000000000000313e+01,1.115233402518844424e-01
3.356000000000000227e+01,1.043411684718183879e-01
3.360000000000000142e+01,6.871933089528069194e-02
3.364000000000000057e+01,9.242705843384074749e-02
3.367999999999999972e+01,1.051018639965773521e-01
3.371999999999999886e+01,1.109115585898670514e-01
3.375999999999999801e+01,1.105916368603425265e-01
3.379999999999999716e+01,1.038969316375667196e-01
3.384000000000000341e+01,1.106858430010316252e-01
3.388000000000000256e+01,1.248292328778819599e-01
3.392000000000000171e+01,1.379914741068554718e-01
3.396000000000000085e+01,1.616953413223516656e-01
3.400000000000000000e+01,1.518110510400639823e-01
3.403999999999999915e+01,1.380036215101816122e-01
3.407999999999999829e+01,1.670996527816133170e-01
3.411999999999999744e+01,1.898208868304367691e-01
3.415999999999999659e+01,2.012640128551337060e-01
3.420000000000000284e+01,2.377135163711137367e-01
3.424000000000000199e+01,2.425361757264314910e-01
3.428000000000000114e+01,2.770233527717742561e-01
3.432000000000000028e+01,2.649285895138024927e-01
3.435999999999999943e+01,2.653367587147965612e-01
3.439999999999999858e+01,2.615766077684016921e-01
3.443999999999999773e+01,2.573256167724597421e-01
3.447999999999999687e+01,2.592032512760215068e-01
3.452000000000000313e+01,2.544609059410112284e-01
3.456000000000000227e+01,2.264273281610741650e-01
3.460000000000000142e+01,2.096708452717481741e-01
3.464000000000000057e+01,2.088495991879443514e-01
3.467999999999999972e+01,1.898855900503210459e-01
3.471999999999999886e+01,1.557208015939173795e-01
3.475999999999999801e+01,1.649497756724791764e-01
3.479999999999999716e+01,1.540746579145728934e-01
3.484000000000000341e+01,1.485926538478415382e-01
3.488000000000000256e+01,1.396778054024879201e-01
3.492000000000000171e+01,1.344399090360979265e-01
3.496000000000000085e+01,1.166980430508517547e-01
3.500000000000000000e+01,1.303368220444491021e-01
3.503999999999999915e+01,1.150455425509333135e-01
3.507999999999999829e+01,1.110313373539928566e-01
3.511999999999999744e+01,1.053004356612844139e-01
3.515999999999999659e+01,1.081497848358703023e-01
3.520000000000000284e+01,1.200697140701157822e-01
3.524000000000000199e+01,9.423361988277255408e-02
3.528000000000000114e+01,9.879749684401584187e-02
3.532000000000000028e+01,1.092447978109332418e-01
3.535999999999999943e+01,1.201818810734717330e-01
3.539999999999999858e+01,1.208214649276948965e-01
3.543999999999999773e+01,1.371510858097803598e-01
3.547999999999999687e+01,1.412218802170717991e-01
3.552000000000000313e+01,1.315628537077949967e-01
3.556000000000000227e+01,1.493618008827081733e-01
3.560000000000000142e+01,1.507341037117721494e-01
3.564000000000000057e+01,1.528413422775372066e-01
3.567999999999999972e+01,1.711289384826817084e-01
3.571999999999999886e+01,1.751963742818750391e-01
3.575999999999999801e+01,1.893150279314226581e-01
3.579999999999999716e+01,2.205946958889105913e-01
3.584000000000000341e+01,2.305444001181830294e-01
3.588000000000000256e+01,2.539776334090450005e-01
3.592000000000000171e+01,2.609842086247006754e-01
3.596000000000000085e+01,2.996165530853963643e-01
3.600000000000000000e+01,3.208415742214767441e-01
3.603999999999999915e+01,3.722213684446532556e-01
3.607999999999999829e+01,3.882967577493531275e-01
3.611999999999999744e+01,4.203073203612989195e-01
3.615999999999999659e+01,4.628594145704378326e-01
3.620000000000000284e+01,4.527003514596038558e-01
3.624000000000000199e+01,4.888769728366679224e-01
3.628000000000000114e+01,4.971041443424300543e-01
3.632000000000000028e+01,4.942982806051731126e-01
3.635999999999999943e+01,4.471168781283573201e-01
3.639999999999999858e+01,4.408775132808776531e-01
3.643999999999999773e+01,3.843786353590816218e-01
3.647999999999999687e+01,3.371954480337844284e-01
3.652000000000000313e+01,3.253154877411636448e-01
3.656000000000000227e+01,2.670986564939964447e-01
3.660000000000000142e+01,2.566884870148052888e-01
3.664000000000000057e+01,2.443163903711327301e-01
3.667999999999999972e+01,2.299823648468092285e-01
3.671999999999999886e+01,2.031442941921656475e-01
3.675999999999999801e+01,1.964091821086003664e-01
3.679999999999999716e+01,1.923702796269562143e-01
3.684000000000000341e+01,1.912727504853311000e-01
3.688000000000000256e+01,1.779163348029749736e-01
3.692000000000000171e+01,1.795143962874024557e-01
3.696000000000000085e+01,1.607631078079345688e-01
3.700000000000000000e+01,1.640760912366664992e-01
3.703999999999999915e+01,1.340459521929900644e-01
3.707999999999999829e+01,1.172541252715467719e-01
3.711999999999999744e+01,1.146812705732367654e-01
3.715999999999999659e+01,1.013205100466128550e-01
3.720000000000000284e+01,1.097788473930731284e-01
3.724000000000000199e+01,1.152945700154378861e-01
3.728000000000000114e+01,7.839603806048171808e-02
3.732000000000000028e+01,7.091672791239116147e-02
3.735999999999999943e+01,8.206935786722978354e-02
3.739999999999999858e+01,5.227872082184308739e-02
3.743999999999999773e+01,4.087485499277893758e-02
3.747999999999999687e+01,4.638676593826305400e-02
3.752000000000000313e+01,6.194981922263782803e-02
3.756000000000000227e+01,4.098257681892251980e-02
3.760000000000000142e+01,4.036342240099058398e-02
3.764000000000000057e+01,4.342110336248736907e-02
3.767999999999999972e+01,3.642635254826723928e-02
3.771999999999999886e+01,3.531492276954346921e-02
3.775999999999999801e+01,3.665449595040226605e-02
3.779999999999999716e+01,3.627725765212791442e-02
3.784000000000000341e+01,3.393804070428325242e-02
3.788000000000000256e+01,3.576597974738440766e-02
3.792000000000000171e+01,4.151590761099416271e-02
3.796000000000000085e+01,3.623272986862999950e-02
3.800000000000000000e+01,3.585219933150497751e-02
3.803999999999999915e+01,2.100624339632281221e-02
3.807999999999999829e+01,2.945034030409751993e-02
3.811999999999999744e+01,3.299046109790539083e-02
3.815999999999999659e+01,4.560103495482015906e-02
3.820000000000000284e+01,1.530698385397763310e-02
3.824000000000000199e+01,2.570972598440088297e-02
3.828000000000000114e+01,4.175059966967811786e-02
3.832000000000000028e+01,3.817756140409469395e-02
3.835999999999999943e+01,4.024265126102607310e-02
3.839999999999999858e+01,1.362270392686283117e-02
3.843999999999999773e+01,3.579000123394227018e-02
3.847999999999999687e+01,3.368523609440143840e-02
3.852000000000000313e+01,3.256044858161567801e-02
3.856000000000000227e+01,1.647988245203265215e-02
3.860000000000000142e+01,2.687649776067797119e-02
3.864000000000000057e+01,2.011084193177985896e-02
3.867999999999999972e+01,3.786104047463138139e-02
3.871999999999999886e+01,4.261677717014653033e-02
3.875999999999999801e+01,2.457143213145856694e-02
3.879999999999999716e+01,2.319664177945367917e-02
3.884000000000000341e+01,2.942128259006732832e-02
3.888000000000000256e+01,3.809687830751409127e-02
3.892000000000000171e+01,2.004873815780031446e-02
3.896000000000000085e+01,1.425816765327740133e-02
3.900000000000000000e+01,1.925417235217113943e-02
3.903999999999999915e+01,2.523013236761478817e-02
3.907999999999999829e+01,2.336008962981131476e-02
3.911999999999999744e+01,2.688297695303226362e-02
3.915999999999999659e+01,1.937270718519022022e-02
3.920000000000000284e+01,3.319111857341611183e-02
3.924000000000000199e+01,2.200193854499644594e-02
3.928000000000000114e+01,2.478647261228260693e-02
3.932000000000000028e+01,2.732512271159416237e-02
3.935999999999999943e+01,2.373391622434310039e-02
3.939999999999999858e+01,1.940649142824340048e-02
3.943999999999999773e+01,1.851065932967154229e-02
3.947999999999999687e+01,2.349807275513221203e-02
3.952000000000000313e+01,9.361853653178223156e-03
3.956000000000000227e+01,1.532847299042831672e-02
3.960000000000000142e+01,1.688138362397005252e-02
3.964000000000000057e+01,1.426574929190123874e-02
3.967999999999999972e+01,7.726733732319796336e-03
3.971999999999999886e+01,1.883889520458958272e-02
3.975999999999999801e+01,9.846752035357184477e-03
3.979999999999999716e+01,2.218326427964821893e-02
3.984000000000000341e+01,3.770618660550335843e-02
3.988000000000000256e+01,2.233751915358067955e-02
3.992000000000000171e+01,2.118770379291707792e-02
3.996000000000000085e+01,1.268217883180945520e-02
4.000000000000000000e+01,2.182781888936554879e-02
4.003999999999999915e+01,2.410807682267324115e-02
4.007999999999999829e+01,2.418109454664382069e-02
4.011999999999999744e+01,2.253720125364265872e-02
4.015999999999999659e+01,2.971850976099935093e-02
4.020000000000000284e+01,4.057654381292847418e-02
4.024000000000000199e+01,2.397528900129701490e-02
4.028000000000000114e+01,2.428969083233966167e-02
4.032000000000000028e+01,1.724836761741154259e-02
4.035999999999999943e+01,2.074839580186523674e-02
4.039999999999999858e+01,9.047400971451196108e-03
4.043999999999999773e+01,1.303622864769557466e-02
4.047999999999999687e+01,2.314360785267890325e-03
4.052000000000000313e+01,2.223740470747248912e-02
4.056000000000000227e+01,2.450776420745655326e-02
4.060000000000000142e+01,2.383536482509613502e-02
4.064000000000000057e+01,9.678090310722186132e-03
4.067999999999999972e+01,2.077208072241864753e-02
4.071999999999999886e+01,2.034251620390170254e-02
4.075999999999999801e+01,1.844117866396632194e-02
4.079999999999999716e+01,1.751972092911707052e-02
4.084000000000000341e+01,2.934608308802093279e-02
4.088000000000000256e+01,2.229391982401004654e-02
4.092000000000000171e+01,2.455725666166900037e-02
4.096000000000000085e+01,2.681980462266585208e-02
4.100000000000000000e+01,1.461680018905282125e-02
4.103999999999999915e+01,1.295511797993791417e-02
4.107999999999999829e+01,3.531885626385985327e-02
4.111999999999999744e+01,2.017148430352486144e-02
4.115999999999999659e+01,1.532026396491165295e-02
4.120000000000000284e+01,2.125552444038533717e-02
4.124000000000000199e+01,1.738336585531246800e-02
4.128000000000000114e+01,1.400073557275536076e-02
4.132000000000000028e+01,1.968842277590440379e-02
4.135999999999999943e+01,1.434285849866080015e-02
4.139999999999999858e+01,2.542257190280677523e-02
4.143999999999999773e+01,2.252704494301178972e-02
4.147999999999999687e+01,2.306302315609357403e-02
4.152000000000000313e+01,2.310785755760359425e-02
4.156000000000000227e+01,2.731969006245340420e-02
4.160000000000000142e+01,2.834355532645048414e-02
4.164000000000000057e+01,2.544395527062287554e-02
4.167999999999999972e+01,2.082737726720792007e-02
4.171999999999999886e+01,2.209394868232619422e-02
4.175999999999999801e+01,8.649769641344206769e-03
4.179999999999999716e+01,1.726965656820631315e-02
4.184000000000000341e+01,3.422434230776699032e-02
4.188000000000000256e+01,1.734536700985918334e-02
4.192000000000000171e+01,2.620793434529802846e-02
4.196000000000000085e+01,3.041152626875293780e-02
4.200000000000000000e+01,3.363362287806570539e-02
4.203999999999999915e+01,1.478999339006792889e-02
4.207999999999999829e+01,1.899107967379655079e-02
4.211999999999999744e+01,2.123000367780449038e-02
4.215999999999999659e+01,2.886172731394476970e-02
4.220000000000000284e+01,3.183446524108334702e-02
4.224000000000000199e+01,2.450941029489978398e-02
4.228000000000000114e+01,1.301569711591003473e-02
4.232000000000000028e+01,2.162470396041984641e-02
4.235999999999999943e+01,2.778120731965620302e-02
4.239999999999999858e+01,4.104665819387925962e-02
4.243999999999999773e+01,3.396252398896750652e-02
4.247999999999999687e+01,2.467104660454076323e-02
4.252000000000000313e+01,2.077235340671987340e-02
4.256000000000000227e+01,1.491147905131216117e-02
4.260000000000000142e+01,2.130801816965903484e-02
4.264000000000000057e+01,0.000000000000000000e+00
4.267999999999999972e+01,3.189202273441650581e-02
4.271999999999999886e+01,2.651803203205832515e-02
4.275999999999999801e+01,3.315628248450853965e-02
4.279999999999999716e+01,1.699327786962303091e-02
4.284000000000000341e+01,2.387495641924099188e-02
4.288000000000000256e+01,1.800716009414832577e-02
4.292000000000000171e+01,3.297755441281313010e-02
4.296000000000000085e+01,2.882416861347490353e-02
4.300000000000000000e+01,1.633428096773102342e-02
4.303999999999999915e+01,1.512112610080587616e-02
4.307999999999999829e+01,2.224271684532085069e-02
4.311999999999999744e+01,2.519561331746736701e-02
4.315999999999999659e+01,1.981200107852965075e-02
4.320000000000000284e+01,2.521478384519734370e-02
4.324000000000000199e+01,2.791985991659231767e-02
4.328000000000000114e+01,2.081742940278961257e-02
4.332000000000000028e+01,3.332734509971076869e-02
4.335999999999999943e+01,2.548763624559560390e-02
4.339999999999999858e+01,2.892464472477258505e-02
4.343999999999999773e+01,3.039943429063093547e-02
4.347999999999999687e+01,2.893134140993140410e-02
4.352000000000000313e+01,2.966883890612029978e-02
4.356000000000000227e+01,4.364437050506222993e-02
4.360000000000000142e+01,4.609622360957736642e-02
4.364000000000000057e+01,4.119220922604240054e-02
4.367999999999999972e+01,5.516502924490233883e-02
4.371999999999999886e+01,6.472396379458207616e-02
4.375999999999999801e+01,8.139178750948092289e-02
4.379999999999999716e+01,1.382658349995320446e-01
4.384000000000000341e+01,2.623143045179828214e-01
4.388000000000000256e+01,1.926811510081209156e-01
4.392000000000000171e+01,1.313827070701368283e-01
4.396000000000000085e+01,1.728076708808203577e-01
4.400000000000000000e+01,1.271979791210133270e-01
4.403999999999999915e+01,8.820683360470311929e-02
4.407999999999999829e+01,7.103449078030078800e-02
4.411999999999999744e+01,6.170651803839317245e-02
4.415999999999999659e+01,6.071324457134559538e-02
4.420000000000000284e+01,5.653189231241929208e-02
4.424000000000000199e+01,6.142073225881604370e-02
4.428000000000000114e+01,5.110838272189097142e-02
4.432000000000000028e+01,5.060171832075187337e-02
4.435999999999999943e+01,4.053266645210240604e-02
4.439999999999999858e+01,5.130174172893404300e-02
4.443999999999999773e+01,5.496008064859034953e-02
4.447999999999999687e+01,4.415271786687892386e-02
4.452000000000000313e+01,5.369314617360470415e-02
4.456000000000000227e+01,5.906481842585546010e-02
4.460000000000000142e+01,5.830640927332202128e-02
4.464000000000000057e+01,6.686334061868280665e-02
4.467999999999999972e+01,8.081296347748928577e-02
4.471999999999999886e+01,1.045682543103854389e-01
4.475999999999999801e+01,1.320000750445161353e-01
4.479999999999999716e+01,1.888507966617914147e-01
4.484000000000000341e+01,2.253518302297539966e-01
4.488000000000000256e+01,2.471419794803851044e-01
4.492000000000000171e+01,2.483372717950968478e-01
4.496000000000000085e+01,2.220730727382316250e-01
4.500000000000000000e+01,1.967885732886413275e-01
4.503999999999999915e+01,1.408574281296582631e-01
4.507999999999999829e+01,1.136096754778302131e-01
4.511999999999999744e+01,7.900599183967560446e-02
4.515999999999999659e+01,7.455669000194134477e-02
4.520000000000000284e+01,6.569343919675045551e-02
4.524000000000000199e+01,4.604193589698028777e-02
4.528000000000000114e+01,5.409315470644711354e-02
4.532000000000000028e+01,4.841413213778628793e-02
4.535999999999999943e+01,5.254075008450110468e-02
4.539999999999999858e+01,4.563394321769066037e-02
4.543999999999999773e+01,4.362946434856806305e-02
4.547999999999999687e+01,3.941751358720831100e-02
4.552000000000000313e+01,3.348842012597654655e-02
4.556000000000000227e+01,3.613913132793514227e-02
4.560000000000000142e+01,5.153745819946090045e-02
4.564000000000000057e+01,2.574699908554984804e-02
4.567999999999999972e+01,3.133672673319110036e-02
4.571999999999999886e+01,4.084810854826306792e-02
4.575999999999999801e+01,3.834538828721336529e-02
4.579999999999999716e+01,2.873187331922090471e-02
4.584000000000000341e+01,3.284662554084737118e-02
4.588000000000000256e+01,2.788925598905239028e-02
4.592000000000000171e+01,2.906002111224688031e-02
4.596000000000000085e+01,4.224289009667939188e-02
4.600000000000000000e+01,3.262436672020562617e-02
4.603999999999999915e+01,3.452761286409578717e-02
4.607999999999999829e+01,3.348786501040205282e-02
4.611999999999999744e+01,4.642153778740729098e-02
4.615999999999999659e+01,3.214083316201400004e-02
4.620000000000000284e+01,4.016917118007294618e-02
4.624000000000000199e+01,3.912537197918376092e-02
4.628000000000000114e+01,3.881605201387394732e-02
4.632000000000000028e+01,2.918942594300932489e-02
4.635999999999999943e+01,3.647819565703496608e-02
4.639999999999999858e+01,4.254011582399167685e-02
4.643999999999999773e+01,3.438141565153610829e-02
4.647999999999999687e+01,3.823479703011341962e-02
4.652000000000000313e+01,4.870661824967054826e-02
4.656000000000000227e+01,3.368020308500487697e-02
4.660000000000000142e+01,3.654983522528144207e-02
4.664000000000000057e+01,3.672161479586664307e-02
4.667999999999999972e+01,4.326666188848575512e-02
4.671999999999999886e+01,4.049438571385373387e-02
4.675999999999999801e+01,3.281776273261469840e-02
4.679999999999999716e+01,4.818565301508564297e-02
4.684000000000000341e+01,5.104906397632005127e-02
4.688000000000000256e+01,4.974361934524079015e-02
4.692000000000000171e+01,6.437288465560732365e-02
4.696000000000000085e+01,5.276840005725245974e-02
4.700000000000000000e+01,6.690524013870120801e-02
4.703999999999999915e+01,6.216329050711202897e-02
4.707999999999999829e+01,6.845273486694160303e-02
4.711999999999999744e+01,6.493450788928890882e-02
4.715999999999999659e+01,5.626675148906542384e-02
4.720000000000000284e+01,8.854056935237782089e-02
4.724000000000000199e+01,6.418010896462052195e-02
4.728000000000000114e+01,9.056783757875691565e-02
4.732000000000000028e+01,7.772803176247161661e-02
4.735999999999999943e+01,8.278424064390554893e-02
4.739999999999999858e+01,8.440706798562290503e-02
4.743999999999999773e+01,8.651915933973287898e-02
4.747999999999999687e+01,9.868196570649549748e-02
4.752000000000000313e+01,9.392728540032418971e-02
4.756000000000000227e+01,8.622954759829265514e-02
4.760000000000000142e+01,1.106474105444733014e-01
4.764000000000000057e+01,9.387640169673580615e-02
4.767999999999999972e+01,1.116726447075455653e-01
4.771999999999999886e+01,1.147578815529799873e-01
4.775999999999999801e+01,1.377004395685768046e-01
4.779999999999999716e+01,1.184734571085072213e-01
4.784000000000000341e+01,1.269490869228183660e-01
4.788000000000000256e+01,1.084554309937043465e-01
4.792000000000000171e+01,1.206063693578410118e-01
4.796000000000000085e+01,1.084848385431548962e-01
4.800000000000000000e+01,1.179367767814853279e-01
4.803999999999999915e+01,9.723227150623553472e-02
4.807999999999999829e+01,7.358468642492031753e-02
4.811999999999999744e+01,7.371705433651955242e-02
4.815999999999999659e+01,7.507415173226035521e-02
4.820000000000000284e+01,6.564286963686916110e-02
4.824000000000000199e+01,7.067524812372139031e-02
4.828000000000000114e+01,6.908705640964855899e-02
4.832000000000000028e+01,5.254266733338854023e-02
4.835999999999999943e+01,4.629412096831678203e-02
4.839999999999999858e+01,6.112869558603039460e-02
4.843999999999999773e+01,6.149739860158282001e-02
4.847999999999999687e+01,4.445824284759527373e-02
4.852000000000000313e+01,4.163757020839627815e-02
4.856000000000000227e+01,5.279021351354870606e-02
4.860000000000000142e+01,4.040585654396666032e-02
4.864000000000000057e+01,4.567229390040820902e-02
4.867999999999999972e+01,4.064066208021701460e-02
4.871999999999999886e+01,3.854989389766454166e-02
4.875999999999999801e+01,3.989031854511605746e-02
4.879999999999999716e+01,4.662325794054127115e-02
4.884000000000000341e+01,3.619348857516730550e-02
4.888000000000000256e+01,4.635648869000826011e-02
4.892000000000000171e+01,4.646657478546616094e-02
4.896000000000000085e+01,4.020122695938275342e-02
4.900000000000000000e+01,4.521235620284318885e-02
4.903999999999999915e+01,3.330593355892370183e-02
4.907999999999999829e+01,3.267598455220874915e-02
4.911999999999999744e+01,3.400622020436656900e-02
4.915999999999999659e+01,3.656114243642513695e-02
4.920000000000000284e+01,4.426339680049369563e-02
4.924000000000000199e+01,3.774491069327588766e-02
4.928000000000000114e+01,3.956090419120536494e-02
4.932000000000000028e+01,3.720793741047371400e-02
4.935999999999999943e+01,4.024746135134098235e-02
4.939999999999999858e+01,4.500199248362608123e-02
4.943999999999999773e+01,4.901987454848515807e-02
4.947999999999999687e+01,3.562985493956349892e-02
4.952000000000000313e+01,3.057430463877139695e-02
4.956000000000000227e+01,3.655004192688084130e-02
4.960000000000000142e+01,4.031813055728114548e-02
4.964000000000000057e+01,3.844625245405872832e-02
4.967999999999999972e+01,3.706354225772960642e-02
4.971999999999999886e+01,4.401529278868189510e-02
4.975999999999999801e+01,3.478495690400312118e-02
4.979999999999999716e+01,5.154099102152118889e-02
4.984000000000000341e+01,4.059215894049995887e-02
4.988000000000000256e+01,3.601645708794210671e-02
4.992000000000000171e+01,4.002037283608491508e-02
4.996000000000000085e+01,4.157145902672449572e-02
5.000000000000000000e+01,4.361169939490031067e-02
5.003999999999999915e+01,2.358587043183949308e-02
5.007999999999999829e+01,3.665619763154344402e-02
5.011999999999999744e+01,4.776401931760054093e-02
5.015999999999999659e+01,4.587688833180689901e-02
5.020000000000000284e+01,4.889188111951503490e-02
5.024000000000000199e+01,6.293813232124105539e-02
5.028000000000000114e+01,6.766690751661878778e-02
5.032000000000000028e+01,7.607197406565235909e-02
5.035999999999999943e+01,9.746961751433426413e-02
5.039999999999999858e+01,1.149434198020424236e-01
5.043999999999999773e+01,1.444291337399900288e-01
5.047999999999999687e+01,1.420421412981379694e-01
5.052000000000000313e+01,1.590220207022088050e-01
5.056000000000000227e+01,1.637424266355348990e-01
5.060000000000000142e+01,1.809650682629566909e-01
5.064000000000000057e+01,1.533212275697267146e-01
5.067999999999999972e+01,1.386699500467880042e-01
5.071999999999999886e+01,1.321079248926225191e-01
5.075999999999999801e+01,1.169638995008754206e-01
5.079999999999999716e+01,1.057413103230159801e-01
5.084000000000000341e+01,1.026079683654208818e-01
5.088000000000000256e+01,8.133116830530563723e-02
5.092000000000000171e+01,6.912427385018515835e-02
5.096000000000000085e+01,6.181947056134346613e-02
5.100000000000000000e+01,5.770059854273897060e-02
5.103999999999999915e+01,4.573521063616777654e-02
5.107999999999999829e+01,5.558832509181909493e-02
5.111999999999999744e+01,4.263982751685134465e-02
5.115999999999999659e+01,4.047738342973260239e-02
5.120000000000000284e+01,4.199119294053764440e-02
5.124000000000000199e+01,4.938774342150389213e-02
5.128000000000000114e+01,3.766015682118403762e-02
5.132000000000000028e+01,3.917027138670883118e-02
5.135999999999999943e+01,5.122126540496698549e-02
5.139999999999999858e+01,4.145129719648844163e-02
5.143999999999999773e+01,3.069942865783487421e-02
5.147999999999999687e+01,4.642418895078856411e-02
5.152000000000000313e+01,4.008281641422924840e-02
5.156000000000000227e+01,4.820496201783389806e-02
5.160000000000000142e+01,4.799023679856231905e-02
5.164000000000000057e+01,4.139996267438412342e-02
5.167999999999999972e+01,3.873108700836166984e-02
5.171999999999999886e+01,3.140281718496543140e-02
5.175999999999999801e+01,3.535090601540849531e-02
5.179999999999999716e+01,3.218794271346421543e-02
5.184000000000000341e+01,4.079166554155488206e-02
5.188000000000000256e+01,3.836168553663998892e-02
5.192000000000000171e+01,3.985309369286313408e-02
5.196000000000000085e+01,3.104629194654382612e-02
5.200000000000000000e+01,4.479344945334771955e-02
5.203999999999999915e+01,3.475829364056138432e-02
5.207999999999999829e+01,3.796080638639678234e-02
5.211999999999999744e+01,2.914894418513922988e-02
5.215999999999999659e+01,3.332958165589665345e-02
5.220000000000000284e+01,3.726378255205839429e-02
5.224000000000000199e+01,4.095154515745484669e-02
5.228000000000000114e+01,4.537352957298603634e-02
5.232000000000000028e+01,3.631013773497148572e-02
5.235999999999999943e+01,2.896162609182214437e-02
5.239999999999999858e+01,2.087633838469413888e-02
5.243999999999999773e+01,3.755148014123019240e-02
5.247999999999999687e+01,4.098640423380950359e-02
5.252000000000000313e+01,2.897461985785559913e-02
5.256000000000000227e+01,4.368458343119629300e-02
5.260000000000000142e+01,3.167022420736282512e-02
5.264000000000000057e+01,3.534516405845054832e-02
5.267999999999999972e+01,3.313484129275608842e-02
5.271999999999999886e+01,3.509103781907446651e-02
5.275999999999999801e+01,3.508461556455029495e-02
5.279999999999999716e+01,3.703822008129290660e-02
5.284000000000000341e+01,4.610032419274846804e-02
5.288000000000000256e+01,2.966392076517957235e-02
5.292000000000000171e+01,2.695548076520503517e-02
5.296000000000000085e+01,2.767805339742318571e-02
5.300000000000000000e+01,3.232196785419928081e-02
5.303999999999999915e+01,2.960961152306210847e-02
5.307999999999999829e+01,3.277991721828295291e-02
5.311999999999999744e+01,4.551036503770370528e-02
5.315999999999999659e+01,3.666494057319150818e-02
5.320000000000000284e+01,3.737965480053988959e-02
5.324000000000000199e+01,3.245424783899873711e-02
5.328000000000000114e+01,3.218566705163047187e-02
5.332000000000000028e+01,4.515470162162533996e-02
5.335999999999999943e+01,3.924467532378068946e-02
5.339999999999999858e+01,3.333332642051886618e-02
5.343999999999999773e+01,4.139508408891361124e-02
5.347999999999999687e+01,2.322281211293715508e-02
5.352000000000000313e+01,2.319145599882422096e-02
5.356000000000000227e+01,2.659108677435956941e-02
5.360000000000000142e+01,4.371865180260545158e-02
5.364000000000000057e+01,2.725721669377884765e-02
5.367999999999999972e+01,3.433033057602066090e-02
5.371999999999999886e+01,3.919561903508143874e-02
5.375999999999999801e+01,3.057546945848980263e-02
5.379999999999999716e+01,3.887039645923714287e-02
5.384000000000000341e+01,3.367988199199290628e-02
5.388000000000000256e+01,3.780431158745804071e-02
5.392000000000000171e+01,3.824991445328942974e-02
5.396000000000000085e+01,2.937788342516661766e-02
5.400000000000000000e+01,2.099483495761694796e-02
5.403999999999999915e+01,2.413321277650503499e-02
5.407999999999999829e+01,5.007062606196294868e-02
5.411999999999999744e+01,3.236723499134835924e-02
5.415999999999999659e+01,4.432750867445221787e-02
5.420000000000000284e+01,3.201504545627096437e-02
5.424000000000000199e+01,3.710797084609769592e-02
5.428000000000000114e+01,2.748960861872965997e-02
5.432000000000000028e+01,3.797345156397190918e-02
5.435999999999999943e+01,3.815898163649399100e-02
5.439999999999999858e+01,3.736248438228831348e-02
5.443999999999999773e+01,3.386779990531336992e-02
5.447999999999999687e+01,3.772671011436401489e-02
5.452000000000000313e+01,3.300345876588790112e-02
5.456000000000000227e+01,3.980161139364435385e-02
5.460000000000000142e+01,4.095958448274383823e-02
5.464000000000000057e+01,3.181923268593569304e-02
5.467999999999999972e+01,4.792954515582713987e-02
5.471999999999999886e+01,3.952193295996087735e-02
5.475999999999999801e+01,3.111293980891003536e-02
5.479999999999999716e+01,3.692216033401558850e-02
5.484000000000000341e+01,4.125900374599272835e-02
5.488000000000000256e+01,4.093631742319525646e-02
5.492000000000000171e+01,4.330906327747629375e-02
5.496000000000000085e+01,3.244148506528344439e-02
5.500000000000000000e+01,4.020509012521264469e-02
5.503999999999999915e+01,4.649630949116529549e-02
5.507999999999999829e+01,3.783104146226316106e-02
5.511999999999999744e+01,5.220992973378789370e-02
5.515999999999999659e+01,5.506464353786261201e-02
5.520000000000000284e+01,6.355676295703759082e-02
5.524000000000000199e+01,6.297635901909751088e-02
5.528000000000000114e+01,7.489798998340642389e-02
5.532000000000000028e+01,6.745014507902907797e-02
5.535999999999999943e+01,6.613002983360834197e-02
5.539999999999999858e+01,6.578916799135854643e-02
5.543999999999999773e+01,7.402768691840042048e-02
5.547999999999999687e+01,7.589049218825114074e-02
5.552000000000000313e+01,6.990658935913658667e-02
5.556000000000000227e+01,7.201173124226993572e-02
5.560000000000000142e+01,5.131506888378562642e-02
5.564000000000000057e+01,4.777856961310470579e-02
5.567999999999999972e+01,5.968607353418561856e-02
5.571999999999999886e+01,5.124342260781421937e-02
5.575999999999999801e+01,5.260596599271452622e-02
5.579999999999999716e+01,5.739940016176377224e-02
5.584000000000000341e+01,4.748147978300278071e-02
5.588000000000000256e+01,5.374305037795763101e-02
5.592000000000000171e+01,6.024835570307600363e-02
5.596000000000000085e+01,5.277779769467749044e-02
5.600000000000000000e+01,6.786102732243902425e-02
5.603999999999999915e+01,5.278747020269424634e-02
5.607999999999999829e+01,5.806120819836352309e-02
5.611999999999999744e+01,6.652065779455722250e-02
5.615999999999999659e+01,7.056568819281547333e-02
5.620000000000000284e+01,6.602848495442256715e-02
5.624000000000000199e+01,8.159340451249762205e-02
5.628000000000000114e+01,8.931158336438439760e-02
5.632000000000000028e+01,9.580248705913381457e-02
5.635999999999999943e+01,9.567247388669290753e-02
5.639999999999999858e+01,9.897332575585636449e-02
5.643999999999999773e+01,1.245827809290466492e-01
5.647999999999999687e+01,1.389131704554565638e-01
5.652000000000000313e+01,1.461323053414625983e-01
5.656000000000000227e+01,1.508983275019764037e-01
5.660000000000000142e+01,1.546822279464329097e-01
5.664000000000000057e+01,1.550323504159880628e-01
5.667999999999999972e+01,1.612649804566346490e-01
5.671999999999999886e+01,1.390569527547630968e-01
5.675999999999999801e+01,1.440608237129098190e-01
5.679999999999999716e+01,1.385211116577212964e-01
5.684000000000000341e+01,1.334702603150622613e-01
5.688000000000000256e+01,1.264566134260887431e-01
5.692000000000000171e+01,1.174801692746310910e-01
5.696000000000000085e+01,1.058054297817174194e-01
5.700000000000000000e+01,1.058971550329563249e-01
5.703999999999999915e+01,1.189811705835152472e-01
5.707999999999999829e+01,1.075471602143082822e-01
5.711999999999999744e+01,1.103312639834192199e-01
5.715999999999999659e+01,1.199785165466557280e-01
5.720000000000000284e+01,1.342824270994411595e-01
5.724000000000000199e+01,1.272554557732586689e-01
5.728000000000000114e+01,1.440080444371453217e-01
5.732000000000000028e+01,1.494815314146892282e-01
5.735999999999999943e+01,1.551986913402899904e-01
5.739999999999999858e+01,1.383591352509072059e-01
5.743999999999999773e+01,1.514282686436006220e-01
5.747999999999999687e+01,1.225726117018444972e-01
5.752000000000000313e+01,1.341677553433247017e-01
5.756000000000000227e+01,1.212448524710033615e-01
5.760000000000000142e+01,9.238469226807086154e-02
5.764000000000000057e+01,8.387176024993681089e-02
5.767999999999999972e+01,7.927996926451390258e-02
5.771999999999999886e+01,7.223501578467939055e-02
5.775999999999999801e+01,6.886603445094938158e-02
5.779999999999999716e+01,5.593408901671313715e-02
5.784000000000000341e+01,4.937493229318376531e-02
5.788000000000000256e+01,4.820790074712200807e-02
5.792000000000000171e+01,4.875551084834679055e-02
5.796000000000000085e+01,4.856610633801415611e-02
5.800000000000000000e+01,3.832339823779234295e-02
5.803999999999999915e+01,4.376975752959142568e-02
5.807999999999999829e+01,4.063380252476668508e-02
5.811999999999999744e+01,3.896731513211287162e-02
5.815999999999999659e+01,4.391876817507631148e-02
5.820000000000000284e+01,4.004273631863954769e-02
5.824000000000000199e+01,4.278464146548074942e-02
5.828000000000000114e+01,2.983442556109450888e-02
5.832000000000000028e+01,3.527008503248359877e-02
5.835999999999999943e+01,3.947838182208409513e-02
5.839999999999999858e+01,3.069137240888989218e-02
5.843999999999999773e+01,3.563208959188098740e-02
5.847999999999999687e+01,3.591312258483073810e-02
5.852000000000000313e+01,4.599923147334754325e-02
5.856000000000000227e+01,3.009625821821758709e-02
5.860000000000000142e+01,3.306947923421040686e-02
5.864000000000000057e+01,2.329254920465811257e-02
5.867999999999999972e+01,3.484346455656354979e-02
5.871999999999999886e+01,2.555376543975964795e-02
5.875999999999999801e+01,2.018516101908681207e-02
5.879999999999999716e+01,1.726665685277094936e-02
5.884000000000000341e+01,2.832102757521144307e-02
5.888000000000000256e+01,2.000576968986865836e-02
5.892000000000000171e+01,3.179251961762865480e-02
5.896000000000000085e+01,2.666129204794027985e-02
5.900000000000000000e+01,2.814796887430702152e-02
5.903999999999999915e+01,2.007162839890892087e-02
5.907999999999999829e+01,2.523265615244716514e-02
5.911999999999999744e+01,2.548880680296253254e-02
5.915999999999999659e+01,3.751132952447036595e-02
5.920000000000000284e+01,2.771255536616348131e-02
5.924000000000000199e+01,2.943498439224250668e-02
5.928000000000000114e+01,2.331054399941086958e-02
5.932000000000000028e+01,2.331366336474241865e-02
5.935999999999999943e+01,2.331520441538179750e-02
5.939999999999999858e+01,2.919913633757767468e-02
5.943999999999999773e+01,2.061672471096387405e-02
5.947999999999999687e+01,1.276822598395127920e-02
5.952000000000000313e+01,1.889257297081140680e-02
5.956000000000000227e+01,1.104090216888786030e-02
5.960000000000000142e+01,2.378154091371825762e-02
5.964000000000000057e+01,2.769463297704172211e-02
5.967999999999999972e+01,2.645765845669993330e-02
5.971999999999999886e+01,3.183855744135987570e-02
5.975999999999999801e+01,2.079177551371370197e-02
5.979999999999999716e+01,1.219505093618375446e-02
5.984000000000000341e+01,2.075830924864595362e-02
5.988000000000000256e+01,1.828752149417658263e-02
5.992000000000000171e+01,2.218943320959334761e-02
5.996000000000000085e+01,2.265742450802944383e-02
