2.003999999999999915e+01,2.434845051491333831e-02
2.007999999999999829e+01,2.336725920897567144e-02
2.012000000000000099e+01,4.389572362522376620e-02
2.016000000000000014e+01,2.467019475206977397e-02
2.019999999999999929e+01,2.753046570037889426e-02
2.023999999999999844e+01,3.250343356827886665e-02
2.028000000000000114e+01,2.749000657249412935e-02
2.032000000000000028e+01,3.054279404242447524e-02
2.035999999999999943e+01,2.629787031635173050e-02
2.039999999999999858e+01,2.723842222515642994e-02
2.044000000000000128e+01,5.122501004656487139e-02
2.048000000000000043e+01,5.619888993629962304e-02
2.051999999999999957e+01,4.350440372820174595e-02
2.055999999999999872e+01,3.177030790668999849e-02
2.060000000000000142e+01,4.116175136956826824e-02
2.064000000000000057e+01,2.904384311753966177e-02
2.067999999999999972e+01,4.323679548933302697e-02
2.071999999999999886e+01,1.825188033655375519e-02
2.076000000000000156e+01,2.514724525037445590e-02
2.080000000000000071e+01,2.954610845344140743e-02
2.083999999999999986e+01,3.183256652122980895e-02
2.087999999999999901e+01,2.336441060058011901e-02
2.092000000000000171e+01,2.891596682944988853e-02
2.096000000000000085e+01,3.869273204464115240e-02
2.100000000000000000e+01,3.272160334428147327e-02
2.103999999999999915e+01,5.824664591208050107e-02
2.107999999999999829e+01,3.383906031077708876e-02
2.112000000000000099e+01,2.517962068469731599e-02
2.116000000000000014e+01,2.650685395577800571e-02
2.119999999999999929e+01,2.456937403070482903e-02
2.123999999999999844e+01,3.934028075560879606e-02
2.128000000000000114e+01,2.511189830442328921e-02
2.132000000000000028e+01,2.298272220731915200e-02
2.135999999999999943e+01,4.908487127696513352e-02
2.139999999999999858e+01,2.467823279952341409e-02
2.144000000000000128e+01,2.850291643309038961e-02
2.148000000000000043e+01,2.906287617540845303e-02
2.151999999999999957e+01,2.943089532537630088e-02
2.155999999999999872e+01,3.844122873208520585e-02
2.160000000000000142e+01,4.072995073381743131e-02
2.164000000000000057e+01,4.608966276642212541e-03
2.167999999999999972e+01,2.975173165102254491e-02
2.171999999999999886e+01,3.511354552304393750e-02
2.176000000000000156e+01,2.818431938008575041e-02
2.180000000000000071e+01,4.468517530547228694e-02
2.183999999999999986e+01,4.198122229990664672e-02
2.187999999999999901e+01,3.159540193590358592e-02
2.192000000000000171e+01,1.371976173726542104e-02
2.196000000000000085e+01,4.443262326466365653e-02
2.200000000000000000e+01,2.521282148193236886e-02
2.203999999999999915e+01,3.556866225386015601e-02
2.207999999999999829e+01,3.632213751126578405e-02
2.212000000000000099e+01,3.323471727647134971e-02
2.216000000000000014e+01,2.534615476324048391e-02
2.219999999999999929e+01,3.743077610953118167e-02
2.223999999999999844e+01,2.685369031604670220e-02
2.228000000000000114e+01,3.240880429288046233e-02
2.232000000000000028e+01,1.952728721100556453e-02
2.235999999999999943e+01,1.912903486191847371e-02
2.239999999999999858e+01,2.237978934078682300e-02
2.244000000000000128e+01,3.388872635989351179e-02
2.248000000000000043e+01,1.601423026344246311e-02
2.251999999999999957e+01,4.019854674595243343e-02
2.255999999999999872e+01,2.693336688689313557e-02
2.260000000000000142e+01,2.480709923168570100e-02
2.264000000000000057e+01,4.860751923128757424e-02
2.267999999999999972e+01,1.479328788003350485e-02
2.271999999999999886e+01,8.634182592904769346e-03
2.276000000000000156e+01,2.686536796358834564e-02
2.280000000000000071e+01,3.530211126640331321e-02
2.283999999999999986e+01,3.663309769690206719e-02
2.287999999999999901e+01,2.144792219523259172e-02
2.292000000000000171e+01,1.970623529452617331e-02
2.296000000000000085e+01,3.160008451858512674e-02
2.300000000000000000e+01,1.507072602313183803e-02
2.303999999999999915e+01,2.734877567887683547e-02
2.307999999999999829e+01,3.271310834675404677e-02
2.312000000000000099e+01,2.252151517360409180e-02
2.316000000000000014e+01,3.095872582936611342e-02
2.319999999999999929e+01,2.787303767349415956e-02
2.323999999999999844e+01,2.843632426029165175e-02
2.328000000000000114e+01,1.786080708305996453e-02
2.332000000000000028e+01,1.861622365967990911e-02
2.335999999999999943e+01,3.607994590912726868e-02
2.339999999999999858e+01,2.972962240050906757e-02
2.344000000000000128e+01,2.626006978851424742e-02
2.348000000000000043e+01,3.681013154231134454e-02
2.351999999999999957e+01,1.221524890571832993e-02
2.355999999999999872e+01,2.410971662492737352e-02
2.360000000000000142e+01,3.139503611402637978e-02
2.364000000000000057e+01,3.176661722506717023e-02
2.367999999999999972e+01,3.578715627219932610e-02
2.371999999999999886e+01,2.655633518032003704e-02
2.376000000000000156e+01,2.174266517548287259e-02
2.380000000000000071e+01,3.152474446849085760e-02
2.383999999999999986e+01,3.592947015747190165e-02
2.387999999999999901e+01,2.861922200934318913e-02
2.392000000000000171e+01,2.841480556019688672e-02
2.396000000000000085e+01,1.976024609664191883e-02
2.400000000000000000e+01,2.627757544659769032e-02
2.403999999999999915e+01,2.300041536469154407e-02
2.407999999999999829e+01,3.374284673051620304e-02
2.412000000000000099e+01,3.661127612546837690e-02
2.416000000000000014e+01,2.987726055661959340e-02
2.419999999999999929e+01,2.141480961469596767e-02
2.423999999999999844e+01,2.697194400901994568e-02
2.428000000000000114e+01,3.080063997452739052e-02
2.432000000000000028e+01,2.905991494988590523e-02
2.435999999999999943e+01,2.674304275072486928e-02
2.439999999999999858e+01,3.402862158784747404e-02
2.444000000000000128e+01,3.247994097276635933e-02
2.448000000000000043e+01,3.746092351145775129e-02
2.451999999999999957e+01,2.342904380353021815e-02
2.455999999999999872e+01,7.668714971690928327e-03
2.460000000000000142e+01,2.974204013272573749e-02
2.464000000000000057e+01,1.052480846945084633e-02
2.467999999999999972e+01,2.702868817490452005e-02
2.471999999999999886e+01,2.951297333788578670e-02
2.476000000000000156e+01,2.585167354912049770e-02
2.480000000000000071e+01,1.834937590081506253e-02
2.483999999999999986e+01,3.005196506586942096e-02
2.487999999999999901e+01,3.099978745541103267e-02
2.492000000000000171e+01,1.908030197316486556e-02
2.496000000000000085e+01,1.061767648347300766e-02
2.500000000000000000e+01,2.212812790235035854e-02
2.503999999999999915e+01,7.135784197038467190e-03
2.507999999999999829e+01,3.055322330517104557e-02
2.512000000000000099e+01,5.685136913935560921e-02
2.516000000000000014e+01,2.803140656644818873e-02
2.519999999999999929e+01,2.110500377948705195e-02
2.523999999999999844e+01,2.339692184017776178e-02
2.528000000000000114e+01,2.856954051543751649e-02
2.532000000000000028e+01,1.338492302495170559e-02
2.535999999999999943e+01,2.412688929406411192e-02
2.539999999999999858e+01,3.256422719895990525e-02
2.544000000000000128e+01,2.525350159465203706e-02
2.548000000000000043e+01,1.045282017521249017e-02
2.551999999999999957e+01,3.982337631283192070e-02
2.555999999999999872e+01,3.635349875873038206e-02
2.560000000000000142e+01,3.230742666611623182e-02
2.564000000000000057e+01,2.864540376548423833e-02
2.567999999999999972e+01,1.672522120367458259e-02
2.571999999999999886e+01,2.612243141047224451e-02
2.576000000000000156e+01,1.304984907654215681e-02
2.580000000000000071e+01,1.822187162870859273e-02
2.583999999999999986e+01,1.705621892494519828e-02
2.587999999999999901e+01,2.702935313963265515e-02
2.592000000000000171e+01,3.124095619766789275e-02
2.596000000000000085e+01,1.951242683250671572e-02
2.600000000000000000e+01,9.896374373548838879e-03
2.603999999999999915e+01,2.255794771859781500e-02
2.607999999999999829e+01,2.388856129699228059e-02
2.612000000000000099e+01,2.579525478459296361e-02
2.616000000000000014e+01,2.750983044683665349e-02
2.619999999999999929e+01,3.152892442760309166e-02
2.623999999999999844e+01,2.383295442688568300e-02
2.628000000000000114e+01,2.420297123914209522e-02
2.632000000000000028e+01,1.727504920265424473e-02
2.635999999999999943e+01,1.956540523343728785e-02
2.639999999999999858e+01,2.012724185825424256e-02
2.644000000000000128e+01,2.721866677117735014e-02
2.648000000000000043e+01,2.259501853539214525e-02
2.651999999999999957e+01,4.044102682083794420e-02
2.655999999999999872e+01,3.101598571631377504e-02
2.660000000000000142e+01,8.147425414411312364e-03
2.664000000000000057e+01,3.348308997432183909e-02
2.667999999999999972e+01,8.501814359879093438e-03
2.671999999999999886e+01,1.059936486746798981e-02
2.676000000000000156e+01,3.190172885062091124e-02
2.680000000000000071e+01,2.650918143159852747e-02
2.683999999999999986e+01,1.477892055987771978e-02
2.687999999999999901e+01,2.571035151022442108e-02
2.692000000000000171e+01,3.568143939897763101e-02
2.696000000000000085e+01,3.566587726963140609e-02
2.700000000000000000e+01,2.124653540583413408e-02
2.703999999999999915e+01,3.083322261433274480e-02
2.707999999999999829e+01,8.731712382060602753e-03
2.712000000000000099e+01,2.696039755855575426e-02
2.716000000000000014e+01,3.706380603210917418e-03
2.719999999999999929e+01,1.290854488229516844e-02
2.723999999999999844e+01,2.326289344522414204e-02
2.728000000000000114e+01,2.343853071541463287e-02
2.732000000000000028e+01,2.111741723191942061e-02
2.735999999999999943e+01,2.225307206873373966e-02
2.739999999999999858e+01,2.108402214779391340e-02
2.744000000000000128e+01,3.489468059180762111e-02
2.748000000000000043e+01,2.911621657174773281e-02
2.751999999999999957e+01,3.409237872409166120e-02
2.755999999999999872e+01,1.851917009825503752e-02
2.760000000000000142e+01,2.042230139763899846e-02
2.764000000000000057e+01,2.424579790885246500e-02
2.767999999999999972e+01,2.134745077873554525e-02
2.771999999999999886e+01,1.345569994447553056e-02
2.776000000000000156e+01,1.708676232208723722e-02
2.780000000000000071e+01,8.426553976236764859e-03
2.783999999999999986e+01,2.665307992036373974e-02
2.787999999999999901e+01,2.951554725851765829e-02
2.792000000000000171e+01,8.371747137538751785e-03
2.796000000000000085e+01,2.064434447981014151e-02
2.800000000000000000e+01,2.216205587265024368e-02
2.803999999999999915e+01,2.367962668188150488e-02
2.807999999999999829e+01,2.500500632796017961e-02
2.812000000000000099e+01,3.785318543507384254e-02
2.816000000000000014e+01,1.421189955707931156e-02
2.819999999999999929e+01,3.070871878366872310e-02
2.823999999999999844e+01,2.607999410325558681e-02
2.828000000000000114e+01,2.970922889395205893e-02
2.832000000000000028e+01,1.259701482525068909e-02
2.835999999999999943e+01,2.736479052770740203e-02
2.839999999999999858e+01,1.966267284996696743e-02
2.844000000000000128e+01,3.923136464748909480e-02
2.848000000000000043e+01,3.556196380238010879e-02
2.851999999999999957e+01,2.555478533400139599e-02
2.855999999999999872e+01,2.822268383011809420e-02
2.860000000000000142e+01,2.416870354387723463e-02
2.864000000000000057e+01,3.605463104483278697e-02
2.867999999999999972e+01,2.239786964372652428e-02
2.871999999999999886e+01,3.543575986776831277e-02
2.876000000000000156e+01,2.946062589089181241e-02
2.880000000000000071e+01,4.595506134661381248e-02
2.883999999999999986e+01,3.076123213525215269e-02
2.887999999999999901e+01,2.209689801188103458e-02
2.892000000000000171e+01,2.879631382559181413e-02
2.896000000000000085e+01,2.838973900276225634e-02
2.900000000000000000e+01,2.702274166906032393e-02
2.903999999999999915e+01,4.562866692898236154e-02
2.907999999999999829e+01,3.446680887132706761e-02
2.912000000000000099e+01,4.058918362813099950e-02
2.916000000000000014e+01,5.036030700273370214e-02
2.919999999999999929e+01,3.804560454307049505e-02
2.923999999999999844e+01,4.627996419269677503e-02
2.928000000000000114e+01,5.182544917129770778e-02
2.932000000000000028e+01,6.946983492983062336e-02
2.935999999999999943e+01,6.233970201919132592e-02
2.939999999999999858e+01,7.287788933126210233e-02
2.944000000000000128e+01,8.226358827420944542e-02
2.948000000000000043e+01,8.723196344171978145e-02
2.951999999999999957e+01,1.321463442424065382e-01
2.955999999999999872e+01,1.887755185524545021e-01
2.960000000000000142e+01,2.352258929532606846e-01
2.964000000000000057e+01,3.429397131393440157e-01
2.967999999999999972e+01,4.625603713028493269e-01
2.971999999999999886e+01,6.146371144449269686e-01
2.976000000000000156e+01,8.341228684422080653e-01
2.980000000000000071e+01,9.892719823190823103e-01
2.983999999999999986e+01,1.000000000000000000e+00
2.987999999999999901e+01,9.037564850333432709e-01
2.992000000000000171e+01,7.214747825236080825e-01
2.996000000000000085e+01,5.518681035028919490e-01
3.000000000000000000e+01,3.978171822184208839e-01
3.003999999999999915e+01,2.856327372215372584e-01
3.007999999999999829e+01,2.183875518111398073e-01
3.012000000000000099e+01,1.741880325686254727e-01
3.016000000000000014e+01,1.365179595222378583e-01
3.019999999999999929e+01,1.407143566519547528e-01
3.023999999999999844e+01,1.120701413290731141e-01
3.028000000000000114e+01,1.099284689927074038e-01
3.032000000000000028e+01,9.876026355546489721e-02
3.035999999999999943e+01,8.624748555639867587e-02
3.039999999999999858e+01,1.008133931152552648e-01
3.044000000000000128e+01,1.025117819561610077e-01
3.048000000000000043e+01,1.370503248494408799e-01
3.051999999999999957e+01,1.456620104552583395e-01
3.055999999999999872e+01,2.285964422190959466e-01
3.060000000000000142e+01,3.956481202484103954e-01
3.064000000000000057e+01,4.929857526251856248e-01
3.067999999999999972e+01,3.779168924284448394e-01
3.071999999999999886e+01,3.556074812388576589e-01
3.076000000000000156e+01,2.270946999952319079e-01
3.080000000000000071e+01,1.544679467817851592e-01
3.083999999999999986e+01,1.290850127453574137e-01
3.087999999999999901e+01,1.056223201632287140e-01
3.092000000000000171e+01,9.944379164137552574e-02
3.096000000000000085e+01,8.347050936602126714e-02
3.100000000000000000e+01,8.209270137177784865e-02
3.103999999999999915e+01,7.092013656829189439e-02
3.107999999999999829e+01,7.050206195671339382e-02
3.112000000000000099e+01,5.817668791174687715e-02
3.116000000000000014e+01,6.544005737990851723e-02
3.119999999999999929e+01,7.423955797605694129e-02
3.123999999999999844e+01,7.842961851878263446e-02
3.128000000000000114e+01,8.626834670215768885e-02
3.132000000000000028e+01,7.586214910757907437e-02
3.135999999999999943e+01,9.906426815891046511e-02
3.139999999999999858e+01,1.128557147535087651e-01
3.144000000000000128e+01,1.053294461597716059e-01
3.148000000000000043e+01,1.223851841996970724e-01
3.151999999999999957e+01,1.233085283907190133e-01
3.155999999999999872e+01,1.426683065061230826e-01
3.160000000000000142e+01,1.906431167567123330e-01
3.164000000000000057e+01,1.944463670305146274e-01
3.167999999999999972e+01,2.372352951741074356e-01
3.171999999999999886e+01,2.612031351060200013e-01
3.176000000000000156e+01,2.897798696024982412e-01
3.180000000000000071e+01,3.271905762724796607e-01
3.183999999999999986e+01,3.440517486821105253e-01
3.187999999999999901e+01,3.718594297779069802e-01
3.192000000000000171e+01,3.866074865728619248e-01
3.196000000000000085e+01,4.478311235577628890e-01
3.200000000000000000e+01,4.917700540492728201e-01
3.203999999999999915e+01,5.007557637655967175e-01
3.207999999999999829e+01,4.208224676587255519e-01
3.211999999999999744e+01,3.307102753867554590e-01
3.215999999999999659e+01,2.553855621393176234e-01
3.220000000000000284e+01,2.006097979387338470e-01
3.224000000000000199e+01,1.538997928983826535e-01
3.228000000000000114e+01,1.436788051380105680e-01
3.232000000000000028e+01,1.121400685761467508e-01
3.235999999999999943e+01,1.090242860682506809e-01
3.239999999999999858e+01,9.765008721689151516e-02
3.243999999999999773e+01,6.169330110198577299e-02
3.247999999999999687e+01,7.547690919314868629e-02
3.252000000000000313e+01,7.984980204719767383e-02
3.256000000000000227e+01,7.001075184443461552e-02
3.260000000000000142e+01,5.383376817558562649e-02
3.264000000000000057e+01,4.937146037005048921e-02
3.267999999999999972e+01,5.335899302151572016e-02
3.271999999999999886e+01,6.195538356864892238e-02
3.275999999999999801e+01,6.536612884825170056e-02
3.279999999999999716e+01,5.610131431720274259e-02
3.284000000000000341e+01,4.145880241120885462e-02
3.288000000000000256e+01,5.389488133515139834e-02
3.292000000000000171e+01,4.808597336631045827e-02
3.296000000000000085e+01,5.860090627797139712e-02
3.300000000000000000e+01,6.143354708312725315e-02
3.303999999999999915e+01,6.368970916581172259e-02
3.307999999999999829e+01,6.575348910150005666e-02
3.311999999999999744e+01,7.396250406753360207e-02
3.315999999999999659e+01,9.715100891300366970e-02
3.320000000000000284e+01,1.337826096966549527e-01
3.324000000000000199e+01,2.022940138512333008e-01
3.328000000000000114e+01,2.857849033016358620e-01
3.332000000000000028e+01,3.105084406775254213e-01
3.335999999999999943e+01,2.852988808279933175e-01
3.339999999999999858e+01,2.479898854047675738e-01
3.343999999999999773e+01,1.665092612505713054e-01
3.347999999999999687e+01,1.098026163881732908e-01
3.352000000000000313e+01,9.688280540533875107e-02
3.356000000000000227e+01,7.551248471911627125e-02
3.360000000000000142e+01,5.894303736707838526e-02
3.364000000000000057e+01,6.637936698866329921e-02
3.367999999999999972e+01,6.440493706488270576e-02
3.371999999999999886e+01,6.761547399502064459e-02
3.375999999999999801e+01,6.928925944264818781e-02
3.379999999999999716e+01,6.193637886464408576e-02
3.384000000000000341e+01,7.398009038075491206e-02
3.388000000000000256e+01,7.027541600693443247e-02
3.392000000000000171e+01,8.827191929156461003e-02
3.396000000000000085e+01,7.265947182492450696e-02
3.400000000000000000e+01,8.739040628628254315e-02
3.403999999999999915e+01,1.090347368436509895e-01
3.407999999999999829e+01,9.054044430925187181e-02
3.411999999999999744e+01,1.087271478244506429e-01
3.415999999999999659e+01,9.253669674233309939e-02
3.420000000000000284e+01,1.237819855477650111e-01
3.424000000000000199e+01,1.515700140195066770e-01
3.428000000000000114e+01,1.440206380519543916e-01
3.432000000000000028e+01,1.725761033396269462e-01
3.435999999999999943e+01,1.581121990653404086e-01
3.439999999999999858e+01,1.732234652336520908e-01
3.443999999999999773e+01,1.489642907660519988e-01
3.447999999999999687e+01,1.596576571321552673e-01
3.452000000000000313e+01,1.597879375575686767e-01
3.456000000000000227e+01,1.439777570675749574e-01
3.460000000000000142e+01,1.429549624019978982e-01
3.464000000000000057e+01,1.405874316924271006e-01
3.467999999999999972e+01,1.126769829001825068e-01
3.471999999999999886e+01,1.274010278413403308e-01
3.475999999999999801e+01,1.069796990604282710e-01
3.479999999999999716e+01,9.366378639765550462e-02
3.484000000000000341e+01,1.058899972857679089e-01
3.488000000000000256e+01,9.007664478010257714e-02
3.492000000000000171e+01,9.116320544429194761e-02
3.496000000000000085e+01,7.381265224261650271e-02
3.500000000000000000e+01,7.969962786026621449e-02
3.503999999999999915e+01,8.597029362027246158e-02
3.507999999999999829e+01,7.687662575757130135e-02
3.511999999999999744e+01,6.029263386288848808e-02
3.515999999999999659e+01,7.193944001954817591e-02
3.520000000000000284e+01,5.765921012786818373e-02
3.524000000000000199e+01,5.701404730463421194e-02
3.528000000000000114e+01,6.212993890337899922e-02
3.532000000000000028e+01,6.724541184603897992e-02
3.535999999999999943e+01,7.696964184489757388e-02
3.539999999999999858e+01,8.093197858173720172e-02
3.543999999999999773e+01,7.068226225507111271e-02
3.547999999999999687e+01,7.886883012145394500e-02
3.552000000000000313e+01,7.918096057380150099e-02
3.556000000000000227e+01,8.275749708128235516e-02
3.560000000000000142e+01,9.382351725283373522e-02
3.564000000000000057e+01,9.586280111669909232e-02
3.567999999999999972e+01,8.657075852493065216e-02
3.571999999999999886e+01,9.321835328723643288e-02
3.575999999999999801e+01,1.094679651705337403e-01
3.579999999999999716e+01,1.111214121361424334e-01
3.584000000000000341e+01,1.279462956655207373e-01
3.588000000000000256e+01,1.443866410452776528e-01
3.592000000000000171e+01,1.608265448508885975e-01
3.596000000000000085e+01,1.613259342656163109e-01
3.600000000000000000e+01,1.917845311114585727e-01
3.603999999999999915e+01,2.151368668876383616e-01
3.607999999999999829e+01,2.321511362729771211e-01
3.611999999999999744e+01,2.545423298916626997e-01
3.615999999999999659e+01,2.700193069087465925e-01
3.620000000000000284e+01,3.240976910428803870e-01
3.624000000000000199e+01,3.134550909660707707e-01
3.628000000000000114e+01,3.172157144397603212e-01
3.632000000000000028e+01,3.006186815832487813e-01
3.635999999999999943e+01,3.095637142185340696e-01
3.639999999999999858e+01,2.983431365195498008e-01
3.643999999999999773e+01,2.794401353171763747e-01
3.647999999999999687e+01,2.440204527065807094e-01
3.652000000000000313e+01,2.372156143030683395e-01
3.656000000000000227e+01,1.992983635084372984e-01
3.660000000000000142e+01,1.665659695610310631e-01
3.664000000000000057e+01,1.641768567021536229e-01
3.667999999999999972e+01,1.533371149659701616e-01
3.671999999999999886e+01,1.499868141134762523e-01
3.675999999999999801e+01,1.422189114130695264e-01
3.679999999999999716e+01,1.415563484372648062e-01
3.684000000000000341e+01,1.324431504726708841e-01
3.688000000000000256e+01,1.196805422832444149e-01
3.692000000000000171e+01,1.397578421590016384e-01
3.696000000000000085e+01,1.365967254835296352e-01
3.700000000000000000e+01,1.274816053795356230e-01
3.703999999999999915e+01,1.193262461793801466e-01
3.707999999999999829e+01,9.542237885963368582e-02
3.711999999999999744e+01,1.018617742939670612e-01
3.715999999999999659e+01,8.659913795110207868e-02
3.720000000000000284e+01,7.056781493553487827e-02
3.724000000000000199e+01,5.395985277106777472e-02
3.728000000000000114e+01,6.385416621573573870e-02
3.732000000000000028e+01,5.435103039179950413e-02
3.735999999999999943e+01,4.542354514538958499e-02
3.739999999999999858e+01,5.205153497913641431e-02
3.743999999999999773e+01,2.334199967180031199e-02
3.747999999999999687e+01,4.110783370824686728e-02
3.752000000000000313e+01,3.755572032000456528e-02
3.756000000000000227e+01,3.438720081826189545e-02
3.760000000000000142e+01,2.276801729818581088e-02
3.764000000000000057e+01,2.958503546613835272e-02
3.767999999999999972e+01,3.083212233511242392e-02
3.771999999999999886e+01,2.612517827389108926e-02
3.775999999999999801e+01,1.892108468471930677e-02
3.779999999999999716e+01,2.477581322524645760e-02
3.784000000000000341e+01,2.602084961367766638e-02
3.788000000000000256e+01,1.919930939202655132e-02
3.792000000000000171e+01,2.255585094136584867e-02
3.796000000000000085e+01,2.533572584013181125e-02
3.800000000000000000e+01,1.198295937493333053e-02
3.803999999999999915e+01,1.130490776886331449e-02
3.807999999999999829e+01,2.426181475241634758e-02
3.811999999999999744e+01,2.300656630512365811e-02
3.815999999999999659e+01,2.194283977459625043e-02
3.820000000000000284e+01,3.182538052665639938e-02
3.824000000000000199e+01,2.365478023079682288e-02
3.828000000000000114e+01,2.412585554170624397e-02
3.832000000000000028e+01,1.345755260918559716e-02
3.835999999999999943e+01,1.411960895111578386e-02
3.839999999999999858e+01,2.188694390281801377e-02
3.843999999999999773e+01,1.966719033751648804e-02
3.847999999999999687e+01,2.762549715301493986e-02
3.852000000000000313e+01,1.349762214036352541e-02
3.856000000000000227e+01,9.739853504443682711e-03
3.860000000000000142e+01,1.308735583894221968e-02
3.864000000000000057e+01,8.368252533814122748e-03
3.867999999999999972e+01,2.573424317386395488e-02
3.871999999999999886e+01,1.717306331294832233e-02
3.875999999999999801e+01,1.456485400092945304e-02
3.879999999999999716e+01,2.136649664005226684e-02
3.884000000000000341e+01,1.760488832844458659e-02
3.888000000000000256e+01,1.422682348360183521e-02
3.892000000000000171e+01,1.065615342263404909e-02
3.896000000000000085e+01,7.469023772689680450e-03
3.900000000000000000e+01,1.868501377803355804e-02
3.903999999999999915e+01,1.477183387695924378e-03
3.907999999999999829e+01,1.787737476421403376e-02
3.911999999999999744e+01,1.123111613615560868e-02
3.915999999999999659e+01,2.167665777532567020e-02
3.920000000000000284e+01,2.271122902296717275e-02
3.924000000000000199e+01,1.990425084972884118e-02
3.928000000000000114e+01,1.460006508945165503e-02
3.932000000000000028e+01,2.657972253659311723e-02
3.935999999999999943e+01,2.818815822235747753e-02
3.939999999999999858e+01,1.078316329358497069e-02
3.943999999999999773e+01,1.968831241725411615e-02
3.947999999999999687e+01,2.840083493460770353e-02
3.952000000000000313e+01,1.387484311700420275e-02
3.956000000000000227e+01,2.104981352807594810e-02
3.960000000000000142e+01,1.900584732058463455e-02
3.964000000000000057e+01,1.926588606704497664e-02
3.967999999999999972e+01,1.683665289608590396e-02
3.971999999999999886e+01,2.115693696182092097e-03
3.975999999999999801e+01,7.367247620541990567e-03
3.979999999999999716e+01,2.279681150596724742e-02
3.984000000000000341e+01,1.978907512529667900e-02
3.988000000000000256e+01,1.562845160123767577e-02
3.992000000000000171e+01,2.683115784980513729e-02
3.996000000000000085e+01,1.735997443067190766e-03
4.000000000000000000e+01,1.965922719413931360e-02
4.003999999999999915e+01,6.469911629337851862e-03
4.007999999999999829e+01,8.451870674006925141e-03
4.011999999999999744e+01,1.273781633817864731e-02
4.015999999999999659e+01,9.917343562000932242e-03
4.020000000000000284e+01,9.208805297911282911e-03
4.024000000000000199e+01,1.829416208496256052e-02
4.028000000000000114e+01,1.547186955622488827e-02
4.032000000000000028e+01,1.937068419611726391e-02
4.035999999999999943e+01,6.176522069305666503e-03
4.039999999999999858e+01,2.140500689444185464e-02
4.043999999999999773e+01,2.242124767222893056e-02
4.047999999999999687e+01,1.594695968335441139e-02
4.052000000000000313e+01,1.139254493192891522e-02
4.056000000000000227e+01,1.740020921537077658e-02
4.060000000000000142e+01,1.457299678682711513e-02
4.064000000000000057e+01,6.559838100215873054e-03
4.067999999999999972e+01,1.621456877676413083e-02
4.071999999999999886e+01,2.740506694806148225e-02
4.075999999999999801e+01,1.574110152375477953e-02
4.079999999999999716e+01,2.136092277564907715e-02
4.084000000000000341e+01,1.488102426989079165e-02
4.088000000000000256e+01,1.416196628420669096e-02
4.092000000000000171e+01,1.228998143049466960e-02
4.096000000000000085e+01,1.391057062287367118e-03
4.100000000000000000e+01,3.742881645792442511e-03
4.103999999999999915e+01,1.147144253454249023e-02
4.107999999999999829e+01,1.094125553187730304e-02
4.111999999999999744e+01,2.462205815567777845e-02
4.115999999999999659e+01,8.342566993262296240e-03
4.120000000000000284e+01,1.337987731347524932e-02
4.124000000000000199e+01,2.360186724790640234e-02
4.128000000000000114e+01,1.154552087943294496e-02
4.132000000000000028e+01,1.273991123970597342e-02
4.135999999999999943e+01,4.523248703430008365e-03
4.139999999999999858e+01,1.359034992529385179e-02
4.143999999999999773e+01,1.324639519486726924e-02
4.147999999999999687e+01,1.059719789618383291e-02
4.152000000000000313e+01,2.331126925529698399e-02
4.156000000000000227e+01,2.507788766512280068e-02
4.160000000000000142e+01,7.446893324174364871e-03
4.164000000000000057e+01,2.668865684479659883e-02
4.167999999999999972e+01,6.559703184901739814e-03
4.171999999999999886e+01,2.944907398437480311e-02
4.175999999999999801e+01,1.661665652937804188e-02
4.179999999999999716e+01,5.704063419966482265e-03
4.184000000000000341e+01,7.850138125308537412e-03
4.188000000000000256e+01,1.326037748220589181e-02
4.192000000000000171e+01,1.502101410255644691e-02
4.196000000000000085e+01,2.311859714549028069e-02
4.200000000000000000e+01,1.469928793403883771e-02
4.203999999999999915e+01,1.857044269129494093e-02
4.207999999999999829e+01,5.540604035078076049e-03
4.211999999999999744e+01,0.000000000000000000e+00
4.215999999999999659e+01,7.133953453363379993e-03
4.220000000000000284e+01,2.751861002231679315e-02
4.224000000000000199e+01,2.466464836110228084e-02
4.228000000000000114e+01,6.446078060445821142e-03
4.232000000000000028e+01,2.452409249253794180e-02
4.235999999999999943e+01,2.742954428111971099e-02
4.239999999999999858e+01,1.823521672508985822e-02
4.243999999999999773e+01,2.498026984084876501e-02
4.247999999999999687e+01,2.231422727967775910e-02
4.252000000000000313e+01,2.022363820070683868e-02
4.256000000000000227e+01,1.064244090579543993e-02
4.260000000000000142e+01,1.315963713772799921e-02
4.264000000000000057e+01,1.548408606155604779e-02
4.267999999999999972e+01,3.029102355983276373e-02
4.271999999999999886e+01,1.705809820166534832e-02
4.275999999999999801e+01,2.302937517076331791e-02
4.279999999999999716e+01,1.075528786300319548e-02
4.284000000000000341e+01,1.691720362007462231e-02
4.288000000000000256e+01,8.290634974662111287e-03
4.292000000000000171e+01,8.689662806358177186e-03
4.296000000000000085e+01,3.482255308285100298e-02
4.300000000000000000e+01,1.255837033045679833e-02
4.303999999999999915e+01,1.929288084556035621e-02
4.307999999999999829e+01,1.834471423073064447e-02
4.311999999999999744e+01,2.315730257521324970e-02
4.315999999999999659e+01,1.913491642398248288e-02
4.320000000000000284e+01,1.434361441943748060e-02
4.324000000000000199e+01,2.933264356272815079e-02
4.328000000000000114e+01,9.752120702499131322e-03
4.332000000000000028e+01,2.838863489498091863e-02
4.335999999999999943e+01,5.925926271316550586e-03
4.339999999999999858e+01,2.417688931637167193e-02
4.343999999999999773e+01,9.778784763155065618e-03
4.347999999999999687e+01,1.362460977716486131e-02
4.352000000000000313e+01,1.170823137139408859e-02
4.356000000000000227e+01,1.478439491166506220e-02
4.360000000000000142e+01,2.227695171508773178e-02
4.364000000000000057e+01,2.381525146344444857e-02
4.367999999999999972e+01,2.861764710917288554e-02
4.371999999999999886e+01,3.322725419428661925e-02
4.375999999999999801e+01,3.668382593254936735e-02
4.379999999999999716e+01,4.551702855297562467e-02
4.384000000000000341e+01,6.721677354294505746e-02
4.388000000000000256e+01,8.488274282735498721e-02
4.392000000000000171e+01,7.700544109094854817e-02
4.396000000000000085e+01,6.567050774826038717e-02
4.400000000000000000e+01,7.642046514394079670e-02
4.403999999999999915e+01,5.548157728165367675e-02
4.407999999999999829e+01,4.183980012316571712e-02
4.411999999999999744e+01,5.277954679118417036e-02
4.415999999999999659e+01,4.566592628641234775e-02
4.420000000000000284e+01,2.798885009622997452e-02
4.424000000000000199e+01,3.105231211548001302e-02
4.428000000000000114e+01,2.470460970361660832e-02
4.432000000000000028e+01,2.911089175844339821e-02
4.435999999999999943e+01,3.639714563349302073e-02
4.439999999999999858e+01,2.870280799529727547e-02
4.443999999999999773e+01,2.811351825839079888e-02
4.447999999999999687e+01,2.176198843280578721e-02
4.452000000000000313e+01,2.808492595128825667e-02
4.456000000000000227e+01,3.747987670231283514e-02
4.460000000000000142e+01,3.861594510929650115e-02
4.464000000000000057e+01,4.128763127969607705e-02
4.467999999999999972e+01,5.106435618416046290e-02
4.471999999999999886e+01,4.758891881747134150e-02
4.475999999999999801e+01,6.197326402279862423e-02
4.479999999999999716e+01,6.790667019305812735e-02
4.484000000000000341e+01,9.707722932643901570e-02
4.488000000000000256e+01,1.275913480043383008e-01
4.492000000000000171e+01,1.312178141029409495e-01
4.496000000000000085e+01,1.334991499668971293e-01
4.500000000000000000e+01,1.063961925240650142e-01
4.503999999999999915e+01,1.071395576451547177e-01
4.507999999999999829e+01,8.176346028215712713e-02
4.511999999999999744e+01,5.427403036633780126e-02
4.515999999999999659e+01,5.271042791409719097e-02
4.520000000000000284e+01,4.058333157967737581e-02
4.524000000000000199e+01,5.111722577465220574e-02
4.528000000000000114e+01,3.706804225957072846e-02
4.532000000000000028e+01,4.337525759806541703e-02
4.535999999999999943e+01,3.681438432282074097e-02
4.539999999999999858e+01,2.871631495467835693e-02
4.543999999999999773e+01,3.425292304794167603e-02
4.547999999999999687e+01,3.210676233902691468e-02
4.552000000000000313e+01,2.688700854021750311e-02
4.556000000000000227e+01,3.626217287756700047e-02
4.560000000000000142e+01,2.547137547037527441e-02
4.564000000000000057e+01,2.140148202500423077e-02
4.567999999999999972e+01,2.251609860019846560e-02
4.571999999999999886e+01,3.054366513314497530e-02
4.575999999999999801e+01,2.704747113535637196e-02
4.579999999999999716e+01,2.911988067786694043e-02
4.584000000000000341e+01,2.101286999561251603e-02
4.588000000000000256e+01,1.693806738453108168e-02
4.592000000000000171e+01,2.246489381527144377e-02
4.596000000000000085e+01,2.203737457444257877e-02
4.600000000000000000e+01,2.256927399440498277e-02
4.603999999999999915e+01,3.174255261421152219e-02
4.607999999999999829e+01,2.267034167175885004e-02
4.611999999999999744e+01,2.108721256337022995e-02
4.615999999999999659e+01,3.659561634482948189e-02
4.620000000000000284e+01,2.003099425995476940e-02
4.624000000000000199e+01,2.094200011253256888e-02
4.628000000000000114e+01,2.069987436240246920e-02
4.632000000000000028e+01,2.026486074005907911e-02
4.635999999999999943e+01,3.269629323140186422e-02
4.639999999999999858e+01,2.707427298919248479e-02
4.643999999999999773e+01,3.163000908150451901e-02
4.647999999999999687e+01,2.350966283136945306e-02
4.652000000000000313e+01,3.670591485705351070e-02
4.656000000000000227e+01,3.376919855443333285e-02
4.660000000000000142e+01,2.603040644435055187e-02
4.664000000000000057e+01,2.846936302943539610e-02
4.667999999999999972e+01,3.148361419816264606e-02
4.671999999999999886e+01,3.756979609441173790e-02
4.675999999999999801e+01,3.366857167654171284e-02
4.679999999999999716e+01,3.418361829216370190e-02
4.684000000000000341e+01,3.585010053496434645e-02
4.688000000000000256e+01,2.964171144843767355e-02
4.692000000000000171e+01,2.957803027684854577e-02
4.696000000000000085e+01,3.220217256221055702e-02
4.700000000000000000e+01,4.903707987703843918e-02
4.703999999999999915e+01,4.378547992724726723e-02
4.707999999999999829e+01,3.699661971398710003e-02
4.711999999999999744e+01,3.846499934471471482e-02
4.715999999999999659e+01,4.070070427630880644e-02
4.720000000000000284e+01,4.043889910245618280e-02
4.724000000000000199e+01,4.843432918897910139e-02
4.728000000000000114e+01,4.068086154887053107e-02
4.732000000000000028e+01,5.962133507401273097e-02
4.735999999999999943e+01,6.454134928183970221e-02
4.739999999999999858e+01,5.217606876603825272e-02
4.743999999999999773e+01,5.613407604152838293e-02
4.747999999999999687e+01,5.528997389639944693e-02
4.752000000000000313e+01,6.097465485149306669e-02
4.756000000000000227e+01,6.800279298376502024e-02
4.760000000000000142e+01,7.099701331849797570e-02
4.764000000000000057e+01,8.032796311816815804e-02
4.767999999999999972e+01,8.274425628946148470e-02
4.771999999999999886e+01,8.227892138964218449e-02
4.775999999999999801e+01,9.986530352320635573e-02
4.779999999999999716e+01,9.037187401910702633e-02
4.784000000000000341e+01,9.508917745918780973e-02
4.788000000000000256e+01,8.789854128803771538e-02
4.792000000000000171e+01,9.760732172874954371e-02
4.796000000000000085e+01,8.350111829875737912e-02
4.800000000000000000e+01,7.746007204792350331e-02
4.803999999999999915e+01,7.679549472495390827e-02
4.807999999999999829e+01,7.613001135513124129e-02
4.811999999999999744e+01,6.509297162023799932e-02
4.815999999999999659e+01,6.826665260655892520e-02
4.820000000000000284e+01,5.780394029362515701e-02
4.824000000000000199e+01,5.233359116585575843e-02
4.828000000000000114e+01,4.417364162845632131e-02
4.832000000000000028e+01,4.407883704724920720e-02
4.835999999999999943e+01,4.110237994899745145e-02
4.839999999999999858e+01,3.082714061734934119e-02
4.843999999999999773e+01,5.108678070403283034e-02
4.847999999999999687e+01,3.024700240711445526e-02
4.852000000000000313e+01,3.821365900772847463e-02
4.856000000000000227e+01,3.177571235155872420e-02
4.860000000000000142e+01,2.629708504458167645e-02
4.864000000000000057e+01,3.483711107269676227e-02
4.867999999999999972e+01,2.705203874368494049e-02
4.871999999999999886e+01,3.174922428063907398e-02
4.875999999999999801e+01,2.569073090324440131e-02
4.879999999999999716e+01,2.692916794090070842e-02
4.884000000000000341e+01,4.161010351927616618e-02
4.888000000000000256e+01,2.440995991565059892e-02
4.892000000000000171e+01,2.199665515871436841e-02
4.896000000000000085e+01,2.227109746519193023e-02
4.900000000000000000e+01,2.676967772059729231e-02
4.903999999999999915e+01,2.358535319332808605e-02
4.907999999999999829e+01,3.057868416111099441e-02
4.911999999999999744e+01,3.392213737561278197e-02
4.915999999999999659e+01,3.284751510227029020e-02
4.920000000000000284e+01,2.581842339982805615e-02
4.924000000000000199e+01,2.531804909916625032e-02
4.928000000000000114e+01,2.347237955381738239e-02
4.932000000000000028e+01,2.316214901100707019e-02
4.935999999999999943e+01,2.957268033803800433e-02
4.939999999999999858e+01,2.926053838992311029e-02
4.943999999999999773e+01,3.163612517077311198e-02
4.947999999999999687e+01,3.247436001590919136e-02
4.952000000000000313e+01,2.466942648555632556e-02
4.956000000000000227e+01,2.781032632249897524e-02
4.960000000000000142e+01,2.326829998657662171e-02
4.964000000000000057e+01,2.391063241201557207e-02
4.967999999999999972e+01,3.165781258767592921e-02
4.971999999999999886e+01,3.402665062693616127e-02
4.975999999999999801e+01,2.986485069188694191e-02
4.979999999999999716e+01,2.666232426990802415e-02
4.984000000000000341e+01,2.826005086659050605e-02
4.988000000000000256e+01,3.196934223064036573e-02
4.992000000000000171e+01,2.972413666391705150e-02
4.996000000000000085e+01,2.613360987870399360e-02
5.000000000000000000e+01,3.925037120440093286e-02
5.003999999999999915e+01,3.143280498521142108e-02
5.007999999999999829e+01,3.417695416765149929e-02
5.011999999999999744e+01,3.634397222681121781e-02
5.015999999999999659e+01,3.639746522143510327e-02
5.020000000000000284e+01,4.163529558722983692e-02
5.024000000000000199e+01,4.802443171118980086e-02
5.028000000000000114e+01,5.076364577361690972e-02
5.032000000000000028e+01,6.464071322546841025e-02
5.035999999999999943e+01,7.486785556004565967e-02
5.039999999999999858e+01,9.431235771157486791e-02
5.043999999999999773e+01,1.010806262614530604e-01
5.047999999999999687e+01,1.203310854509843097e-01
5.052000000000000313e+01,1.420771830652971801e-01
5.056000000000000227e+01,1.653586723181554308e-01
5.060000000000000142e+01,1.573351638455898760e-01
5.064000000000000057e+01,1.715883415365220266e-01
5.067999999999999972e+01,1.483909487927499715e-01
5.071999999999999886e+01,1.468940920017148544e-01
5.075999999999999801e+01,1.142842804254460692e-01
5.079999999999999716e+01,9.281230390415264042e-02
5.084000000000000341e+01,7.998152323821382248e-02
5.088000000000000256e+01,6.618948431610421901e-02
5.092000000000000171e+01,7.371387560403155903e-02
5.096000000000000085e+01,4.878096110565995763e-02
5.100000000000000000e+01,4.209168893481432527e-02
5.103999999999999915e+01,4.961302747848912731e-02
5.107999999999999829e+01,4.004097978609987701e-02
5.111999999999999744e+01,4.275904923575859357e-02
5.115999999999999659e+01,2.742348413524636069e-02
5.120000000000000284e+01,2.149729734594424055e-02
5.124000000000000199e+01,3.592728328534767340e-02
5.128000000000000114e+01,3.825715069283371766e-02
5.132000000000000028e+01,3.693705631414748169e-02
5.135999999999999943e+01,3.158290051807214477e-02
5.139999999999999858e+01,2.949254574031431875e-02
5.143999999999999773e+01,2.720910752288763917e-02
5.147999999999999687e+01,2.300414287286359563e-02
5.152000000000000313e+01,2.283117086423717620e-02
5.156000000000000227e+01,2.841863143419549875e-02
5.160000000000000142e+01,4.034267020988708402e-02
5.164000000000000057e+01,3.056412411916996710e-02
5.167999999999999972e+01,3.249952662529111136e-02
5.171999999999999886e+01,2.291094094793588026e-02
5.175999999999999801e+01,2.311581029494653300e-02
5.179999999999999716e+01,4.021994805035669640e-02
5.184000000000000341e+01,2.294625588958046358e-02
5.188000000000000256e+01,3.543911554355925336e-02
5.192000000000000171e+01,3.007036066949592135e-02
5.196000000000000085e+01,3.795193611056037197e-02
5.200000000000000000e+01,2.816394301951435572e-02
5.203999999999999915e+01,2.144767744918079158e-02
5.207999999999999829e+01,2.452485468024712817e-02
5.211999999999999744e+01,2.299179430936090784e-02
5.215999999999999659e+01,2.837143790903671678e-02
5.220000000000000284e+01,2.798854654097986464e-02
5.224000000000000199e+01,1.588959807545387709e-02
5.228000000000000114e+01,2.222629209726311589e-02
5.232000000000000028e+01,1.742307312088089283e-02
5.235999999999999943e+01,3.278393504115028473e-02
5.239999999999999858e+01,1.664768143013915791e-02
5.243999999999999773e+01,2.490058479684608209e-02
5.247999999999999687e+01,2.566250103566733790e-02
5.252000000000000313e+01,1.970162482542454907e-02
5.256000000000000227e+01,2.814335032228684752e-02
5.260000000000000142e+01,2.544515212586248576e-02
5.264000000000000057e+01,2.466636422205089815e-02
5.267999999999999972e+01,2.753542654803912276e-02
5.271999999999999886e+01,3.789331860941826113e-02
5.275999999999999801e+01,2.174735673218047838e-02
5.279999999999999716e+01,2.557340989334301942e-02
5.284000000000000341e+01,1.960387355570602369e-02
5.288000000000000256e+01,2.400389661707328856e-02
5.292000000000000171e+01,2.456184772576539693e-02
5.296000000000000085e+01,3.126427604091223250e-02
5.300000000000000000e+01,2.221758814391078252e-02
5.303999999999999915e+01,3.160651370470045352e-02
5.307999999999999829e+01,3.004754628942753886e-02
5.311999999999999744e+01,2.541469548881806345e-02
5.315999999999999659e+01,3.057524623709840031e-02
5.320000000000000284e+01,2.805273330414644398e-02
5.324000000000000199e+01,1.688690990372611334e-02
5.328000000000000114e+01,2.146800407044910722e-02
5.332000000000000028e+01,2.412750152252033861e-02
5.335999999999999943e+01,1.795163487183781131e-02
5.339999999999999858e+01,2.637038689464778901e-02
5.343999999999999773e+01,2.211279072550077079e-02
5.347999999999999687e+01,3.821128172429745506e-02
5.352000000000000313e+01,3.260711604676033021e-02
5.356000000000000227e+01,2.911437457248194915e-02
5.360000000000000142e+01,3.215018396207250384e-02
5.364000000000000057e+01,2.711881476050642670e-02
5.367999999999999972e+01,2.323861992022135947e-02
5.371999999999999886e+01,2.588697136019306802e-02
5.375999999999999801e+01,2.757395453730026105e-02
5.379999999999999716e+01,2.100170396009473986e-02
5.384000000000000341e+01,2.018979887284139824e-02
5.388000000000000256e+01,3.435659222797778078e-02
5.392000000000000171e+01,2.586046836970742890e-02
5.396000000000000085e+01,2.485312688283486393e-02
5.400000000000000000e+01,2.538104563762343460e-02
5.403999999999999915e+01,2.821241931289479241e-02
5.407999999999999829e+01,2.297659759043134756e-02
5.411999999999999744e+01,2.292496350780559577e-02
5.415999999999999659e+01,2.536882881372342149e-02
5.420000000000000284e+01,2.454672043012146379e-02
5.424000000000000199e+01,2.257117639753299793e-02
5.428000000000000114e+01,2.731620630668385452e-02
5.432000000000000028e+01,2.149739397912522887e-02
5.435999999999999943e+01,2.624013357102635002e-02
5.439999999999999858e+01,3.174992191918877410e-02
5.443999999999999773e+01,4.321208189091525764e-02
5.447999999999999687e+01,2.452139024379404106e-02
5.452000000000000313e+01,2.868338371172735046e-02
5.456000000000000227e+01,2.497021249914994565e-02
5.460000000000000142e+01,2.260022955849943713e-02
5.464000000000000057e+01,2.445416913700144620e-02
5.467999999999999972e+01,2.419441100157323013e-02
5.471999999999999886e+01,2.335734603772872744e-02
5.475999999999999801e+01,2.789649331946303379e-02
5.479999999999999716e+01,2.724915347688539394e-02
5.484000000000000341e+01,2.141532498212513069e-02
5.488000000000000256e+01,2.095770414933142284e-02
5.492000000000000171e+01,1.953867074542153109e-02
5.496000000000000085e+01,3.213804927302575665e-02
5.500000000000000000e+01,2.399495985144401225e-02
5.503999999999999915e+01,3.755224137255853967e-02
5.507999999999999829e+01,2.940680663038013065e-02
5.511999999999999744e+01,3.393543434652123575e-02
5.515999999999999659e+01,3.519805170424465668e-02
5.520000000000000284e+01,3.761178536416064089e-02
5.524000000000000199e+01,3.599130940322501498e-02
5.528000000000000114e+01,3.360145617200962359e-02
5.532000000000000028e+01,5.713704232520321058e-02
5.535999999999999943e+01,4.034114350771890456e-02
5.539999999999999858e+01,4.524560188209410944e-02
5.543999999999999773e+01,4.361920532451386834e-02
5.547999999999999687e+01,3.680629566881894743e-02
5.552000000000000313e+01,3.844235405592812127e-02
5.556000000000000227e+01,3.796468111595063810e-02
5.560000000000000142e+01,3.134024523588081756e-02
5.564000000000000057e+01,2.817149747150246228e-02
5.567999999999999972e+01,3.191531922506053720e-02
5.571999999999999886e+01,4.065121845195324851e-02
5.575999999999999801e+01,3.728682802540483204e-02
5.579999999999999716e+01,3.180869710454528598e-02
5.584000000000000341e+01,3.132263907340823716e-02
5.588000000000000256e+01,3.736504481750756862e-02
5.592000000000000171e+01,2.957871333162503946e-02
5.596000000000000085e+01,3.715509894219962139e-02
5.600000000000000000e+01,4.319388357412856649e-02
5.603999999999999915e+01,4.058925078763678945e-02
5.607999999999999829e+01,4.662561370543178568e-02
5.611999999999999744e+01,4.152191847731434571e-02
5.615999999999999659e+01,4.678765736279993925e-02
5.620000000000000284e+01,4.974759142359389680e-02
5.624000000000000199e+01,5.366655301026784092e-02
5.628000000000000114e+01,4.932618611464283098e-02
5.632000000000000028e+01,5.497114911779164143e-02
5.635999999999999943e+01,7.309807816359377430e-02
5.639999999999999858e+01,6.740970095796429418e-02
5.643999999999999773e+01,7.132255096415025808e-02
5.647999999999999687e+01,7.888310605241509454e-02
5.652000000000000313e+01,7.568768581940629736e-02
5.656000000000000227e+01,8.170939011125448459e-02
5.660000000000000142e+01,8.331273473129952034e-02
5.664000000000000057e+01,8.280230677174771348e-02
5.667999999999999972e+01,8.728391961663270471e-02
5.671999999999999886e+01,9.694962078975678799e-02
5.675999999999999801e+01,1.027731033346140493e-01
5.679999999999999716e+01,9.495986408800601020e-02
5.684000000000000341e+01,8.656923703583215002e-02
5.688000000000000256e+01,7.644892634018320143e-02
5.692000000000000171e+01,8.937325813901698945e-02
5.696000000000000085e+01,7.694586988284404794e-02
5.700000000000000000e+01,8.007320805016190923e-02
5.703999999999999915e+01,7.436504155061730847e-02
5.707999999999999829e+01,6.635103661322451496e-02
5.711999999999999744e+01,7.600429308411429941e-02
5.715999999999999659e+01,8.277556090639522079e-02
5.720000000000000284e+01,8.436024993211935219e-02
5.724000000000000199e+01,8.786417354532037594e-02
5.728000000000000114e+01,1.023136356467627961e-01
5.732000000000000028e+01,1.186823292799405460e-01
5.735999999999999943e+01,1.258314079199437108e-01
5.739999999999999858e+01,1.212642323671513644e-01
5.743999999999999773e+01,1.324438154829446490e-01
5.747999999999999687e+01,1.265297679033543232e-01
5.752000000000000313e+01,1.198462574927224578e-01
5.756000000000000227e+01,1.006782905711196274e-01
5.760000000000000142e+01,9.360814422483079711e-02
5.764000000000000057e+01,7.462968546684889404e-02
5.767999999999999972e+01,5.833864069645795791e-02
5.771999999999999886e+01,6.067507967465379792e-02
5.775999999999999801e+01,4.956680924415955009e-02
5.779999999999999716e+01,4.901995933624084950e-02
5.784000000000000341e+01,3.483634791221740939e-02
5.788000000000000256e+01,4.830651955393303748e-02
5.792000000000000171e+01,4.199435697026366460e-02
5.796000000000000085e+01,3.414451854228204436e-02
5.800000000000000000e+01,2.879003282725240906e-02
5.803999999999999915e+01,2.554680019395777144e-02
5.807999999999999829e+01,3.017629066472017618e-02
5.811999999999999744e+01,1.752007694249394648e-02
5.815999999999999659e+01,2.253108490391080021e-02
5.820000000000000284e+01,2.408391733706014698e-02
5.824000000000000199e+01,2.179447461072490239e-02
5.828000000000000114e+01,2.622545303905438746e-02
5.832000000000000028e+01,2.201292696033065391e-02
5.835999999999999943e+01,2.279237751547228200e-02
5.839999999999999858e+01,2.280233162641583794e-02
5.843999999999999773e+01,2.146664061027136333e-02
5.847999999999999687e+01,1.532842000905246596e-02
5.852000000000000313e+01,2.244027915215883462e-02
5.856000000000000227e+01,1.898813410425655504e-02
5.860000000000000142e+01,2.840196764159199153e-02
5.864000000000000057e+01,1.822548850354194228e-02
5.867999999999999972e+01,1.899449437825713113e-02
5.871999999999999886e+01,2.033833494751997178e-02
5.875999999999999801e+01,1.995242006338255811e-02
5.879999999999999716e+01,1.918109155968578464e-02
5.884000000000000341e+01,2.628245713050183716e-02
5.888000000000000256e+01,1.993907051224694249e-02
5.892000000000000171e+01,2.300476732614803801e-02
5.896000000000000085e+01,2.030767096216027148e-02
5.900000000000000000e+01,1.895359480431726279e-02
5.903999999999999915e+01,1.606180154965189399e-02
5.907999999999999829e+01,1.604941785877446805e-02
5.911999999999999744e+01,2.006873651385289795e-02
5.915999999999999659e+01,1.602066573161157331e-02
5.920000000000000284e+01,1.581224518791141467e-02
5.924000000000000199e+01,1.944347335488174830e-02
5.928000000000000114e+01,2.249722051617064969e-02
5.932000000000000028e+01,1.575513066359908107e-02
5.935999999999999943e+01,2.091874510835551454e-02
5.939999999999999858e+01,2.531282491214523547e-02
5.943999999999999773e+01,1.357344441325020537e-02
5.947999999999999687e+01,2.122967664332147883e-02
5.952000000000000313e+01,1.390473982500513121e-02
5.956000000000000227e+01,1.445246957952809642e-02
5.960000000000000142e+01,1.115787222696120080e-02
5.964000000000000057e+01,1.323930071974201150e-02
5.967999999999999972e+01,2.261724404673061059e-02
5.971999999999999886e+01,1.759015784099711779e-02
5.975999999999999801e+01,1.313786660517181695e-02
5.979999999999999716e+01,1.118085932811487514e-02
5.984000000000000341e+01,1.498396836039805197e-02
5.988000000000000256e+01,1.302424907376520391e-02
5.992000000000000171e+01,2.220201648757755969e-02
5.996000000000000085e+01,1.831908856315490886e-02
