2.003999999999999915e+01,4.351468708015001491e-02
2.007999999999999829e+01,3.990720506821790470e-02
2.012000000000000099e+01,4.495353974563898181e-02
2.016000000000000014e+01,4.032841265274273584e-02
2.019999999999999929e+01,3.341283599519640629e-02
2.023999999999999844e+01,3.184233970802505254e-02
2.028000000000000114e+01,5.648737565296100410e-02
2.032000000000000028e+01,5.313566553061141451e-02
2.035999999999999943e+01,5.894679588173239171e-02
2.039999999999999858e+01,4.745092090714356226e-02
2.044000000000000128e+01,3.595524425754085401e-02
2.048000000000000043e+01,6.085579928560112123e-02
2.051999999999999957e+01,5.012406663674919688e-02
2.055999999999999872e+01,5.135485975549076293e-02
2.060000000000000142e+01,5.334939660423048541e-02
2.064000000000000057e+01,4.389082422793322280e-02
2.067999999999999972e+01,5.352126820400219392e-02
2.071999999999999886e+01,2.930103887984279037e-02
2.076000000000000156e+01,1.958850288804032946e-02
2.080000000000000071e+01,4.067279296185152826e-02
2.083999999999999986e+01,4.292294993035937478e-02
2.087999999999999901e+01,2.252120590740023381e-02
2.092000000000000171e+01,5.098704089729639427e-02
2.096000000000000085e+01,4.280249588940623906e-02
2.100000000000000000e+01,6.923253315869178082e-02
2.103999999999999915e+01,5.061310146978560687e-02
2.107999999999999829e+01,3.250287243231545636e-02
2.112000000000000099e+01,4.926173756408008114e-02
2.116000000000000014e+01,4.184158170785175213e-02
2.119999999999999929e+01,2.933123261984444535e-02
2.123999999999999844e+01,5.041738321697280395e-02
2.128000000000000114e+01,4.936064882368555728e-02
2.132000000000000028e+01,5.008569405403210523e-02
2.135999999999999943e+01,1.950521214547838028e-02
2.139999999999999858e+01,4.491878232265043847e-02
2.144000000000000128e+01,4.462621151530313940e-02
2.148000000000000043e+01,3.720729202093100985e-02
2.151999999999999957e+01,4.276892251318720889e-02
2.155999999999999872e+01,4.680359047279927104e-02
2.160000000000000142e+01,5.796489675223167465e-02
2.164000000000000057e+01,2.993061266224398068e-02
2.167999999999999972e+01,4.134671462923068808e-02
2.171999999999999886e+01,1.229463368846480179e-02
2.176000000000000156e+01,3.465526819304776129e-02
2.180000000000000071e+01,3.640009878840451407e-02
2.183999999999999986e+01,3.000049226739599784e-02
2.187999999999999901e+01,3.174558136327871455e-02
2.192000000000000171e+01,1.592907346495188795e-02
2.196000000000000085e+01,4.668943442530449489e-02
2.200000000000000000e+01,1.738373369683605257e-02
2.203999999999999915e+01,4.432657165118368547e-02
2.207999999999999829e+01,3.080120918587704593e-02
2.212000000000000099e+01,5.087230359883571779e-02
2.216000000000000014e+01,4.625529292091045547e-02
2.219999999999999929e+01,2.993057940368162861e-02
2.223999999999999844e+01,2.225957945016225625e-02
2.228000000000000114e+01,1.102544010531754035e-02
2.232000000000000028e+01,3.567840747414140201e-02
2.235999999999999943e+01,4.862366422059435228e-02
2.239999999999999858e+01,3.688080420156254757e-02
2.244000000000000128e+01,3.582778985228374236e-02
2.248000000000000043e+01,3.579294551132101293e-02
2.251999999999999957e+01,3.448560966866947436e-02
2.255999999999999872e+01,3.165126264920280902e-02
2.260000000000000142e+01,3.619802303474498745e-02
2.264000000000000057e+01,1.707472589764037069e-02
2.267999999999999972e+01,2.925719883382727621e-02
2.271999999999999886e+01,2.769580180086362448e-02
2.276000000000000156e+01,3.300646893112214181e-02
2.280000000000000071e+01,3.017265224661102099e-02
2.283999999999999986e+01,1.944886753092302245e-02
2.287999999999999901e+01,2.705043896234501921e-02
2.292000000000000171e+01,3.668822991608695211e-02
2.296000000000000085e+01,1.400234498281558403e-02
2.300000000000000000e+01,4.296938042799266014e-03
2.303999999999999915e+01,2.437017728801438299e-02
2.307999999999999829e+01,3.426277726321389633e-02
2.312000000000000099e+01,3.524732466942955694e-02
2.316000000000000014e+01,1.332534244610854464e-02
2.319999999999999929e+01,1.558260857903735405e-02
2.323999999999999844e+01,1.554927726903514856e-02
2.328000000000000114e+01,3.689549540079150453e-02
2.332000000000000028e+01,4.500684983561437091e-02
2.335999999999999943e+01,3.428394858182219618e-02
2.339999999999999858e+01,4.112282499209195252e-02
2.344000000000000128e+01,1.054764757895162823e-02
2.348000000000000043e+01,2.782185373214943191e-02
2.351999999999999957e+01,3.262473964765847528e-02
2.355999999999999872e+01,3.564604801282156982e-02
2.360000000000000142e+01,2.110567766156729030e-02
2.364000000000000057e+01,1.165570456114623128e-02
2.367999999999999972e+01,4.191053795871720750e-02
2.371999999999999886e+01,5.256754496769232288e-02
2.376000000000000156e+01,2.275626983480579305e-02
2.380000000000000071e+01,4.995700095907321808e-02
2.383999999999999986e+01,2.040031137092153043e-02
2.387999999999999901e+01,2.138578029497657795e-02
2.392000000000000171e+01,3.535168245964914052e-02
2.396000000000000085e+01,3.328299477216142138e-02
2.400000000000000000e+01,3.299595634192857563e-02
2.403999999999999915e+01,2.863665744790967402e-02
2.407999999999999829e+01,2.707707483705117449e-02
2.412000000000000099e+01,3.162593704526280025e-02
2.416000000000000014e+01,2.166730604863815329e-02
2.419999999999999929e+01,3.766949886961024757e-02
2.423999999999999844e+01,4.527262009884643057e-02
2.428000000000000114e+01,2.538783808859870067e-02
2.432000000000000028e+01,3.400905135224472492e-02
2.435999999999999943e+01,1.921464115462911612e-02
2.439999999999999858e+01,3.928916557336710469e-02
2.444000000000000128e+01,4.180197041458409007e-02
2.448000000000000043e+01,2.878919556739109945e-02
2.451999999999999957e+01,2.010322197608147357e-02
2.455999999999999872e+01,5.010394115845442226e-02
2.460000000000000142e+01,3.581857139746542212e-02
2.464000000000000057e+01,2.407837294954112695e-02
2.467999999999999972e+01,3.117247854793848277e-02
2.471999999999999886e+01,2.554068780628206137e-02
2.476000000000000156e+01,1.787274341191433247e-02
2.480000000000000071e+01,3.107523906144559617e-02
2.483999999999999986e+01,4.555030764840865831e-02
2.487999999999999901e+01,3.559165656170219100e-02
2.492000000000000171e+01,1.265258167674803043e-02
2.496000000000000085e+01,1.516525818110088866e-02
2.500000000000000000e+01,2.505892534445199743e-02
2.503999999999999915e+01,1.891795011993782291e-02
2.507999999999999829e+01,2.015796166288833305e-02
2.512000000000000099e+01,3.565093672024954169e-02
2.516000000000000014e+01,1.754754022662256482e-02
2.519999999999999929e+01,2.311425934218331799e-02
2.523999999999999844e+01,2.613576599711113502e-02
2.528000000000000114e+01,4.926413615865660178e-02
2.532000000000000028e+01,3.905064471550636490e-02
2.535999999999999943e+01,4.487172921768392553e-02
2.539999999999999858e+01,2.600455102186331746e-02
2.544000000000000128e+01,3.767945545334247526e-02
2.548000000000000043e+01,1.677604368513760727e-02
2.551999999999999957e+01,2.692374611141837640e-02
2.555999999999999872e+01,3.198104321733397093e-02
2.560000000000000142e+01,4.161960677278809390e-02
2.564000000000000057e+01,3.929578242363006291e-02
2.567999999999999972e+01,2.679119232961140948e-02
2.571999999999999886e+01,3.006664293965950058e-02
2.576000000000000156e+01,1.578030976188043652e-02
2.580000000000000071e+01,2.287340344254881752e-02
2.583999999999999986e+01,2.640318455864279143e-02
2.587999999999999901e+01,5.513015458204641867e-02
2.592000000000000171e+01,1.870051764428321689e-02
2.596000000000000085e+01,2.452075358939926827e-02
2.600000000000000000e+01,3.772193154934235654e-02
2.603999999999999915e+01,2.343512065606048744e-02
2.607999999999999829e+01,3.548843688725092458e-03
2.612000000000000099e+01,2.387628998632328192e-02
2.616000000000000014e+01,2.791452168522484678e-02
2.619999999999999929e+01,3.526140200036330385e-02
2.623999999999999844e+01,2.581002836655202706e-02
2.628000000000000114e+01,1.355887395281004347e-02
2.632000000000000028e+01,9.706716905199251275e-03
2.635999999999999943e+01,2.138005170002605856e-02
2.639999999999999858e+01,3.025359987762152314e-02
2.644000000000000128e+01,1.494787022600009389e-02
2.648000000000000043e+01,4.469168318524635586e-02
2.651999999999999957e+01,3.931195206127290759e-02
2.655999999999999872e+01,3.138694426636058632e-02
2.660000000000000142e+01,4.356873576775999179e-02
2.664000000000000057e+01,3.538900565150486510e-02
2.667999999999999972e+01,5.138835460978349867e-02
2.671999999999999886e+01,4.219034120103837271e-02
2.676000000000000156e+01,2.052084994749026059e-02
2.680000000000000071e+01,3.092048154132756230e-02
2.683999999999999986e+01,2.681248956395011415e-02
2.687999999999999901e+01,3.212153862940709398e-02
2.692000000000000171e+01,3.132204530098725570e-02
2.696000000000000085e+01,1.448781618789338026e-02
2.700000000000000000e+01,4.346665757877721248e-02
2.703999999999999915e+01,3.834000050891152311e-02
2.707999999999999829e+01,5.077494209255795088e-02
2.712000000000000099e+01,3.775798412215239375e-02
2.716000000000000014e+01,2.932221671637839575e-02
2.719999999999999929e+01,3.488479391577949118e-02
2.723999999999999844e+01,1.219577070087083520e-02
2.728000000000000114e+01,3.150203842917578129e-02
2.732000000000000028e+01,3.553710604898452363e-02
2.735999999999999943e+01,3.906299991739535515e-02
2.739999999999999858e+01,2.400895930409962381e-02
2.744000000000000128e+01,1.939000341034155181e-02
2.748000000000000043e+01,2.495161256099446417e-02
2.751999999999999957e+01,3.229469974141980365e-02
2.755999999999999872e+01,3.098403610210125059e-02
2.760000000000000142e+01,4.519880398644793296e-02
2.764000000000000057e+01,2.785322151713979719e-02
2.767999999999999972e+01,3.977702406538925067e-02
2.771999999999999886e+01,3.999285525851072054e-02
2.776000000000000156e+01,2.926426633881630546e-02
2.780000000000000071e+01,4.016952471858650786e-02
2.783999999999999986e+01,1.747828118098993661e-02
2.787999999999999901e+01,3.856392350562229399e-02
2.792000000000000171e+01,2.732564866815268695e-02
2.796000000000000085e+01,8.706192200069554424e-03
2.800000000000000000e+01,4.073559444962813331e-02
2.803999999999999915e+01,4.196818007594247529e-02
2.807999999999999829e+01,4.701835832617157207e-02
2.812000000000000099e+01,3.374308480025071943e-02
2.816000000000000014e+01,4.464681835549044048e-02
2.819999999999999929e+01,4.587869904127763604e-02
2.823999999999999844e+01,4.711039862751600221e-02
2.828000000000000114e+01,2.289014223246380042e-02
2.832000000000000028e+01,3.022989928693779402e-02
2.835999999999999943e+01,2.128033472553842245e-02
2.839999999999999858e+01,3.956397832301567635e-02
2.844000000000000128e+01,2.526916173406209762e-02
2.848000000000000043e+01,3.006298207293956956e-02
2.851999999999999957e+01,2.569396943494945199e-02
2.855999999999999872e+01,2.768770336526909029e-02
2.860000000000000142e+01,4.647940882188168060e-02
2.864000000000000057e+01,3.447426846874738354e-02
2.867999999999999972e+01,3.188608159893950578e-02
2.871999999999999886e+01,3.820581080797177953e-02
2.876000000000000156e+01,1.932807841587107223e-02
2.880000000000000071e+01,1.419409506891204480e-02
2.883999999999999986e+01,3.629329847739423687e-02
2.887999999999999901e+01,4.439381453927183918e-02
2.892000000000000171e+01,5.885705965755786556e-02
2.896000000000000085e+01,4.735928025779762712e-02
2.900000000000000000e+01,4.553295650458869664e-02
2.903999999999999915e+01,3.963412906673807745e-02
2.907999999999999829e+01,4.366127111326481569e-02
2.912000000000000099e+01,4.565204741849404613e-02
2.916000000000000014e+01,5.935041342208532272e-02
2.919999999999999929e+01,3.614348087055992836e-02
2.923999999999999844e+01,3.838809151128926012e-02
2.928000000000000114e+01,7.015652706826221163e-02
2.932000000000000028e+01,7.545488513656767315e-02
2.935999999999999943e+01,7.489909984857849590e-02
2.939999999999999858e+01,1.117571832496845191e-01
2.944000000000000128e+01,1.058560486457989225e-01
2.948000000000000043e+01,1.103898995273417671e-01
2.951999999999999957e+01,1.396117267926918759e-01
2.955999999999999872e+01,1.930124930373632031e-01
2.960000000000000142e+01,2.400500687924191634e-01
2.964000000000000057e+01,3.451174376401087152e-01
2.967999999999999972e+01,4.453487184828077705e-01
2.971999999999999886e+01,6.015736466917286362e-01
2.976000000000000156e+01,8.005572983943980425e-01
2.980000000000000071e+01,9.374383671488333292e-01
2.983999999999999986e+01,1.000000000000000000e+00
2.987999999999999901e+01,9.765343794515825016e-01
2.992000000000000171e+01,8.347177519291265613e-01
2.996000000000000085e+01,6.656674625976546356e-01
3.000000000000000000e+01,5.098518284795990896e-01
3.003999999999999915e+01,3.652347057943154951e-01
3.007999999999999829e+01,2.982452199589307740e-01
3.012000000000000099e+01,2.226018587747239652e-01
3.016000000000000014e+01,1.838632938513227733e-01
3.019999999999999929e+01,1.835566296191190605e-01
3.023999999999999844e+01,1.483807580767387557e-01
3.028000000000000114e+01,1.613084570496925441e-01
3.032000000000000028e+01,1.258775051648695353e-01
3.035999999999999943e+01,1.464401695139990189e-01
3.039999999999999858e+01,1.578399094352189447e-01
3.044000000000000128e+01,1.745842335562681757e-01
3.048000000000000043e+01,1.775843102293986897e-01
3.051999999999999957e+01,2.386141371882923023e-01
3.055999999999999872e+01,3.174599112483421637e-01
3.060000000000000142e+01,4.578986799136578467e-01
3.064000000000000057e+01,8.447103127536482736e-01
3.067999999999999972e+01,8.286200802258336662e-01
3.071999999999999886e+01,6.542195182991634717e-01
3.076000000000000156e+01,5.258863617037470295e-01
3.080000000000000071e+01,3.163617438139445515e-01
3.083999999999999986e+01,2.414766971810538565e-01
3.087999999999999901e+01,1.854256530006236914e-01
3.092000000000000171e+01,1.825685027904528912e-01
3.096000000000000085e+01,1.374610960948696725e-01
3.100000000000000000e+01,1.267132675053911084e-01
3.103999999999999915e+01,1.327632917504274757e-01
3.107999999999999829e+01,1.080163514939397329e-01
3.112000000000000099e+01,1.046485793089087096e-01
3.116000000000000014e+01,9.517205847871508528e-02
3.119999999999999929e+01,1.223457655900294649e-01
3.123999999999999844e+01,1.255944791094652235e-01
3.128000000000000114e+01,1.201892608528404016e-01
3.132000000000000028e+01,1.285276690580459680e-01
3.135999999999999943e+01,1.226127515497426324e-01
3.139999999999999858e+01,1.329866339053334123e-01
3.144000000000000128e+01,1.726297183763982335e-01
3.148000000000000043e+01,1.634050601037285444e-01
3.151999999999999957e+01,1.994842170046632890e-01
3.155999999999999872e+01,2.398898327065166203e-01
3.160000000000000142e+01,2.451716572127607963e-01
3.164000000000000057e+01,2.909214541974740054e-01
3.167999999999999972e+01,3.832476472195231465e-01
3.171999999999999886e+01,4.048175610982981398e-01
3.176000000000000156e+01,4.905255904486978680e-01
3.180000000000000071e+01,5.309291097002645232e-01
3.183999999999999986e+01,5.379904501871393130e-01
3.187999999999999901e+01,5.778842195970893547e-01
3.192000000000000171e+01,6.338122458466047826e-01
3.196000000000000085e+01,7.073016333660772093e-01
3.200000000000000000e+01,7.866445646591911922e-01
3.203999999999999915e+01,8.466437825735653178e-01
3.207999999999999829e+01,7.837105693140157259e-01
3.211999999999999744e+01,6.103162916734031773e-01
3.215999999999999659e+01,4.847709753677229005e-01
3.220000000000000284e+01,4.078381716392877610e-01
3.224000000000000199e+01,3.158884462023938688e-01
3.228000000000000114e+01,2.687334635108151737e-01
3.232000000000000028e+01,2.360856118249746449e-01
3.235999999999999943e+01,1.879117971346556115e-01
3.239999999999999858e+01,1.664619605678089587e-01
3.243999999999999773e+01,1.238867670590356601e-01
3.247999999999999687e+01,1.266153420254625961e-01
3.252000000000000313e+01,1.217079958144957202e-01
3.256000000000000227e+01,1.162912229024410105e-01
3.260000000000000142e+01,9.560299304066635639e-02
3.264000000000000057e+01,7.847761625602620028e-02
3.267999999999999972e+01,8.833072170385025679e-02
3.271999999999999886e+01,9.563825083264125559e-02
3.275999999999999801e+01,8.334751382952912402e-02
3.279999999999999716e+01,9.956235959773936106e-02
3.284000000000000341e+01,6.156452414958734493e-02
3.288000000000000256e+01,8.159632418695439426e-02
3.292000000000000171e+01,7.795756663959513277e-02
3.296000000000000085e+01,7.635454022707709176e-02
3.300000000000000000e+01,7.551465435683474281e-02
3.303999999999999915e+01,8.740024036300923782e-02
3.307999999999999829e+01,7.408815462523141160e-02
3.311999999999999744e+01,9.208133111559840822e-02
3.315999999999999659e+01,1.194912431634050087e-01
3.320000000000000284e+01,1.155950521253249069e-01
3.324000000000000199e+01,1.888173087628433333e-01
3.328000000000000114e+01,3.050526353959872594e-01
3.332000000000000028e+01,3.937996190463403656e-01
3.335999999999999943e+01,3.710674070794191537e-01
3.339999999999999858e+01,3.320456283300022848e-01
3.343999999999999773e+01,2.894601673203100467e-01
3.347999999999999687e+01,1.934255471500650747e-01
3.352000000000000313e+01,1.452398221586800597e-01
3.356000000000000227e+01,1.367584230608759610e-01
3.360000000000000142e+01,9.926156098375440995e-02
3.364000000000000057e+01,1.027416095554789521e-01
3.367999999999999972e+01,9.349532593537612790e-02
3.371999999999999886e+01,8.984798469158099266e-02
3.375999999999999801e+01,1.045254703463137924e-01
3.379999999999999716e+01,9.680494425624845689e-02
3.384000000000000341e+01,1.145357375952504031e-01
3.388000000000000256e+01,1.274302386237428641e-01
3.392000000000000171e+01,1.029101760379116798e-01
3.396000000000000085e+01,1.387103559661323482e-01
3.400000000000000000e+01,1.518579966913608803e-01
3.403999999999999915e+01,1.227552311071298669e-01
3.407999999999999829e+01,1.519365603647723773e-01
3.411999999999999744e+01,1.795903161189811026e-01
3.415999999999999659e+01,1.884092908275264433e-01
3.420000000000000284e+01,1.814476952969585610e-01
3.424000000000000199e+01,2.429508959995865802e-01
3.428000000000000114e+01,2.428603312868132802e-01
3.432000000000000028e+01,2.631307080667101839e-01
3.435999999999999943e+01,2.752560387052189195e-01
3.439999999999999858e+01,2.827995694676088134e-01
3.443999999999999773e+01,3.025594685458566357e-01
3.447999999999999687e+01,3.017029469067880054e-01
3.452000000000000313e+01,2.977917259304586617e-01
3.456000000000000227e+01,2.910803214004615835e-01
3.460000000000000142e+01,2.403368592147508420e-01
3.464000000000000057e+01,2.303157413043551982e-01
3.467999999999999972e+01,2.027324057001260449e-01
3.471999999999999886e+01,1.924557793785815485e-01
3.475999999999999801e+01,1.679256619533464057e-01
3.479999999999999716e+01,1.785184909744446657e-01
3.484000000000000341e+01,1.570415839451363982e-01
3.488000000000000256e+01,1.439632578878542180e-01
3.492000000000000171e+01,1.296118371411612014e-01
3.496000000000000085e+01,1.246770643923997418e-01
3.500000000000000000e+01,1.049797534066270188e-01
3.503999999999999915e+01,1.046252779722822851e-01
3.507999999999999829e+01,1.014705936893007948e-01
3.511999999999999744e+01,1.041693014101470333e-01
3.515999999999999659e+01,9.541419359259133148e-02
3.520000000000000284e+01,1.149100340709873214e-01
3.524000000000000199e+01,1.102261686514604683e-01
3.528000000000000114e+01,1.024875669251028160e-01
3.532000000000000028e+01,8.354965960663558733e-02
3.535999999999999943e+01,1.081337565626375452e-01
3.539999999999999858e+01,1.049748916266128040e-01
3.543999999999999773e+01,1.020700130823665175e-01
3.547999999999999687e+01,1.113814522640399901e-01
3.552000000000000313e+01,1.288369235561104276e-01
3.556000000000000227e+01,1.157497301501295567e-01
3.560000000000000142e+01,1.220053450548408830e-01
3.564000000000000057e+01,1.557483336639892968e-01
3.567999999999999972e+01,1.401143397651646583e-01
3.571999999999999886e+01,1.435686306103718946e-01
3.575999999999999801e+01,1.841819630383859929e-01
3.579999999999999716e+01,1.873806404010346927e-01
3.584000000000000341e+01,2.048317598125794226e-01
3.588000000000000256e+01,2.495157235246004690e-01
3.592000000000000171e+01,2.404958916549317649e-01
3.596000000000000085e+01,2.520914392308521434e-01
3.600000000000000000e+01,3.072089599489721823e-01
3.603999999999999915e+01,3.218576011748087162e-01
3.607999999999999829e+01,3.706110556650004106e-01
3.611999999999999744e+01,4.025657756018312106e-01
3.615999999999999659e+01,4.673527162646849975e-01
3.620000000000000284e+01,5.041421383908152309e-01
3.624000000000000199e+01,5.243873378556438425e-01
3.628000000000000114e+01,5.331786673005989297e-01
3.632000000000000028e+01,5.498594722112544186e-01
3.635999999999999943e+01,5.410879280957163751e-01
3.639999999999999858e+01,4.982104302099868987e-01
3.643999999999999773e+01,4.772208770674432610e-01
3.647999999999999687e+01,4.605575433964960164e-01
3.652000000000000313e+01,3.978259168381486632e-01
3.656000000000000227e+01,3.559641582682476768e-01
3.660000000000000142e+01,3.237734856491972235e-01
3.664000000000000057e+01,2.920912587782795722e-01
3.667999999999999972e+01,2.675349366730815914e-01
3.671999999999999886e+01,2.470503046355191079e-01
3.675999999999999801e+01,2.466719776694895061e-01
3.679999999999999716e+01,2.223683866499897299e-01
3.684000000000000341e+01,2.115536358471357403e-01
3.688000000000000256e+01,1.964114822599783983e-01
3.692000000000000171e+01,1.708334984381168487e-01
3.696000000000000085e+01,1.623075972066369832e-01
3.700000000000000000e+01,1.530175355645896629e-01
3.703999999999999915e+01,1.561982334929148675e-01
3.707999999999999829e+01,1.435982210869138631e-01
3.711999999999999744e+01,1.477957657588673535e-01
3.715999999999999659e+01,1.262864047599308870e-01
3.720000000000000284e+01,1.101212991262266461e-01
3.724000000000000199e+01,9.166491503119542084e-02
3.728000000000000114e+01,8.466120791449660565e-02
3.732000000000000028e+01,6.085870787143152216e-02
3.735999999999999943e+01,5.945314327763431134e-02
3.739999999999999858e+01,3.895812230169946183e-02
3.743999999999999773e+01,5.078622432852895885e-02
3.747999999999999687e+01,6.388628443046670546e-02
3.752000000000000313e+01,3.957160579906463665e-02
3.756000000000000227e+01,3.358156921834013625e-02
3.760000000000000142e+01,4.998845641228241710e-02
3.764000000000000057e+01,5.850465564131487189e-02
3.767999999999999972e+01,3.800519342281166724e-02
3.771999999999999886e+01,4.066620232975387550e-02
3.775999999999999801e+01,3.492748197576613783e-02
3.779999999999999716e+01,1.340801626364903840e-02
3.784000000000000341e+01,2.573876047278625748e-02
3.788000000000000256e+01,2.305230862033953720e-02
3.792000000000000171e+01,2.647363029740109827e-02
3.796000000000000085e+01,2.225876617277778094e-02
3.800000000000000000e+01,3.687755815411628696e-02
3.803999999999999915e+01,3.673366402016326610e-02
3.807999999999999829e+01,2.717195414170659601e-02
3.811999999999999744e+01,1.455536980697307026e-02
3.815999999999999659e+01,2.891700113464589980e-02
3.820000000000000284e+01,3.106111585755731708e-02
3.824000000000000199e+01,3.371359849792775892e-02
3.828000000000000114e+01,4.145576623846588399e-02
3.832000000000000028e+01,2.272741869279626056e-02
3.835999999999999943e+01,2.563240476414403030e-02
3.839999999999999858e+01,2.930026869924329952e-02
3.843999999999999773e+01,2.482288802473595068e-02
3.847999999999999687e+01,4.605111879970148064e-02
3.852000000000000313e+01,2.350161896316223936e-02
3.856000000000000227e+01,2.054930117992827612e-02
3.860000000000000142e+01,8.179142357221690085e-03
3.864000000000000057e+01,8.279665274213738810e-03
3.867999999999999972e+01,2.212345663193634668e-02
3.871999999999999886e+01,3.342137980559888727e-02
3.875999999999999801e+01,1.239485851434413838e-02
3.879999999999999716e+01,2.420042952850045420e-02
3.884000000000000341e+01,2.175231097074783668e-02
3.888000000000000256e+01,4.195557165248263443e-02
3.892000000000000171e+01,3.136148646239136223e-02
3.896000000000000085e+01,7.786294509889296611e-03
3.900000000000000000e+01,2.289709290923818558e-02
3.903999999999999915e+01,2.375419200784389256e-02
3.907999999999999829e+01,9.594036671860357510e-03
3.911999999999999744e+01,3.411986585042720704e-02
3.915999999999999659e+01,1.887529087872744657e-03
3.920000000000000284e+01,2.768452037967567697e-02
3.924000000000000199e+01,3.031968211431011750e-02
3.928000000000000114e+01,1.182915418088714872e-02
3.932000000000000028e+01,3.304267195061934975e-02
3.935999999999999943e+01,1.047841824774304112e-02
3.939999999999999858e+01,8.938447737147940317e-04
3.943999999999999773e+01,9.124786440602989171e-03
3.947999999999999687e+01,1.320383297794506562e-03
3.952000000000000313e+01,1.489473961540518400e-02
3.956000000000000227e+01,2.439608051169351449e-02
3.960000000000000142e+01,2.702470901793552899e-02
3.964000000000000057e+01,2.914356642235797074e-02
3.967999999999999972e+01,1.242737426529235203e-02
3.971999999999999886e+01,1.403571908749467849e-02
3.975999999999999801e+01,1.644847314510313038e-03
3.979999999999999716e+01,1.699566461557086572e-02
3.984000000000000341e+01,2.267406282902682813e-02
3.988000000000000256e+01,1.409872088063585799e-02
3.992000000000000171e+01,3.741005563258676617e-03
3.996000000000000085e+01,0.000000000000000000e+00
4.000000000000000000e+01,2.120097875899491779e-02
4.003999999999999915e+01,5.241613930698290139e-03
4.007999999999999829e+01,5.825144464249795706e-03
4.011999999999999744e+01,8.444057840377121663e-03
4.015999999999999659e+01,1.055317481971584752e-02
4.020000000000000284e+01,3.149584088783993763e-02
4.024000000000000199e+01,3.105825286014257669e-02
4.028000000000000114e+01,1.483979883677135313e-02
4.032000000000000028e+01,3.119884545031123904e-02
4.035999999999999943e+01,9.124944263626101268e-03
4.039999999999999858e+01,2.217371711591585928e-02
4.043999999999999773e+01,9.515424744434194601e-03
4.047999999999999687e+01,2.154457561664421469e-02
4.052000000000000313e+01,1.270249423138429187e-02
4.056000000000000227e+01,1.658551891837420009e-02
4.060000000000000142e+01,1.792258397026224095e-02
4.064000000000000057e+01,1.798627608808039610e-02
4.067999999999999972e+01,1.143172100950700515e-02
4.071999999999999886e+01,5.130895481488585014e-03
4.075999999999999801e+01,7.228364897769962681e-03
4.079999999999999716e+01,1.721509185386491808e-02
4.084000000000000341e+01,1.371158513778784026e-02
4.088000000000000256e+01,2.089702709294790142e-02
4.092000000000000171e+01,2.630004703495059104e-02
4.096000000000000085e+01,6.759529646292099930e-03
4.100000000000000000e+01,1.572419614675243937e-02
4.103999999999999915e+01,7.889888764529753157e-03
4.107999999999999829e+01,2.219781814589858251e-02
4.111999999999999744e+01,5.199259179545231459e-03
4.115999999999999659e+01,2.281430182387715958e-02
4.120000000000000284e+01,1.981259686206259321e-02
4.124000000000000199e+01,1.401038340351694854e-02
4.128000000000000114e+01,1.126156727774748310e-02
4.132000000000000028e+01,1.360228837386538367e-02
4.135999999999999943e+01,2.357772203970116484e-02
4.139999999999999858e+01,1.191832745311726185e-02
4.143999999999999773e+01,2.265566984758292379e-02
4.147999999999999687e+01,3.104577299863779064e-03
4.152000000000000313e+01,1.282219653437370772e-02
4.156000000000000227e+01,2.712030585745035804e-02
4.160000000000000142e+01,2.207423676351076558e-02
4.164000000000000057e+01,1.957251203172623993e-02
4.167999999999999972e+01,3.030487434943942085e-02
4.171999999999999886e+01,1.431203826140309797e-02
4.175999999999999801e+01,7.481001661574739579e-03
4.179999999999999716e+01,2.304668453089433328e-02
4.184000000000000341e+01,7.305844028688578129e-03
4.188000000000000256e+01,2.337887509040763659e-02
4.192000000000000171e+01,1.959867671025618610e-02
4.196000000000000085e+01,1.530859437380812683e-02
4.200000000000000000e+01,1.050862613529662121e-02
4.203999999999999915e+01,2.657825931517349485e-02
4.207999999999999829e+01,3.144825806834383036e-02
4.211999999999999744e+01,1.773760629760821189e-02
4.215999999999999659e+01,2.107878416756422957e-02
4.220000000000000284e+01,1.729260544326913229e-02
4.224000000000000199e+01,2.088657875246166876e-02
4.228000000000000114e+01,1.378994336483290589e-02
4.232000000000000028e+01,2.756289577522458636e-02
4.235999999999999943e+01,1.435610091823767004e-02
4.239999999999999858e+01,2.329147861453616936e-02
4.243999999999999773e+01,1.975461572542780778e-02
4.247999999999999687e+01,1.341718402081617904e-02
4.252000000000000313e+01,1.955024531651907219e-02
4.256000000000000227e+01,2.059207434094726882e-02
4.260000000000000142e+01,3.257728609799782904e-02
4.264000000000000057e+01,1.249238238010692836e-02
4.267999999999999972e+01,2.065806309976748328e-02
4.271999999999999886e+01,1.049758183837904389e-02
4.275999999999999801e+01,2.095214924221603867e-02
4.279999999999999716e+01,6.717607539476725884e-03
4.284000000000000341e+01,2.073364249122162245e-02
4.288000000000000256e+01,1.387833038525258973e-02
4.292000000000000171e+01,2.382029322104546251e-02
4.296000000000000085e+01,2.765293341045614237e-02
4.300000000000000000e+01,2.766690857195548345e-02
4.303999999999999915e+01,1.113633029178931477e-02
4.307999999999999829e+01,1.980210423918924573e-02
4.311999999999999744e+01,1.752271089930441603e-02
4.315999999999999659e+01,1.524241068883711719e-02
4.320000000000000284e+01,1.016150663906315380e-02
4.324000000000000199e+01,9.661010955648485082e-03
4.328000000000000114e+01,2.264904222041731405e-02
4.332000000000000028e+01,1.603829367083574320e-02
4.335999999999999943e+01,1.120825262735575777e-02
4.339999999999999858e+01,2.292094544707565934e-02
4.343999999999999773e+01,2.750622135377219293e-02
4.347999999999999687e+01,2.903636207143452802e-02
4.352000000000000313e+01,3.438334434700889702e-02
4.356000000000000227e+01,3.209386841353988745e-02
4.360000000000000142e+01,4.329290386211966796e-02
4.364000000000000057e+01,4.303771126972615740e-02
4.367999999999999972e+01,5.907072119080494094e-02
4.371999999999999886e+01,3.972483261956063355e-02
4.375999999999999801e+01,5.779211420711381775e-02
4.379999999999999716e+01,5.982384084215092851e-02
4.384000000000000341e+01,9.163320186365946085e-02
4.388000000000000256e+01,1.407488265872449962e-01
4.392000000000000171e+01,1.259795574013816977e-01
4.396000000000000085e+01,1.178268033929523173e-01
4.400000000000000000e+01,1.264712717905798756e-01
4.403999999999999915e+01,1.071178402811822222e-01
4.407999999999999829e+01,8.598183304304640728e-02
4.411999999999999744e+01,6.611746088272245359e-02
4.415999999999999659e+01,6.432289199218690912e-02
4.420000000000000284e+01,5.438279830161890649e-02
4.424000000000000199e+01,6.607575220034202224e-02
4.428000000000000114e+01,4.595302857704263583e-02
4.432000000000000028e+01,4.491817135790324156e-02
4.435999999999999943e+01,4.311879570709663267e-02
4.439999999999999858e+01,4.080941740821576041e-02
4.443999999999999773e+01,2.831836079982351373e-02
4.447999999999999687e+01,3.873292875292001086e-02
4.452000000000000313e+01,3.311190672969720195e-02
4.456000000000000227e+01,4.097934939011885908e-02
4.460000000000000142e+01,4.630063783875401628e-02
4.464000000000000057e+01,5.416612471703082660e-02
4.467999999999999972e+01,5.770382938646936855e-02
4.471999999999999886e+01,6.862156545185099654e-02
4.475999999999999801e+01,7.572055087558010600e-02
4.479999999999999716e+01,1.159058544690529519e-01
4.484000000000000341e+01,1.502362616944616924e-01
4.488000000000000256e+01,2.044180612713737133e-01
4.492000000000000171e+01,3.207011943277400801e-01
4.496000000000000085e+01,2.977621349942346507e-01
4.500000000000000000e+01,1.989757959356672767e-01
4.503999999999999915e+01,2.238840750243124844e-01
4.507999999999999829e+01,1.981423257029770457e-01
4.511999999999999744e+01,1.074975531817481539e-01
4.515999999999999659e+01,7.640892517177524934e-02
4.520000000000000284e+01,7.407979447476190082e-02
4.524000000000000199e+01,5.876925152994315338e-02
4.528000000000000114e+01,3.734927308426501391e-02
4.532000000000000028e+01,5.257883572439819159e-02
4.535999999999999943e+01,5.329987390326679925e-02
4.539999999999999858e+01,3.289492471175047006e-02
4.543999999999999773e+01,4.430367391090983542e-02
4.547999999999999687e+01,4.196744599958321387e-02
4.552000000000000313e+01,2.868593405496114648e-02
4.556000000000000227e+01,3.118349771404999374e-02
4.560000000000000142e+01,3.851587266861400405e-02
4.564000000000000057e+01,2.472224857819201385e-02
4.567999999999999972e+01,2.721672971289999798e-02
4.571999999999999886e+01,3.301890992962403654e-02
4.575999999999999801e+01,3.042097173204888483e-02
4.579999999999999716e+01,3.367590601855363630e-02
4.584000000000000341e+01,3.260300166898146695e-02
4.588000000000000256e+01,4.501849779274777474e-02
4.592000000000000171e+01,4.725224361362941744e-02
4.596000000000000085e+01,3.370484713994497533e-02
4.600000000000000000e+01,3.059163254998160941e-02
4.603999999999999915e+01,3.816711562733206969e-02
4.607999999999999829e+01,2.512561371498089891e-02
4.611999999999999744e+01,2.837219562432437975e-02
4.615999999999999659e+01,4.027132752880319133e-02
4.620000000000000284e+01,3.002636223012131872e-02
4.624000000000000199e+01,2.741587211760210946e-02
4.628000000000000114e+01,3.753020983267379984e-02
4.632000000000000028e+01,3.237242319999733553e-02
4.635999999999999943e+01,4.477529736121313442e-02
4.639999999999999858e+01,3.707020642531196064e-02
4.643999999999999773e+01,2.274658810259347699e-02
4.647999999999999687e+01,2.852880203006423129e-02
4.652000000000000313e+01,4.041837114717131835e-02
4.656000000000000227e+01,2.914575463177703982e-02
4.660000000000000142e+01,3.237957448335705701e-02
4.664000000000000057e+01,5.877343155437588645e-02
4.667999999999999972e+01,4.444337382977028850e-02
4.671999999999999886e+01,4.767395938715536519e-02
4.675999999999999801e+01,4.301341334478969713e-02
4.679999999999999716e+01,3.198884013306485530e-02
4.684000000000000341e+01,4.157911711834710172e-02
4.688000000000000256e+01,3.869693753810259096e-02
4.692000000000000171e+01,5.693863972205099461e-02
4.696000000000000085e+01,6.270788144893893468e-02
4.700000000000000000e+01,4.938719980964616230e-02
4.703999999999999915e+01,5.210003951005081485e-02
4.707999999999999829e+01,4.641269658585043395e-02
4.711999999999999744e+01,6.337633207316724360e-02
4.715999999999999659e+01,5.590516409468115205e-02
4.720000000000000284e+01,5.377776503971589545e-02
4.724000000000000199e+01,7.735555131128420137e-02
4.728000000000000114e+01,5.944584041264611152e-02
4.732000000000000028e+01,7.971267968763560974e-02
4.735999999999999943e+01,6.790917388719558412e-02
4.739999999999999858e+01,8.486505838253874390e-02
4.743999999999999773e+01,7.611353714491250755e-02
4.747999999999999687e+01,8.186840946738990765e-02
4.752000000000000313e+01,9.805738973444813600e-02
4.756000000000000227e+01,1.030464690047420001e-01
4.760000000000000142e+01,1.070163545068944511e-01
4.764000000000000057e+01,1.117486684006568781e-01
4.767999999999999972e+01,1.129166073411466686e-01
4.771999999999999886e+01,1.186647367221089627e-01
4.775999999999999801e+01,1.144855440242713990e-01
4.779999999999999716e+01,1.220130342974454357e-01
4.784000000000000341e+01,1.275032482104380416e-01
4.788000000000000256e+01,1.452091766616281088e-01
4.792000000000000171e+01,1.331353923608906975e-01
4.796000000000000085e+01,1.169881840277932628e-01
4.800000000000000000e+01,1.120386134781537618e-01
4.803999999999999915e+01,9.512556539446848092e-02
4.807999999999999829e+01,9.551857670734134609e-02
4.811999999999999744e+01,9.285622712222585395e-02
4.815999999999999659e+01,8.942917425759286387e-02
4.820000000000000284e+01,7.505670699328566287e-02
4.824000000000000199e+01,5.711983753497004712e-02
4.828000000000000114e+01,6.539713827196949603e-02
4.832000000000000028e+01,6.323805423071370002e-02
4.835999999999999943e+01,5.191517211223449502e-02
4.839999999999999858e+01,4.771762464978887563e-02
4.843999999999999773e+01,6.158967226007904666e-02
4.847999999999999687e+01,3.906451891435244045e-02
4.852000000000000313e+01,4.733484321781524645e-02
4.856000000000000227e+01,4.771394836201923312e-02
4.860000000000000142e+01,2.747594593321012538e-02
4.864000000000000057e+01,4.261473444476544109e-02
4.867999999999999972e+01,4.069965970281035766e-02
4.871999999999999886e+01,5.329091820218673919e-02
4.875999999999999801e+01,3.686597627661114540e-02
4.879999999999999716e+01,4.487355514586331695e-02
4.884000000000000341e+01,4.982573809332387776e-02
4.888000000000000256e+01,4.586861539795185350e-02
4.892000000000000171e+01,4.572807158196767058e-02
4.896000000000000085e+01,5.449445928679937795e-02
4.900000000000000000e+01,3.729884764439497097e-02
4.903999999999999915e+01,2.519239769087660424e-02
4.907999999999999829e+01,3.370068897142192155e-02
4.911999999999999744e+01,4.678910259060015120e-02
4.915999999999999659e+01,2.857063676292010204e-02
4.920000000000000284e+01,3.071238860264349779e-02
4.924000000000000199e+01,2.725354776930939693e-02
4.928000000000000114e+01,2.964741013833947433e-02
4.932000000000000028e+01,3.178554825933303102e-02
4.935999999999999943e+01,3.672217293884012801e-02
4.939999999999999858e+01,3.529464397414307231e-02
4.943999999999999773e+01,1.299544884596944005e-02
4.947999999999999687e+01,3.701726615952548316e-02
4.952000000000000313e+01,1.929695961057209530e-02
4.956000000000000227e+01,1.786456954736459837e-02
4.960000000000000142e+01,2.966588127181910353e-02
4.964000000000000057e+01,3.637561632426718206e-02
4.967999999999999972e+01,3.417600681854568445e-02
4.971999999999999886e+01,2.841192312544250573e-02
4.975999999999999801e+01,2.850051928550134672e-02
4.979999999999999716e+01,4.182280750438804873e-02
4.984000000000000341e+01,3.783665831316620348e-02
4.988000000000000256e+01,1.654206976606891269e-02
4.992000000000000171e+01,4.360461409214397982e-02
4.996000000000000085e+01,3.656054503306669506e-02
5.000000000000000000e+01,3.104234275343464855e-02
5.003999999999999915e+01,4.639335273882179422e-02
5.007999999999999829e+01,4.443591363949930123e-02
5.011999999999999744e+01,4.756758369335803427e-02
5.015999999999999659e+01,4.586216950960096683e-02
5.020000000000000284e+01,4.746423648197319739e-02
5.024000000000000199e+01,5.950027908678078709e-02
5.028000000000000114e+01,6.288146567627583838e-02
5.032000000000000028e+01,6.982464531395943252e-02
5.035999999999999943e+01,9.941864575604561494e-02
5.039999999999999858e+01,9.057921001042845699e-02
5.043999999999999773e+01,1.262791159026184495e-01
5.047999999999999687e+01,1.505244610277044759e-01
5.052000000000000313e+01,1.470261087608959460e-01
5.056000000000000227e+01,1.791589717670029058e-01
5.060000000000000142e+01,1.705677292923345745e-01
5.064000000000000057e+01,1.703743011575550859e-01
5.067999999999999972e+01,1.704341180773858433e-01
5.071999999999999886e+01,1.468225115462437058e-01
5.075999999999999801e+01,1.428074936095188319e-01
5.079999999999999716e+01,1.113032823898911644e-01
5.084000000000000341e+01,1.042314927309822142e-01
5.088000000000000256e+01,6.839791725083810281e-02
5.092000000000000171e+01,6.615939769682992189e-02
5.096000000000000085e+01,7.486385421017331676e-02
5.100000000000000000e+01,5.735169635857848003e-02
5.103999999999999915e+01,6.274484396270965658e-02
5.107999999999999829e+01,4.573913925076509429e-02
5.111999999999999744e+01,3.178635321295259636e-02
5.115999999999999659e+01,3.717561858252914353e-02
5.120000000000000284e+01,3.670967820711291268e-02
5.124000000000000199e+01,3.344274289325405852e-02
5.128000000000000114e+01,3.781003759893534349e-02
5.132000000000000028e+01,4.268506395631697925e-02
5.135999999999999943e+01,5.392172779490634477e-02
5.139999999999999858e+01,5.497637476055303868e-02
5.143999999999999773e+01,4.101316604965501988e-02
5.147999999999999687e+01,2.959382304226804150e-02
5.152000000000000313e+01,3.522585436613068915e-02
5.156000000000000227e+01,2.354936461191037278e-02
5.160000000000000142e+01,3.299652896716205597e-02
5.164000000000000057e+01,2.768034564639446082e-02
5.167999999999999972e+01,2.236284100670618558e-02
5.171999999999999886e+01,2.849731092351896755e-02
5.175999999999999801e+01,2.648588829036538361e-02
5.179999999999999716e+01,3.719902496897793676e-02
5.184000000000000341e+01,4.129337158224893195e-02
5.188000000000000256e+01,3.342405386785687188e-02
5.192000000000000171e+01,3.166182866457690342e-02
5.196000000000000085e+01,2.786212668713032581e-02
5.200000000000000000e+01,3.475083245773765567e-02
5.203999999999999915e+01,2.509454698913908197e-02
5.207999999999999829e+01,3.859803411568823311e-02
5.211999999999999744e+01,3.810170340509535375e-02
5.215999999999999659e+01,4.422148898973296549e-02
5.220000000000000284e+01,2.437911956578668951e-02
5.224000000000000199e+01,1.497062848593350669e-02
5.228000000000000114e+01,3.279418394214980714e-02
5.232000000000000028e+01,3.152755724519476499e-02
5.235999999999999943e+01,1.829724287137454719e-02
5.239999999999999858e+01,2.211826002193344881e-02
5.243999999999999773e+01,3.917284081070832730e-02
5.247999999999999687e+01,3.026525297053137345e-02
5.252000000000000313e+01,2.873731710176265566e-02
5.256000000000000227e+01,1.931796749705042004e-02
5.260000000000000142e+01,2.796801060532198152e-02
5.264000000000000057e+01,3.559861477882959174e-02
5.267999999999999972e+01,4.068267169564777908e-02
5.271999999999999886e+01,3.380302342369918139e-02
5.275999999999999801e+01,2.488585946224702861e-02
5.279999999999999716e+01,3.098386573262761068e-02
5.284000000000000341e+01,2.893592691733693281e-02
5.288000000000000256e+01,3.121340980923585987e-02
5.292000000000000171e+01,3.730727700383808243e-02
5.296000000000000085e+01,3.703681738098676263e-02
5.300000000000000000e+01,3.472883039403085875e-02
5.303999999999999915e+01,2.860168999168524739e-02
5.307999999999999829e+01,3.647163528336538896e-02
5.311999999999999744e+01,2.906912544693351919e-02
5.315999999999999659e+01,2.828268326156106738e-02
5.320000000000000284e+01,2.724032808876794901e-02
5.324000000000000199e+01,4.757606497836584791e-02
5.328000000000000114e+01,2.566045964465126297e-02
5.332000000000000028e+01,4.268466580761647727e-02
5.335999999999999943e+01,2.280239817229017668e-02
5.339999999999999858e+01,1.997141341717178359e-02
5.343999999999999773e+01,2.579262452762282401e-02
5.347999999999999687e+01,3.746633453491921006e-02
5.352000000000000313e+01,2.343234305268557943e-02
5.356000000000000227e+01,3.535774719518362808e-02
5.360000000000000142e+01,2.132092822725812145e-02
5.364000000000000057e+01,2.331730954750047338e-02
5.367999999999999972e+01,2.429420134304084364e-02
5.371999999999999886e+01,3.036002717274628379e-02
5.375999999999999801e+01,2.064433128335075793e-02
5.379999999999999716e+01,2.797989881649457986e-02
5.384000000000000341e+01,3.124175628955210005e-02
5.388000000000000256e+01,2.941183083931741410e-02
5.392000000000000171e+01,2.834402829529784895e-02
5.396000000000000085e+01,3.414677221636054638e-02
5.400000000000000000e+01,2.518605366116008493e-02
5.403999999999999915e+01,3.353110458325773285e-02
5.407999999999999829e+01,3.271207918347303345e-02
5.411999999999999744e+01,2.680125918579510935e-02
5.415999999999999659e+01,3.259681278220029343e-02
5.420000000000000284e+01,1.904757504503274204e-02
5.424000000000000199e+01,3.145769985456045581e-02
5.428000000000000114e+01,2.859531310873764803e-02
5.432000000000000028e+01,3.591218579777213926e-02
5.435999999999999943e+01,2.032101115913007364e-02
5.439999999999999858e+01,2.967112036667682654e-02
5.443999999999999773e+01,3.825622080931125046e-02
5.447999999999999687e+01,2.749651629800500124e-02
5.452000000000000313e+01,2.564347284592315146e-02
5.456000000000000227e+01,3.218805304857919047e-02
5.460000000000000142e+01,3.160467346926188609e-02
5.464000000000000057e+01,3.025627539619802145e-02
5.467999999999999972e+01,2.636123277810248355e-02
5.471999999999999886e+01,3.849933791246996917e-02
5.475999999999999801e+01,3.460135495420557650e-02
5.479999999999999716e+01,3.579225349440134235e-02
5.484000000000000341e+01,3.214584014226031655e-02
5.488000000000000256e+01,2.951602072728996481e-02
5.492000000000000171e+01,2.459406282204661467e-02
5.496000000000000085e+01,4.232270195801852292e-02
5.500000000000000000e+01,2.874417756517268913e-02
5.503999999999999915e+01,5.054213278999587777e-02
5.507999999999999829e+01,4.535972199358326296e-02
5.511999999999999744e+01,3.355836157894773186e-02
5.515999999999999659e+01,3.651753886654122983e-02
5.520000000000000284e+01,4.456557819492645151e-02
5.524000000000000199e+01,3.886816564571527605e-02
5.528000000000000114e+01,5.454874592478601431e-02
5.532000000000000028e+01,5.419321087048896424e-02
5.535999999999999943e+01,6.045363645007473252e-02
5.539999999999999858e+01,7.205743207097774217e-02
5.543999999999999773e+01,6.329830512209687343e-02
5.547999999999999687e+01,6.828162939187114311e-02
5.552000000000000313e+01,6.537339593895531709e-02
5.556000000000000227e+01,5.686426238182035880e-02
5.560000000000000142e+01,5.318945367844886418e-02
5.564000000000000057e+01,4.391374097932445458e-02
5.567999999999999972e+01,5.041661160489907534e-02
5.571999999999999886e+01,4.215593608623616206e-02
5.575999999999999801e+01,5.654581869345164796e-02
5.579999999999999716e+01,5.693570445297518878e-02
5.584000000000000341e+01,4.739787508879596961e-02
5.588000000000000256e+01,5.236603067368265918e-02
5.592000000000000171e+01,6.369560192235661222e-02
5.596000000000000085e+01,6.000709762283235049e-02
5.600000000000000000e+01,5.275381365053143784e-02
5.603999999999999915e+01,4.982579766983930014e-02
5.607999999999999829e+01,5.987665053322047820e-02
5.611999999999999744e+01,5.389134914789692893e-02
5.615999999999999659e+01,6.673882049038713793e-02
5.620000000000000284e+01,6.914952373855347278e-02
5.624000000000000199e+01,7.817614481373200142e-02
5.628000000000000114e+01,7.931117119665032078e-02
5.632000000000000028e+01,7.968109736361453366e-02
5.635999999999999943e+01,8.793952416708925024e-02
5.639999999999999858e+01,9.365122275755789760e-02
5.643999999999999773e+01,1.153959854325150997e-01
5.647999999999999687e+01,1.180503635945491792e-01
5.652000000000000313e+01,1.171399367888376064e-01
5.656000000000000227e+01,1.297173909367166644e-01
5.660000000000000142e+01,1.537465822575415919e-01
5.664000000000000057e+01,1.604670053878940739e-01
5.667999999999999972e+01,1.664223107903908261e-01
5.671999999999999886e+01,1.560869150283204776e-01
5.675999999999999801e+01,1.605119791378052385e-01
5.679999999999999716e+01,1.506824800260671837e-01
5.684000000000000341e+01,1.505230823071556090e-01
5.688000000000000256e+01,1.396723656865239971e-01
5.692000000000000171e+01,1.412914415901423970e-01
5.696000000000000085e+01,1.210204146086781424e-01
5.700000000000000000e+01,1.172914599296862176e-01
5.703999999999999915e+01,1.013440721897482938e-01
5.707999999999999829e+01,1.128830152232181139e-01
5.711999999999999744e+01,1.104218971986900277e-01
5.715999999999999659e+01,1.021052835099092448e-01
5.720000000000000284e+01,1.194933706517172234e-01
5.724000000000000199e+01,1.371343837423727174e-01
5.728000000000000114e+01,1.290675124414146224e-01
5.732000000000000028e+01,1.464508184043850914e-01
5.735999999999999943e+01,1.584876544329880399e-01
5.739999999999999858e+01,1.621238058291396833e-01
5.743999999999999773e+01,1.627041429636278125e-01
5.747999999999999687e+01,1.419033873767837350e-01
5.752000000000000313e+01,1.376446787974430763e-01
5.756000000000000227e+01,1.374566465412111194e-01
5.760000000000000142e+01,1.067248774693956986e-01
5.764000000000000057e+01,9.966164598985594036e-02
5.767999999999999972e+01,8.801548219789308292e-02
5.771999999999999886e+01,6.236922816142967396e-02
5.775999999999999801e+01,5.988247042122187697e-02
5.779999999999999716e+01,7.444678152686892703e-02
5.784000000000000341e+01,5.515861366065463040e-02
5.788000000000000256e+01,4.350435476245088223e-02
5.792000000000000171e+01,5.780927940039259916e-02
5.796000000000000085e+01,4.589725110996480117e-02
5.800000000000000000e+01,4.365526778512496958e-02
5.803999999999999915e+01,3.479419280108251439e-02
5.807999999999999829e+01,4.502031487740495302e-02
5.811999999999999744e+01,3.208368899460752738e-02
5.815999999999999659e+01,2.932613575305012196e-02
5.820000000000000284e+01,3.318440499592956172e-02
5.824000000000000199e+01,3.245971468565001655e-02
5.828000000000000114e+01,3.504211248659683947e-02
5.832000000000000028e+01,2.515149723269895915e-02
5.835999999999999943e+01,2.518542716184713273e-02
5.839999999999999858e+01,3.208968757595758586e-02
5.843999999999999773e+01,2.117605678136808348e-02
5.847999999999999687e+01,2.145955397932289982e-02
5.852000000000000313e+01,2.352302123774448889e-02
5.856000000000000227e+01,3.042066936318302620e-02
5.860000000000000142e+01,1.313747526286060917e-02
5.864000000000000057e+01,2.130439421616085738e-02
5.867999999999999972e+01,3.303289955237871667e-02
5.871999999999999886e+01,3.152481918800420502e-02
5.875999999999999801e+01,2.568827170486142827e-02
5.879999999999999716e+01,2.952173027196974830e-02
5.884000000000000341e+01,1.579179590206935060e-02
5.888000000000000256e+01,2.369419697079446288e-02
5.892000000000000171e+01,1.708741396329407913e-02
5.896000000000000085e+01,2.651357245697101572e-02
5.900000000000000000e+01,3.161125215727875887e-02
5.903999999999999915e+01,2.805364971933468898e-02
5.907999999999999829e+01,1.456817455057323601e-02
5.911999999999999744e+01,2.424212952199467780e-02
5.915999999999999659e+01,1.329846323795564125e-02
5.920000000000000284e+01,1.838772678049286138e-02
5.924000000000000199e+01,3.441956361664461755e-02
5.928000000000000114e+01,2.601600741963914706e-02
5.932000000000000028e+01,2.397370149623901520e-02
5.935999999999999943e+01,2.498391341900069867e-02
5.939999999999999858e+01,1.937496752648693032e-02
5.943999999999999773e+01,2.445406746939367271e-02
5.947999999999999687e+01,2.215045251741201704e-02
5.952000000000000313e+01,2.620807811020155545e-02
5.956000000000000227e+01,1.957425443489225342e-02
5.960000000000000142e+01,1.370227736690595235e-02
5.964000000000000057e+01,1.724574775870723123e-02
5.967999999999999972e+01,1.391552898550535260e-02
5.971999999999999886e+01,1.389232827592336815e-02
5.975999999999999801e+01,1.514000184931655127e-02
5.979999999999999716e+01,1.918565413607645903e-02
5.984000000000000341e+01,1.432146763988787277e-02
5.988000000000000256e+01,6.146830460898439034e-03
5.992000000000000171e+01,1.960447813059646230e-02
5.996000000000000085e+01,1.117187698269839734e-02
