2.003999999999999915e+01,3.901571470344267906e-02
2.007999999999999829e+01,5.963468088504016162e-02
2.012000000000000099e+01,4.330170170609197455e-02
2.016000000000000014e+01,6.365946476549737276e-02
2.019999999999999929e+01,6.803116806405629102e-02
2.023999999999999844e+01,4.174068593394573978e-02
2.028000000000000114e+01,4.820983440907670309e-02
2.032000000000000028e+01,7.721773952944370467e-02
2.035999999999999943e+01,6.586672773085326671e-02
2.039999999999999858e+01,5.477820924838787409e-02
2.044000000000000128e+01,6.072489399881546290e-02
2.048000000000000043e+01,5.042342859343156014e-02
2.051999999999999957e+01,3.042565138401281954e-02
2.055999999999999872e+01,5.262213869011958534e-02
2.060000000000000142e+01,5.778424776576042421e-02
2.064000000000000057e+01,5.377418511206976531e-02
2.067999999999999972e+01,2.146057335340838257e-02
2.071999999999999886e+01,6.200383122519521201e-02
2.076000000000000156e+01,3.100138627317317042e-02
2.080000000000000071e+01,3.302061442109201217e-02
2.083999999999999986e+01,6.360626156612135540e-02
2.087999999999999901e+01,4.282586820241394282e-02
2.092000000000000171e+01,3.252880858465140301e-02
2.096000000000000085e+01,5.735000152574933063e-02
2.100000000000000000e+01,3.919150292896150106e-02
2.103999999999999915e+01,5.379258943216346650e-02
2.107999999999999829e+01,4.900060629589629568e-02
2.112000000000000099e+01,7.067843635267417879e-02
2.116000000000000014e+01,6.300439404483615391e-02
2.119999999999999929e+01,2.361981430852452823e-02
2.123999999999999844e+01,3.298129911930298974e-02
2.128000000000000114e+01,1.010809445183841714e-02
2.132000000000000028e+01,4.908463103501676389e-02
2.135999999999999943e+01,8.391146343168417662e-03
2.139999999999999858e+01,5.496854020948029051e-02
2.144000000000000128e+01,4.755912373815432415e-02
2.148000000000000043e+01,2.521186538504375380e-02
2.151999999999999957e+01,2.907232264497415855e-02
2.155999999999999872e+01,4.158155992153612229e-02
2.160000000000000142e+01,3.076659197538295434e-02
2.164000000000000057e+01,2.519344206750396761e-02
2.167999999999999972e+01,4.713836634197110520e-02
2.171999999999999886e+01,6.698704222828168187e-02
2.176000000000000156e+01,4.044902388312443531e-02
2.180000000000000071e+01,3.251856911963943442e-02
2.183999999999999986e+01,3.874042383499663733e-02
2.187999999999999901e+01,3.631417983535466937e-02
2.192000000000000171e+01,5.459208127131798260e-02
2.196000000000000085e+01,6.553224735161371217e-02
2.200000000000000000e+01,4.161694454471175780e-02
2.203999999999999915e+01,3.892992724811843164e-02
2.207999999999999829e+01,4.646410061221417642e-02
2.212000000000000099e+01,5.583310608609456244e-02
2.216000000000000014e+01,4.816763992399237387e-02
2.219999999999999929e+01,2.687465691922475905e-02
2.223999999999999844e+01,4.882413235891294029e-02
2.228000000000000114e+01,5.347705534770722663e-02
2.232000000000000028e+01,1.200532420471972853e-02
2.235999999999999943e+01,3.683852374984761952e-02
2.239999999999999858e+01,2.681623045764577190e-02
2.244000000000000128e+01,4.981551206984138197e-02
2.248000000000000043e+01,3.062123441827616782e-02
2.251999999999999957e+01,2.374471012122674266e-02
2.255999999999999872e+01,3.259289397201037969e-02
2.260000000000000142e+01,4.642076475087907050e-02
2.264000000000000057e+01,3.823473618604582985e-02
2.267999999999999972e+01,5.232524933079574225e-02
2.271999999999999886e+01,1.321509638709860400e-02
2.276000000000000156e+01,3.097519950600745656e-02
2.280000000000000071e+01,3.720433889602508398e-02
2.283999999999999986e+01,3.295080668162437415e-02
2.287999999999999901e+01,4.337366893546452246e-02
2.292000000000000171e+01,3.021017330128076064e-02
2.296000000000000085e+01,3.539209816351344962e-02
2.300000000000000000e+01,4.424331785434065800e-02
2.303999999999999915e+01,5.126028375144576349e-02
2.307999999999999829e+01,3.049770410252847924e-02
2.312000000000000099e+01,4.013592234406780646e-02
2.316000000000000014e+01,1.780141217161280986e-02
2.319999999999999929e+01,2.508147420997296900e-02
2.323999999999999844e+01,3.917570026530726307e-02
2.328000000000000114e+01,3.151806228659935483e-02
2.332000000000000028e+01,1.914334382048923575e-02
2.335999999999999943e+01,4.241088147218802923e-02
2.339999999999999858e+01,4.811972598275012641e-02
2.344000000000000128e+01,5.015977734035658581e-02
2.348000000000000043e+01,3.516527802654325491e-02
2.351999999999999957e+01,5.476473073099939054e-02
2.355999999999999872e+01,2.928774957774942650e-02
2.360000000000000142e+01,4.233582010081631680e-02
2.364000000000000057e+01,1.764551361255485562e-02
2.367999999999999972e+01,3.174232764045525901e-02
2.371999999999999886e+01,4.531521530876642806e-02
2.376000000000000156e+01,2.324630781968227075e-02
2.380000000000000071e+01,3.105401024608633875e-02
2.383999999999999986e+01,2.837898119274105679e-02
2.387999999999999901e+01,5.924958808305959973e-02
2.392000000000000171e+01,3.298835258645980983e-02
2.396000000000000085e+01,1.039635443813662768e-02
2.400000000000000000e+01,3.209500387317262837e-02
2.403999999999999915e+01,3.413833280788740321e-02
2.407999999999999829e+01,4.063711279545381000e-02
2.412000000000000099e+01,3.743936542779277565e-02
2.416000000000000014e+01,2.559338282937744305e-02
2.419999999999999929e+01,3.392726189106914231e-02
2.423999999999999844e+01,3.728193175018226085e-02
2.428000000000000114e+01,3.618153727144680226e-02
2.432000000000000028e+01,1.516373189742569252e-02
2.435999999999999943e+01,3.529166899318577494e-02
2.439999999999999858e+01,2.397095068928385697e-02
2.444000000000000128e+01,4.016814131181385694e-02
2.448000000000000043e+01,2.019934640696704684e-02
2.451999999999999957e+01,3.744517994377449810e-02
2.455999999999999872e+01,3.896676629316226520e-02
2.460000000000000142e+01,2.083299861204341435e-02
2.464000000000000057e+01,4.148629396676851988e-02
2.467999999999999972e+01,6.030523733222822175e-02
2.471999999999999886e+01,3.326145649498302159e-02
2.476000000000000156e+01,6.570854826839736540e-02
2.480000000000000071e+01,3.368568332819747019e-02
2.483999999999999986e+01,2.393923076686525070e-02
2.487999999999999901e+01,1.366878239055943980e-02
2.492000000000000171e+01,4.428196932397763380e-02
2.496000000000000085e+01,3.296352213268498310e-02
2.500000000000000000e+01,2.190729283099387970e-02
2.503999999999999915e+01,4.046552556950877566e-02
2.507999999999999829e+01,4.592021628414749007e-02
2.512000000000000099e+01,4.089209887861309373e-02
2.516000000000000014e+01,2.878812814622271760e-02
2.519999999999999929e+01,3.109833934143305806e-02
2.523999999999999844e+01,2.502232427040319840e-02
2.528000000000000114e+01,6.690591096051066999e-02
2.532000000000000028e+01,3.540900638619798313e-02
2.535999999999999943e+01,4.846474159466559323e-02
2.539999999999999858e+01,3.636152864505826088e-02
2.544000000000000128e+01,4.941750207770723852e-02
2.548000000000000043e+01,1.634863217252816026e-02
2.551999999999999957e+01,3.438423321686603223e-02
2.555999999999999872e+01,2.935746556204866381e-02
2.560000000000000142e+01,2.773776343009303619e-02
2.564000000000000057e+01,3.214586072470184547e-02
2.567999999999999972e+01,4.179553416124710125e-02
2.571999999999999886e+01,5.039701422779738205e-02
2.576000000000000156e+01,2.754975746423546021e-02
2.580000000000000071e+01,4.532400969023427789e-02
2.583999999999999986e+01,2.798048947789230634e-02
2.587999999999999901e+01,3.029258307535773187e-02
2.592000000000000171e+01,3.679794392519371293e-02
2.596000000000000085e+01,1.211662959972295735e-02
2.600000000000000000e+01,2.727059139913183550e-02
2.603999999999999915e+01,1.307238864230844677e-02
2.607999999999999829e+01,3.556457366187956715e-02
2.612000000000000099e+01,4.495315438723004875e-02
2.616000000000000014e+01,3.966568664411744549e-02
2.619999999999999929e+01,4.853026732340298688e-02
2.623999999999999844e+01,1.520106360768247282e-02
2.628000000000000114e+01,3.874190519340203059e-02
2.632000000000000028e+01,3.843411168509985876e-02
2.635999999999999943e+01,6.302337584387796010e-02
2.639999999999999858e+01,3.572212172234813521e-02
2.644000000000000128e+01,4.563538108183649855e-02
2.648000000000000043e+01,3.405865843609463123e-02
2.651999999999999957e+01,2.903382978636871725e-02
2.655999999999999872e+01,5.309922490660214794e-02
2.660000000000000142e+01,6.589550240155735150e-02
2.664000000000000057e+01,7.345035336326750930e-02
2.667999999999999972e+01,4.221835077315646417e-02
2.671999999999999886e+01,3.247642710667556637e-02
2.676000000000000156e+01,5.365923064418894745e-02
2.680000000000000071e+01,2.373771284087665065e-02
2.683999999999999986e+01,5.121035406856226657e-02
2.687999999999999901e+01,2.731659553552422473e-02
2.692000000000000171e+01,3.696829092514327536e-02
2.696000000000000085e+01,3.377840535513521036e-02
2.700000000000000000e+01,4.395429941764568416e-02
2.703999999999999915e+01,4.076446047075938522e-02
2.707999999999999829e+01,2.918828508702337940e-02
2.712000000000000099e+01,4.748852083267587898e-02
2.716000000000000014e+01,3.722274585134011798e-02
2.719999999999999929e+01,3.036394059233611664e-02
2.723999999999999844e+01,5.705057009588312272e-02
2.728000000000000114e+01,3.787432211587746234e-02
2.732000000000000028e+01,4.123641165378956475e-02
2.735999999999999943e+01,3.201896991181383406e-02
2.739999999999999858e+01,3.564313659248088267e-02
2.744000000000000128e+01,5.263305656052049558e-02
2.748000000000000043e+01,5.049159731684309954e-02
2.751999999999999957e+01,3.550852358335297027e-02
2.755999999999999872e+01,2.445654527681888346e-02
2.760000000000000142e+01,3.725325587246770820e-02
2.764000000000000057e+01,3.170479856596109675e-02
2.767999999999999972e+01,1.908033704676384210e-02
2.771999999999999886e+01,3.030455724471008486e-02
2.776000000000000156e+01,4.126668281660054310e-02
2.780000000000000071e+01,2.366275934129068864e-02
2.783999999999999986e+01,3.331446758641491701e-02
2.787999999999999901e+01,5.816641818286734378e-02
2.792000000000000171e+01,2.798287593004948962e-02
2.796000000000000085e+01,3.999315511530635026e-02
2.800000000000000000e+01,2.684433046662739256e-02
2.803999999999999915e+01,4.828918719972085521e-02
2.807999999999999829e+01,4.011968360103478765e-02
2.812000000000000099e+01,4.112271449655085370e-02
2.816000000000000014e+01,3.636008058857545522e-02
2.819999999999999929e+01,1.744542332620437758e-02
2.823999999999999844e+01,3.128992006143826304e-02
2.828000000000000114e+01,5.247242630172017225e-02
2.832000000000000028e+01,3.460590716476625445e-02
2.835999999999999943e+01,2.486361363244835379e-02
2.839999999999999858e+01,4.657009636832477179e-02
2.844000000000000128e+01,3.761390269781599710e-02
2.848000000000000043e+01,1.817469972602117276e-02
2.851999999999999957e+01,4.748112540890553346e-02
2.855999999999999872e+01,2.935215518858364306e-02
2.860000000000000142e+01,5.132037904715194832e-02
2.864000000000000057e+01,4.812946075157226861e-02
2.867999999999999972e+01,4.546261363424689700e-02
2.871999999999999886e+01,4.017495174170358785e-02
2.876000000000000156e+01,4.012868157507641642e-02
2.880000000000000071e+01,2.881316205744266848e-02
2.883999999999999986e+01,4.134625719658116538e-02
2.887999999999999901e+01,4.077558278558517102e-02
2.892000000000000171e+01,4.990154222826961861e-02
2.896000000000000085e+01,3.753737117490213437e-02
2.900000000000000000e+01,5.216668875671329891e-02
2.903999999999999915e+01,4.818868098103369635e-02
2.907999999999999829e+01,4.840375125167815235e-02
2.912000000000000099e+01,4.704627731645825983e-02
2.916000000000000014e+01,3.153672254652488405e-02
2.919999999999999929e+01,4.616552799516287359e-02
2.923999999999999844e+01,4.297321700085856427e-02
2.928000000000000114e+01,4.109116214922451521e-02
2.932000000000000028e+01,5.074023261023951487e-02
2.935999999999999943e+01,3.260938150815222841e-02
2.939999999999999858e+01,4.252028961059717976e-02
2.944000000000000128e+01,7.759014459397391150e-02
2.948000000000000043e+01,6.286588591999532627e-02
2.951999999999999957e+01,9.243194431754774010e-02
2.955999999999999872e+01,9.605258458603267713e-02
2.960000000000000142e+01,1.054387135448988377e-01
2.964000000000000057e+01,1.420803664486032791e-01
2.967999999999999972e+01,1.713838217590831214e-01
2.971999999999999886e+01,2.198185136983555887e-01
2.976000000000000156e+01,2.719220957089833468e-01
2.980000000000000071e+01,2.896938890645737175e-01
2.983999999999999986e+01,3.394385197276243993e-01
2.987999999999999901e+01,3.338854665558840806e-01
2.992000000000000171e+01,3.144423606740501254e-01
2.996000000000000085e+01,2.630261192259697456e-01
3.000000000000000000e+01,2.000784829466135673e-01
3.003999999999999915e+01,1.636001257723482538e-01
3.007999999999999829e+01,1.297423449898461312e-01
3.012000000000000099e+01,1.409610662432910777e-01
3.016000000000000014e+01,1.322620269295164130e-01
3.019999999999999929e+01,1.031210773937657199e-01
3.023999999999999844e+01,1.193186963387936894e-01
3.028000000000000114e+01,9.148777358337650822e-02
3.032000000000000028e+01,1.171196970447308805e-01
3.035999999999999943e+01,1.393444866457092257e-01
3.039999999999999858e+01,1.471550475366918687e-01
3.044000000000000128e+01,1.793382745436601089e-01
3.048000000000000043e+01,2.416597851287757281e-01
3.051999999999999957e+01,3.024086676825635811e-01
3.055999999999999872e+01,4.011580379206198255e-01
3.060000000000000142e+01,5.289973900322972877e-01
3.064000000000000057e+01,6.086150008104648235e-01
3.067999999999999972e+01,6.376522051912648648e-01
3.071999999999999886e+01,6.108675281822528724e-01
3.076000000000000156e+01,4.467560684983516994e-01
3.080000000000000071e+01,3.751563971419294985e-01
3.083999999999999986e+01,2.983150477758711450e-01
3.087999999999999901e+01,2.406048655832211391e-01
3.092000000000000171e+01,2.038603635780672774e-01
3.096000000000000085e+01,1.817917722484781173e-01
3.100000000000000000e+01,1.602471131863748843e-01
3.103999999999999915e+01,1.465644456331486600e-01
3.107999999999999829e+01,1.554198904665951841e-01
3.112000000000000099e+01,1.553646097071106624e-01
3.116000000000000014e+01,1.825647618819608853e-01
3.119999999999999929e+01,1.767434097256677383e-01
3.123999999999999844e+01,1.604388830121743215e-01
3.128000000000000114e+01,1.797761382038667588e-01
3.132000000000000028e+01,1.763127534443678368e-01
3.135999999999999943e+01,1.890976971895306502e-01
3.139999999999999858e+01,1.963788557650004984e-01
3.144000000000000128e+01,2.141427181979307370e-01
3.148000000000000043e+01,2.691207923402101354e-01
3.151999999999999957e+01,2.960567419588001625e-01
3.155999999999999872e+01,3.180130440873873421e-01
3.160000000000000142e+01,3.771835507402837018e-01
3.164000000000000057e+01,4.172224291000850016e-01
3.167999999999999972e+01,4.719371750252127073e-01
3.171999999999999886e+01,5.431623015297546431e-01
3.176000000000000156e+01,5.942074980366754966e-01
3.180000000000000071e+01,6.717218682681042052e-01
3.183999999999999986e+01,6.855520811532020975e-01
3.187999999999999901e+01,7.554657831482707309e-01
3.192000000000000171e+01,7.926200113318287999e-01
3.196000000000000085e+01,8.696091587832929237e-01
3.200000000000000000e+01,9.306115399450020087e-01
3.203999999999999915e+01,1.000000000000000000e+00
3.207999999999999829e+01,9.200062113705790301e-01
3.211999999999999744e+01,7.571968736491082597e-01
3.215999999999999659e+01,5.687040357525811052e-01
3.220000000000000284e+01,4.774402276957573910e-01
3.224000000000000199e+01,4.032109163429190013e-01
3.228000000000000114e+01,3.336986386950877570e-01
3.232000000000000028e+01,2.851519574092890030e-01
3.235999999999999943e+01,2.326738752527087728e-01
3.239999999999999858e+01,2.103339617136400219e-01
3.243999999999999773e+01,2.042423120138754933e-01
3.247999999999999687e+01,1.821638672841966178e-01
3.252000000000000313e+01,1.784302706427681739e-01
3.256000000000000227e+01,1.636892731489590913e-01
3.260000000000000142e+01,1.405616087064721631e-01
3.264000000000000057e+01,1.197922937450291159e-01
3.267999999999999972e+01,1.244438052983160570e-01
3.271999999999999886e+01,1.112739920425083462e-01
3.275999999999999801e+01,1.253595159205053988e-01
3.279999999999999716e+01,1.069475869265723439e-01
3.284000000000000341e+01,1.055701187114257145e-01
3.288000000000000256e+01,1.172960044319783929e-01
3.292000000000000171e+01,1.143454369268292053e-01
3.296000000000000085e+01,1.244982185673528946e-01
3.300000000000000000e+01,1.039880507699811885e-01
3.303999999999999915e+01,9.867781636722879057e-02
3.307999999999999829e+01,1.140710591913854377e-01
3.311999999999999744e+01,1.247466347498941003e-01
3.315999999999999659e+01,1.176008591541622544e-01
3.320000000000000284e+01,1.382345416068326005e-01
3.324000000000000199e+01,1.441917516736950233e-01
3.328000000000000114e+01,1.779284149989332764e-01
3.332000000000000028e+01,1.838849196547576725e-01
3.335999999999999943e+01,1.877444789735704944e-01
3.339999999999999858e+01,1.779758508460086430e-01
3.343999999999999773e+01,1.396408359743785688e-01
3.347999999999999687e+01,1.264645260873421551e-01
3.352000000000000313e+01,1.083084513546536537e-01
3.356000000000000227e+01,1.064005734008983545e-01
3.360000000000000142e+01,1.060647665582541976e-01
3.364000000000000057e+01,1.235495934837463200e-01
3.367999999999999972e+01,1.077506939574020828e-01
3.371999999999999886e+01,1.362418600261979251e-01
3.375999999999999801e+01,1.120558462426334140e-01
3.379999999999999716e+01,1.599396980305705374e-01
3.384000000000000341e+01,1.365391374552383796e-01
3.388000000000000256e+01,1.440628777715422248e-01
3.392000000000000171e+01,1.654761306428157996e-01
3.396000000000000085e+01,1.960615683363572670e-01
3.400000000000000000e+01,1.878597141906532264e-01
3.403999999999999915e+01,1.972163962330812925e-01
3.407999999999999829e+01,1.950414391528821345e-01
3.411999999999999744e+01,2.188113696266795194e-01
3.415999999999999659e+01,2.352428342657685856e-01
3.420000000000000284e+01,2.765708871493413601e-01
3.424000000000000199e+01,2.861876218301217523e-01
3.428000000000000114e+01,3.005212704652471256e-01
3.432000000000000028e+01,3.130199899129145757e-01
3.435999999999999943e+01,3.506773616548841677e-01
3.439999999999999858e+01,3.513819330165767751e-01
3.443999999999999773e+01,3.402927700706515068e-01
3.447999999999999687e+01,3.449276015586115740e-01
3.452000000000000313e+01,3.107751100721538040e-01
3.456000000000000227e+01,3.177677503270986969e-01
3.460000000000000142e+01,2.862351364474708393e-01
3.464000000000000057e+01,2.966338704088338774e-01
3.467999999999999972e+01,2.698177135949557659e-01
3.471999999999999886e+01,2.330423211174680598e-01
3.475999999999999801e+01,2.358396066270872782e-01
3.479999999999999716e+01,2.082359085530866849e-01
3.484000000000000341e+01,2.000252141760543445e-01
3.488000000000000256e+01,1.933865142697093475e-01
3.492000000000000171e+01,1.697125787181555101e-01
3.496000000000000085e+01,1.470864855875193833e-01
3.500000000000000000e+01,1.378256930867521046e-01
3.503999999999999915e+01,1.448130087494277907e-01
3.507999999999999829e+01,1.491791288297790452e-01
3.511999999999999744e+01,1.351996331404975160e-01
3.515999999999999659e+01,1.510960671829418844e-01
3.520000000000000284e+01,1.384260091007349369e-01
3.524000000000000199e+01,1.485558879536944821e-01
3.528000000000000114e+01,1.322158589309490317e-01
3.532000000000000028e+01,1.258341541896358662e-01
3.535999999999999943e+01,1.244313723671816030e-01
3.539999999999999858e+01,1.573597576141905208e-01
3.543999999999999773e+01,1.459972185741735817e-01
3.547999999999999687e+01,1.566483812096289563e-01
3.552000000000000313e+01,1.665128373267152906e-01
3.556000000000000227e+01,1.910529286928428216e-01
3.560000000000000142e+01,1.741848961204790491e-01
3.564000000000000057e+01,2.002964460332614660e-01
3.567999999999999972e+01,2.114693038345560605e-01
3.571999999999999886e+01,2.150415287657542751e-01
3.575999999999999801e+01,2.411515858670750523e-01
3.579999999999999716e+01,2.358123049899586432e-01
3.584000000000000341e+01,2.640179439475449086e-01
3.588000000000000256e+01,3.265547212344354078e-01
3.592000000000000171e+01,3.476833554227285461e-01
3.596000000000000085e+01,3.874187053580044338e-01
3.600000000000000000e+01,4.143119330606592765e-01
3.603999999999999915e+01,4.427770857786172964e-01
3.607999999999999829e+01,4.827729590519851954e-01
3.611999999999999744e+01,5.251269734402442824e-01
3.615999999999999659e+01,5.703632738081247933e-01
3.620000000000000284e+01,6.171714896112554527e-01
3.624000000000000199e+01,6.202128804868383138e-01
3.628000000000000114e+01,6.353091272025082059e-01
3.632000000000000028e+01,6.283906554799455479e-01
3.635999999999999943e+01,6.099404081190007432e-01
3.639999999999999858e+01,5.880826652506795371e-01
3.643999999999999773e+01,5.389687241616544222e-01
3.647999999999999687e+01,5.150133084312293885e-01
3.652000000000000313e+01,4.580360698328989622e-01
3.656000000000000227e+01,4.188792901667379165e-01
3.660000000000000142e+01,3.739563403492897065e-01
3.664000000000000057e+01,3.371571203687356855e-01
3.667999999999999972e+01,2.935434309273819431e-01
3.671999999999999886e+01,2.638190863900704564e-01
3.675999999999999801e+01,2.466737162124302551e-01
3.679999999999999716e+01,2.200931330902348437e-01
3.684000000000000341e+01,1.956085743428205292e-01
3.688000000000000256e+01,1.839650563999092603e-01
3.692000000000000171e+01,1.626242446975314226e-01
3.696000000000000085e+01,1.627728987953924733e-01
3.700000000000000000e+01,1.576795060515773228e-01
3.703999999999999915e+01,1.321437935385207652e-01
3.707999999999999829e+01,1.370080430562972962e-01
3.711999999999999744e+01,1.080642128913550382e-01
3.715999999999999659e+01,1.150238861945226398e-01
3.720000000000000284e+01,9.394109488211990766e-02
3.724000000000000199e+01,1.016858142412676719e-01
3.728000000000000114e+01,1.049746908832613207e-01
3.732000000000000028e+01,7.838658031554369965e-02
3.735999999999999943e+01,6.883265989011561059e-02
3.739999999999999858e+01,7.421633817299091995e-02
3.743999999999999773e+01,8.326844668467835164e-02
3.747999999999999687e+01,8.183700701709896441e-02
3.752000000000000313e+01,6.022529246999074048e-02
3.756000000000000227e+01,6.062715505766580470e-02
3.760000000000000142e+01,7.544245711883500183e-02
3.764000000000000057e+01,4.570462953737817330e-02
3.767999999999999972e+01,4.479428628232620668e-02
3.771999999999999886e+01,5.174553456893886405e-02
3.775999999999999801e+01,5.633750043721115486e-02
3.779999999999999716e+01,3.472148117381541194e-02
3.784000000000000341e+01,2.437400345537523924e-02
3.788000000000000256e+01,3.839874638045673305e-02
3.792000000000000171e+01,2.857415965767473240e-02
3.796000000000000085e+01,4.574252508710376780e-02
3.800000000000000000e+01,5.242731120209363077e-02
3.803999999999999915e+01,3.080750877636341187e-02
3.807999999999999829e+01,4.325663932433725795e-02
3.811999999999999744e+01,2.923569195066549192e-02
3.815999999999999659e+01,2.333838340338434056e-02
3.820000000000000284e+01,3.080618388491219994e-02
3.824000000000000199e+01,3.041112698063733188e-02
3.828000000000000114e+01,3.263615549040996960e-02
3.832000000000000028e+01,2.778454271396817513e-02
3.835999999999999943e+01,2.843582049013487420e-02
3.839999999999999858e+01,9.955065215967676823e-03
3.843999999999999773e+01,1.820515972398094318e-02
3.847999999999999687e+01,1.780616158649721281e-02
3.852000000000000313e+01,4.518630296065374169e-02
3.856000000000000227e+01,3.010984864585229334e-02
3.860000000000000142e+01,3.940557186433401443e-02
3.864000000000000057e+01,2.930717403253074727e-02
3.867999999999999972e+01,2.707031026207424793e-02
3.871999999999999886e+01,1.749470762539923410e-02
3.875999999999999801e+01,1.551856063017288158e-02
3.879999999999999716e+01,2.821785488791477697e-02
3.884000000000000341e+01,2.990937227619623953e-02
3.888000000000000256e+01,1.928274225064603373e-02
3.892000000000000171e+01,3.355241785801626325e-02
3.896000000000000085e+01,1.663463991077416756e-02
3.900000000000000000e+01,1.413021761156244352e-02
3.903999999999999915e+01,3.888075642907563162e-02
3.907999999999999829e+01,1.960222664322902944e-02
3.911999999999999744e+01,3.465464119061364978e-02
3.915999999999999659e+01,2.716801999408212376e-02
3.920000000000000284e+01,2.439801816526598541e-02
3.924000000000000199e+01,1.088228914672856318e-02
3.928000000000000114e+01,2.645602228393770933e-02
3.932000000000000028e+01,3.757379055831703424e-02
3.935999999999999943e+01,3.453886726960465892e-02
3.939999999999999858e+01,1.682710276304413485e-02
3.943999999999999773e+01,2.532198090358971435e-02
3.947999999999999687e+01,1.625720310767322929e-02
3.952000000000000313e+01,2.815759057140462818e-02
3.956000000000000227e+01,3.104868698150021946e-03
3.960000000000000142e+01,1.421757782706881308e-02
3.964000000000000057e+01,7.508547809600999920e-03
3.967999999999999972e+01,7.874771088533977920e-03
3.971999999999999886e+01,1.741283430782710265e-02
3.975999999999999801e+01,1.594306557235515912e-02
3.979999999999999716e+01,1.158974501312407153e-02
3.984000000000000341e+01,1.404959454036911783e-02
3.988000000000000256e+01,2.541920079804982704e-02
3.992000000000000171e+01,1.818083025463644586e-02
3.996000000000000085e+01,2.483161061919229168e-02
4.000000000000000000e+01,1.706758747057293343e-02
4.003999999999999915e+01,2.083404777105211589e-02
4.007999999999999829e+01,1.254436243717391153e-02
4.011999999999999744e+01,3.229579444427754797e-02
4.015999999999999659e+01,1.640444933855453313e-02
4.020000000000000284e+01,1.230565173174863296e-02
4.024000000000000199e+01,8.468159514496770984e-03
4.028000000000000114e+01,1.196795829831864659e-02
4.032000000000000028e+01,5.770259746547787803e-03
4.035999999999999943e+01,1.817901349030235855e-02
4.039999999999999858e+01,2.665588496561260151e-02
4.043999999999999773e+01,1.809719028388609777e-02
4.047999999999999687e+01,7.441123952789789782e-03
4.052000000000000313e+01,1.801223663588184809e-02
4.056000000000000227e+01,2.438938384060497511e-02
4.060000000000000142e+01,6.392893671833952372e-03
4.064000000000000057e+01,9.885648962082910218e-03
4.067999999999999972e+01,2.255018671237421848e-02
4.071999999999999886e+01,3.468978022244593312e-02
4.075999999999999801e+01,2.429024218807147514e-02
4.079999999999999716e+01,0.000000000000000000e+00
4.084000000000000341e+01,1.528207175702178851e-02
4.088000000000000256e+01,1.274233012224630125e-02
4.092000000000000171e+01,1.675362027871770548e-02
4.096000000000000085e+01,2.364690901322063707e-02
4.100000000000000000e+01,2.320132236574997536e-02
4.103999999999999915e+01,1.436856342180610480e-02
4.107999999999999829e+01,5.534985942266511423e-03
4.111999999999999744e+01,1.583196251274380725e-02
4.115999999999999659e+01,2.481774760824098647e-02
4.120000000000000284e+01,2.489220356746873683e-02
4.124000000000000199e+01,1.684154888502863504e-02
4.128000000000000114e+01,3.024443834751702580e-03
4.132000000000000028e+01,2.301400413223423855e-02
4.135999999999999943e+01,2.387135414840246134e-02
4.139999999999999858e+01,2.498994009874072261e-02
4.143999999999999773e+01,2.401109691939126711e-02
4.147999999999999687e+01,2.539007392315798667e-02
4.152000000000000313e+01,1.418867181234709750e-02
4.156000000000000227e+01,1.530388302974611606e-02
4.160000000000000142e+01,1.903898087509304365e-02
4.164000000000000057e+01,1.700760679748389639e-02
4.167999999999999972e+01,2.519624982407231081e-02
4.171999999999999886e+01,1.425266101422717306e-02
4.175999999999999801e+01,2.322580882380171144e-02
4.179999999999999716e+01,8.611468299099320559e-03
4.184000000000000341e+01,1.129312330507419200e-02
4.188000000000000256e+01,2.576722521940982835e-02
4.192000000000000171e+01,1.875042065340151373e-02
4.196000000000000085e+01,2.011910101739675799e-02
4.200000000000000000e+01,3.773547281253004926e-02
4.203999999999999915e+01,1.813651314998433392e-02
4.207999999999999829e+01,1.766805005713758744e-02
4.211999999999999744e+01,3.397141847013217947e-02
4.215999999999999659e+01,2.301824617552850755e-02
4.220000000000000284e+01,1.494699821354556965e-02
4.224000000000000199e+01,3.992052331995312592e-03
4.228000000000000114e+01,2.658164068801504784e-02
4.232000000000000028e+01,3.082518217201729235e-02
4.235999999999999943e+01,2.484695691500802758e-02
4.239999999999999858e+01,2.804041113247143086e-02
4.243999999999999773e+01,1.094497948656330839e-03
4.247999999999999687e+01,1.922434674169470545e-02
4.252000000000000313e+01,2.267716750585158786e-02
4.256000000000000227e+01,1.171503147598538207e-02
4.260000000000000142e+01,6.255532127323431592e-03
4.264000000000000057e+01,4.726225285622882681e-03
4.267999999999999972e+01,1.970664278970660557e-02
4.271999999999999886e+01,2.446527199765963223e-02
4.275999999999999801e+01,6.946723540375776378e-03
4.279999999999999716e+01,1.668291106857149389e-02
4.284000000000000341e+01,2.274914386238649153e-02
4.288000000000000256e+01,2.462127226706414818e-02
4.292000000000000171e+01,2.518210381617884408e-02
4.296000000000000085e+01,2.102467892638665292e-02
4.300000000000000000e+01,3.023207566381372335e-02
4.303999999999999915e+01,3.681780021128015778e-02
4.307999999999999829e+01,2.322291697237631805e-02
4.311999999999999744e+01,2.142040639642262684e-02
4.315999999999999659e+01,3.403100238712149922e-02
4.320000000000000284e+01,2.331609984795140339e-02
4.324000000000000199e+01,3.330406620232556625e-02
4.328000000000000114e+01,3.752546243820052696e-02
4.332000000000000028e+01,2.078001562801093730e-02
4.335999999999999943e+01,3.207549216273037490e-02
4.339999999999999858e+01,4.153549584198455019e-02
4.343999999999999773e+01,4.470477256294335539e-02
4.347999999999999687e+01,3.241074288508808549e-02
4.352000000000000313e+01,4.317822800452845305e-02
4.356000000000000227e+01,4.660668446114751839e-02
4.360000000000000142e+01,4.269610985993177454e-02
4.364000000000000057e+01,4.402603603970420276e-02
4.367999999999999972e+01,4.509291437814829523e-02
4.371999999999999886e+01,4.904162603870976939e-02
4.375999999999999801e+01,7.264488093815692216e-02
4.379999999999999716e+01,8.759872465534510044e-02
4.384000000000000341e+01,1.261382112694663660e-01
4.388000000000000256e+01,2.448712424377698649e-01
4.392000000000000171e+01,3.177403997970095761e-01
4.396000000000000085e+01,2.095156879384337256e-01
4.400000000000000000e+01,1.720498627736233299e-01
4.403999999999999915e+01,2.056049955374367744e-01
4.407999999999999829e+01,1.298744264832094597e-01
4.411999999999999744e+01,9.633671128170512299e-02
4.415999999999999659e+01,6.358421401819967789e-02
4.420000000000000284e+01,5.834844254458175505e-02
4.424000000000000199e+01,7.198096468007576798e-02
4.428000000000000114e+01,5.416364109432393603e-02
4.432000000000000028e+01,3.949018853536241658e-02
4.435999999999999943e+01,4.709197958880365770e-02
4.439999999999999858e+01,5.443067969067807987e-02
4.443999999999999773e+01,4.394735324457615250e-02
4.447999999999999687e+01,5.573926322583726972e-02
4.452000000000000313e+01,4.918499460935236989e-02
4.456000000000000227e+01,4.394006724047717916e-02
4.460000000000000142e+01,5.022535028919026395e-02
4.464000000000000057e+01,6.568217869163414657e-02
4.467999999999999972e+01,6.829636514358232435e-02
4.471999999999999886e+01,1.044549397372921823e-01
4.475999999999999801e+01,1.117843761683131598e-01
4.479999999999999716e+01,1.505616069120967737e-01
4.484000000000000341e+01,1.783307015344326729e-01
4.488000000000000256e+01,2.514374880626988329e-01
4.492000000000000171e+01,3.334537295497314591e-01
4.496000000000000085e+01,2.650386566385928844e-01
4.500000000000000000e+01,2.340990595521972029e-01
4.503999999999999915e+01,2.403728622656595149e-01
4.507999999999999829e+01,1.787685368054605095e-01
4.511999999999999744e+01,1.226666971406311507e-01
4.515999999999999659e+01,1.050886182399779767e-01
4.520000000000000284e+01,8.593703233813509978e-02
4.524000000000000199e+01,9.299174180647731824e-02
4.528000000000000114e+01,6.387922034055398823e-02
4.532000000000000028e+01,5.075211788979744343e-02
4.535999999999999943e+01,4.836895946176272831e-02
4.539999999999999858e+01,4.729509198605951620e-02
4.543999999999999773e+01,3.599927335332467337e-02
4.547999999999999687e+01,6.689622714286232175e-02
4.552000000000000313e+01,4.354285516691545205e-02
4.556000000000000227e+01,3.460244605682636504e-02
4.560000000000000142e+01,4.269573371629770131e-02
4.564000000000000057e+01,3.925669009431330403e-02
4.567999999999999972e+01,4.341668777648573230e-02
4.571999999999999886e+01,2.765799323128517034e-02
4.575999999999999801e+01,5.671279064198014169e-02
4.579999999999999716e+01,3.780701263901591752e-02
4.584000000000000341e+01,3.567284340566102829e-02
4.588000000000000256e+01,4.297221891049789189e-02
4.592000000000000171e+01,2.668385939469332738e-02
4.596000000000000085e+01,4.210529836613871590e-02
4.600000000000000000e+01,3.341485026717303658e-02
4.603999999999999915e+01,3.756489451467666385e-02
4.607999999999999829e+01,4.852773522658988814e-02
4.611999999999999744e+01,4.455125872855777297e-02
4.615999999999999659e+01,4.607720575555082632e-02
4.620000000000000284e+01,3.082931537347097933e-02
4.624000000000000199e+01,4.309802863560294184e-02
4.628000000000000114e+01,5.457939112080236604e-02
4.632000000000000028e+01,4.456958367420054551e-02
4.635999999999999943e+01,3.639315695935538275e-02
4.639999999999999858e+01,4.289171644496140440e-02
4.643999999999999773e+01,3.838204400858999388e-02
4.647999999999999687e+01,4.802320572290005168e-02
4.652000000000000313e+01,4.822857250443564336e-02
4.656000000000000227e+01,5.472255975047862070e-02
4.660000000000000142e+01,4.968415823474800486e-02
4.664000000000000057e+01,4.018935356876326970e-02
4.667999999999999972e+01,5.139721182518342674e-02
4.671999999999999886e+01,4.556912790748688519e-02
4.675999999999999801e+01,3.947781173244189340e-02
4.679999999999999716e+01,5.330293040514735153e-02
4.684000000000000341e+01,4.065744904331920068e-02
4.688000000000000256e+01,6.077000560292277614e-02
4.692000000000000171e+01,4.681182207169021225e-02
4.696000000000000085e+01,7.268765967839567466e-02
4.700000000000000000e+01,6.396860514449538571e-02
4.703999999999999915e+01,6.599339404276055587e-02
4.707999999999999829e+01,6.906529967292919514e-02
4.711999999999999744e+01,7.030150971140067262e-02
4.715999999999999659e+01,6.891580087354683137e-02
4.720000000000000284e+01,6.936342247217161527e-02
4.724000000000000199e+01,6.640289951482990227e-02
4.728000000000000114e+01,7.733108917803316329e-02
4.732000000000000028e+01,8.327868771601397435e-02
4.735999999999999943e+01,1.012804786754120806e-01
4.739999999999999858e+01,9.150126792073330628e-02
4.743999999999999773e+01,9.403831842731695534e-02
4.747999999999999687e+01,9.028440007926720468e-02
4.752000000000000313e+01,9.989503272193978045e-02
4.756000000000000227e+01,8.093843318086771377e-02
4.760000000000000142e+01,1.015537428276500065e-01
4.764000000000000057e+01,9.281559461104629816e-02
4.767999999999999972e+01,1.115939638181776411e-01
4.771999999999999886e+01,9.734983955369425068e-02
4.775999999999999801e+01,9.568403102023896600e-02
4.779999999999999716e+01,9.165833892011815420e-02
4.784000000000000341e+01,9.182460160510809433e-02
4.788000000000000256e+01,9.618281668019565411e-02
4.792000000000000171e+01,1.005398036724221150e-01
4.796000000000000085e+01,1.014886029984436583e-01
4.800000000000000000e+01,7.832539550339176482e-02
4.803999999999999915e+01,7.271988594183531607e-02
4.807999999999999829e+01,6.632691782775004818e-02
4.811999999999999744e+01,8.640214627276776582e-02
4.815999999999999659e+01,6.375813059577629949e-02
4.820000000000000284e+01,6.260290772030117912e-02
4.824000000000000199e+01,7.035694101749292995e-02
4.828000000000000114e+01,6.159908599479445301e-02
4.832000000000000028e+01,5.205375804948773888e-02
4.835999999999999943e+01,5.613500442949664881e-02
4.839999999999999858e+01,5.733218405789817368e-02
4.843999999999999773e+01,5.250041098121990824e-02
4.847999999999999687e+01,3.534991568753053509e-02
4.852000000000000313e+01,6.327482072369428057e-02
4.856000000000000227e+01,4.323898509028471088e-02
4.860000000000000142e+01,4.207118200954307330e-02
4.864000000000000057e+01,4.247454951493144504e-02
4.867999999999999972e+01,3.920761261400482894e-02
4.871999999999999886e+01,4.039465143776922035e-02
4.875999999999999801e+01,4.655981085095446670e-02
4.879999999999999716e+01,4.355111244548168226e-02
4.884000000000000341e+01,4.761711887837601770e-02
4.888000000000000256e+01,4.748866167014589856e-02
4.892000000000000171e+01,4.500025383487930158e-02
4.896000000000000085e+01,2.966894778269950003e-02
4.900000000000000000e+01,2.953661951485292425e-02
4.903999999999999915e+01,3.883764677915151758e-02
4.907999999999999829e+01,3.529576864149711057e-02
4.911999999999999744e+01,3.856650494724547795e-02
4.915999999999999659e+01,2.768396291165645118e-02
4.920000000000000284e+01,4.143503736071152410e-02
4.924000000000000199e+01,4.024660778878801082e-02
4.928000000000000114e+01,4.298797315162675159e-02
4.932000000000000028e+01,3.734167045025006682e-02
4.935999999999999943e+01,3.981833597155455540e-02
4.939999999999999858e+01,3.705221219707610647e-02
4.943999999999999773e+01,2.851914947205829234e-02
4.947999999999999687e+01,3.256429949249888683e-02
4.952000000000000313e+01,5.390498520107325081e-02
4.956000000000000227e+01,3.305049022191798580e-02
4.960000000000000142e+01,4.862290112149577487e-02
4.964000000000000057e+01,4.349016419278757539e-02
4.967999999999999972e+01,3.180425305384568940e-02
4.971999999999999886e+01,4.553814815399054305e-02
4.975999999999999801e+01,3.411163653299265075e-02
4.979999999999999716e+01,3.211843493888812823e-02
4.984000000000000341e+01,3.195840571038781330e-02
4.988000000000000256e+01,4.201790260836912871e-02
4.992000000000000171e+01,4.159310647796360394e-02
4.996000000000000085e+01,4.798087449568263357e-02
5.000000000000000000e+01,5.148447996126426229e-02
5.003999999999999915e+01,4.843488966149304964e-02
5.007999999999999829e+01,3.280440771430925828e-02
5.011999999999999744e+01,5.307665325094314268e-02
5.015999999999999659e+01,4.897468900591656765e-02
5.020000000000000284e+01,4.434721290253058890e-02
5.024000000000000199e+01,3.159408727949609974e-02
5.028000000000000114e+01,4.740561792382179396e-02
5.032000000000000028e+01,3.491182475836028531e-02
5.035999999999999943e+01,5.386549299881997210e-02
5.039999999999999858e+01,4.530005352908066107e-02
5.043999999999999773e+01,5.665083096088625869e-02
5.047999999999999687e+01,6.747607976923976347e-02
5.052000000000000313e+01,7.332054585131102253e-02
5.056000000000000227e+01,7.130141688349925233e-02
5.060000000000000142e+01,8.369494900987609065e-02
5.064000000000000057e+01,7.852815699109473579e-02
5.067999999999999972e+01,6.654605725687699758e-02
5.071999999999999886e+01,6.923868506167975279e-02
5.075999999999999801e+01,6.275733769217532731e-02
5.079999999999999716e+01,6.544716684436149845e-02
5.084000000000000341e+01,5.057665987632328775e-02
5.088000000000000256e+01,5.169123901661042825e-02
5.092000000000000171e+01,4.834915874022599480e-02
5.096000000000000085e+01,4.526774198984525460e-02
5.100000000000000000e+01,4.795053259775825666e-02
5.103999999999999915e+01,3.857652133768396663e-02
5.107999999999999829e+01,2.710450374972939169e-02
5.111999999999999744e+01,4.498331302347152727e-02
5.115999999999999659e+01,3.010149648433133734e-02
5.120000000000000284e+01,3.251511504276842490e-02
5.124000000000000199e+01,3.623767488160283684e-02
5.128000000000000114e+01,4.048295271620656194e-02
5.132000000000000028e+01,3.765081088529038250e-02
5.135999999999999943e+01,5.158994731215534729e-02
5.139999999999999858e+01,3.040978088721417449e-02
5.143999999999999773e+01,2.966991874822980796e-02
5.147999999999999687e+01,4.963243213006073018e-02
5.152000000000000313e+01,3.526185636466051126e-02
5.156000000000000227e+01,4.316609310927842919e-02
5.160000000000000142e+01,2.905469652060338123e-02
5.164000000000000057e+01,4.350787476883807847e-02
5.167999999999999972e+01,4.642836008861663671e-02
5.171999999999999886e+01,3.205053022775100624e-02
5.175999999999999801e+01,5.016837246682912671e-02
5.179999999999999716e+01,4.758093754690592009e-02
5.184000000000000341e+01,4.604033435230975302e-02
5.188000000000000256e+01,4.921559130622950307e-02
5.192000000000000171e+01,2.854068035764912095e-02
5.196000000000000085e+01,2.987848433908288706e-02
5.200000000000000000e+01,4.510471832949840970e-02
5.203999999999999915e+01,4.539128064800793810e-02
5.207999999999999829e+01,4.462807128279228097e-02
5.211999999999999744e+01,3.495287894269073770e-02
5.215999999999999659e+01,4.047647518087581220e-02
5.220000000000000284e+01,3.079831653723032539e-02
5.224000000000000199e+01,3.474649990261557964e-02
5.228000000000000114e+01,3.318964790139244947e-02
5.232000000000000028e+01,4.132802867109966471e-02
5.235999999999999943e+01,3.871989668674029328e-02
5.239999999999999858e+01,2.877220674163177838e-02
5.243999999999999773e+01,4.005098209676366539e-02
5.247999999999999687e+01,3.403139676599954699e-02
5.252000000000000313e+01,2.879652881546568982e-02
5.256000000000000227e+01,2.434637585014876038e-02
5.260000000000000142e+01,3.168802792964219711e-02
5.264000000000000057e+01,2.094508885357194289e-02
5.267999999999999972e+01,2.854579077907516346e-02
5.271999999999999886e+01,3.300009366166855446e-02
5.275999999999999801e+01,3.876324681415584811e-02
5.279999999999999716e+01,3.011083004922870260e-02
5.284000000000000341e+01,3.141568854993125048e-02
5.288000000000000256e+01,3.036035931728574971e-02
5.292000000000000171e+01,2.982764988486645910e-02
5.296000000000000085e+01,3.034170511740318793e-02
5.300000000000000000e+01,3.740606884718606501e-02
5.303999999999999915e+01,2.612374384140119660e-02
5.307999999999999829e+01,3.187466773769937617e-02
5.311999999999999744e+01,5.020358643325045084e-02
5.315999999999999659e+01,3.629590682499999471e-02
5.320000000000000284e+01,1.740728402457959734e-02
5.324000000000000199e+01,2.865558203976854845e-02
5.328000000000000114e+01,3.990233104032134964e-02
5.332000000000000028e+01,2.572638653368079092e-02
5.335999999999999943e+01,3.356307313159069550e-02
5.339999999999999858e+01,3.484636278303494122e-02
5.343999999999999773e+01,3.298321028133097826e-02
5.347999999999999687e+01,4.081522109517318753e-02
5.352000000000000313e+01,4.445249044635427027e-02
5.356000000000000227e+01,3.760524882294296461e-02
5.360000000000000142e+01,3.180473354427573729e-02
5.364000000000000057e+01,3.700974015045965099e-02
5.367999999999999972e+01,3.775792208405792660e-02
5.371999999999999886e+01,2.933195161236869936e-02
5.375999999999999801e+01,2.981490680151821504e-02
5.379999999999999716e+01,3.711019621752044417e-02
5.384000000000000341e+01,4.073487227049880921e-02
5.388000000000000256e+01,3.570953359787983061e-02
5.392000000000000171e+01,3.094468122028420226e-02
5.396000000000000085e+01,4.164058327525079622e-02
5.400000000000000000e+01,3.661047541304745384e-02
5.403999999999999915e+01,3.472365658941519578e-02
5.407999999999999829e+01,3.755256618857026607e-02
5.411999999999999744e+01,3.592462476999398746e-02
5.415999999999999659e+01,4.006070150366486393e-02
5.420000000000000284e+01,4.288480598803690036e-02
5.424000000000000199e+01,3.207947522413232000e-02
5.428000000000000114e+01,3.044511261576569525e-02
5.432000000000000028e+01,3.850586302766714764e-02
5.435999999999999943e+01,4.525463161021677644e-02
5.439999999999999858e+01,4.309128070212518702e-02
5.443999999999999773e+01,3.332617605773723762e-02
5.447999999999999687e+01,3.692520567176644369e-02
5.452000000000000313e+01,3.659150757767503509e-02
5.456000000000000227e+01,3.966314101685401022e-02
5.460000000000000142e+01,5.033328167223555943e-02
5.464000000000000057e+01,3.977382786293200134e-02
5.467999999999999972e+01,4.362679085646577193e-02
5.471999999999999886e+01,4.538152957591368164e-02
5.475999999999999801e+01,3.088606561319682392e-02
5.479999999999999716e+01,4.049973557352624931e-02
5.484000000000000341e+01,4.382199599678469892e-02
5.488000000000000256e+01,4.399772804641798041e-02
5.492000000000000171e+01,3.788204576895377179e-02
5.496000000000000085e+01,5.587548783448282458e-02
5.500000000000000000e+01,4.713576765290417719e-02
5.503999999999999915e+01,5.333258997878687069e-02
5.507999999999999829e+01,4.983103120918842832e-02
5.511999999999999744e+01,4.947269681280339060e-02
5.515999999999999659e+01,5.435417343359125880e-02
5.520000000000000284e+01,6.683412134538291305e-02
5.524000000000000199e+01,6.437420598420878770e-02
5.528000000000000114e+01,7.265764068247110297e-02
5.532000000000000028e+01,1.110778716556539009e-01
5.535999999999999943e+01,9.419889317060689549e-02
5.539999999999999858e+01,8.229763770278164525e-02
5.543999999999999773e+01,8.376045901305571861e-02
5.547999999999999687e+01,9.439417662847041091e-02
5.552000000000000313e+01,8.720520427723914281e-02
5.556000000000000227e+01,5.721414059678854580e-02
5.560000000000000142e+01,6.548413895218484215e-02
5.564000000000000057e+01,6.536609083127255249e-02
5.567999999999999972e+01,5.502547842993738697e-02
5.571999999999999886e+01,6.617320856762783088e-02
5.575999999999999801e+01,6.788459052448356235e-02
5.579999999999999716e+01,5.780095923664712448e-02
5.584000000000000341e+01,6.396419070536490947e-02
5.588000000000000256e+01,5.702203599000602724e-02
5.592000000000000171e+01,7.838212621526782775e-02
5.596000000000000085e+01,6.619508233644282036e-02
5.600000000000000000e+01,6.370305088732937382e-02
5.603999999999999915e+01,7.640957570021759959e-02
5.607999999999999829e+01,7.522448146434820848e-02
5.611999999999999744e+01,6.617545927175437492e-02
5.615999999999999659e+01,9.040806661726188964e-02
5.620000000000000284e+01,7.873486281975883294e-02
5.624000000000000199e+01,8.357057145854909774e-02
5.628000000000000114e+01,9.626676035285712529e-02
5.632000000000000028e+01,1.126302490297242109e-01
5.635999999999999943e+01,1.143158810031262851e-01
5.639999999999999858e+01,1.283172377548232601e-01
5.643999999999999773e+01,1.323580583507171227e-01
5.647999999999999687e+01,1.458317890062921784e-01
5.652000000000000313e+01,1.490829050861658678e-01
5.656000000000000227e+01,1.764430497085030525e-01
5.660000000000000142e+01,1.825734825105058967e-01
5.664000000000000057e+01,1.936815640843198849e-01
5.667999999999999972e+01,2.021671567686557092e-01
5.671999999999999886e+01,1.744848335449371013e-01
5.675999999999999801e+01,1.774633676354052114e-01
5.679999999999999716e+01,1.652398714175193906e-01
5.684000000000000341e+01,1.624492637041952681e-01
5.688000000000000256e+01,1.601810386847858647e-01
5.692000000000000171e+01,1.434969970615973811e-01
5.696000000000000085e+01,1.409631620956195153e-01
5.700000000000000000e+01,1.247997266254509685e-01
5.703999999999999915e+01,1.099448851587587483e-01
5.707999999999999829e+01,1.254888082162757268e-01
5.711999999999999744e+01,1.069613804545784946e-01
5.715999999999999659e+01,1.073014727127143131e-01
5.720000000000000284e+01,1.042328240565848912e-01
5.724000000000000199e+01,9.382432764310329187e-02
5.728000000000000114e+01,9.022795709032196965e-02
5.732000000000000028e+01,9.763688808117294837e-02
5.735999999999999943e+01,9.770596412963200583e-02
5.739999999999999858e+01,1.090424105615685202e-01
5.743999999999999773e+01,9.443176954020400526e-02
5.747999999999999687e+01,9.606789307985057202e-02
5.752000000000000313e+01,8.826756305807956227e-02
5.756000000000000227e+01,7.496188152795145443e-02
5.760000000000000142e+01,7.370977929584932031e-02
5.764000000000000057e+01,5.227619749255488918e-02
5.767999999999999972e+01,6.491037510647312825e-02
5.771999999999999886e+01,5.081122761238281160e-02
5.775999999999999801e+01,6.370384673894585736e-02
5.779999999999999716e+01,4.278714796094111594e-02
5.784000000000000341e+01,3.864133944857133657e-02
5.788000000000000256e+01,4.445250443016211805e-02
5.792000000000000171e+01,4.475829634827669518e-02
5.796000000000000085e+01,5.371068882096732139e-02
5.800000000000000000e+01,4.798512639464962842e-02
5.803999999999999915e+01,4.251980357699083196e-02
5.807999999999999829e+01,2.892836181708690474e-02
5.811999999999999744e+01,3.577682437592753784e-02
5.815999999999999659e+01,3.633367861159753770e-02
5.820000000000000284e+01,4.684748718112214522e-02
5.824000000000000199e+01,3.036586587759442651e-02
5.828000000000000114e+01,3.642072835173087997e-02
5.832000000000000028e+01,3.408738388367116984e-02
5.835999999999999943e+01,3.489706979275175591e-02
5.839999999999999858e+01,3.203586930729817456e-02
5.843999999999999773e+01,2.838658996088462907e-02
5.847999999999999687e+01,3.836327900143518543e-02
5.852000000000000313e+01,3.785516008575053049e-02
5.856000000000000227e+01,2.843467259804706090e-02
5.860000000000000142e+01,2.897111549406571063e-02
5.864000000000000057e+01,3.631960282033407789e-02
5.867999999999999972e+01,2.322447467519406575e-02
5.871999999999999886e+01,2.690018410539767382e-02
5.875999999999999801e+01,2.113936572877294501e-02
5.879999999999999716e+01,2.245265583221665515e-02
5.884000000000000341e+01,3.844018728699147291e-02
5.888000000000000256e+01,3.057713410696110551e-02
5.892000000000000171e+01,2.559500414401394419e-02
5.896000000000000085e+01,9.603892619942747469e-03
5.900000000000000000e+01,2.217691525034383784e-02
5.903999999999999915e+01,3.265145494522830871e-02
5.907999999999999829e+01,1.639258810165376834e-02
5.911999999999999744e+01,1.402172495470299998e-02
5.915999999999999659e+01,2.711130488859206725e-02
5.920000000000000284e+01,3.574372963806725367e-02
5.924000000000000199e+01,2.471872627556342267e-02
5.928000000000000114e+01,2.705756976988702572e-02
5.932000000000000028e+01,2.677376630385808545e-02
5.935999999999999943e+01,2.098450355387598831e-02
5.939999999999999858e+01,2.279346061850677507e-02
5.943999999999999773e+01,3.351100325209505071e-02
5.947999999999999687e+01,2.509525066336788096e-02
5.952000000000000313e+01,2.873296241203085466e-02
5.956000000000000227e+01,1.926506763539832107e-02
5.960000000000000142e+01,2.892662041266230027e-02
5.964000000000000057e+01,2.076523653691572310e-02
5.967999999999999972e+01,2.203657111979038033e-02
5.971999999999999886e+01,1.334717315577561153e-02
5.975999999999999801e+01,1.775951967855776692e-02
5.979999999999999716e+01,3.265287199440784771e-02
5.984000000000000341e+01,1.792996233795970257e-02
5.988000000000000256e+01,3.072283962620607489e-02
5.992000000000000171e+01,2.516861623660608324e-02
5.996000000000000085e+01,8.081204150807607539e-03
