2.003999999999999915e+01,6.363372009445247834e-02
2.007999999999999829e+01,5.260219223543490669e-02
2.012000000000000099e+01,4.235774018069374258e-02
2.016000000000000014e+01,6.516614061865282082e-02
2.019999999999999929e+01,4.337966465010337919e-02
2.023999999999999844e+01,3.785733982039632406e-02
2.028000000000000114e+01,4.125410906203116901e-02
2.032000000000000028e+01,5.120905995229219770e-02
2.035999999999999943e+01,2.653741651960997774e-02
2.039999999999999858e+01,4.593619766961988538e-02
2.044000000000000128e+01,5.326819349639673462e-02
2.048000000000000043e+01,6.610907015636603712e-02
2.051999999999999957e+01,4.406102188502988154e-02
2.055999999999999872e+01,2.621023383209826821e-02
2.060000000000000142e+01,7.944917179713596733e-02
2.064000000000000057e+01,5.582743504922467459e-02
2.067999999999999972e+01,5.607720829199834556e-02
2.071999999999999886e+01,6.314746857074225728e-02
2.076000000000000156e+01,5.552769509067135428e-02
2.080000000000000071e+01,5.813860927421093949e-02
2.083999999999999986e+01,5.970030301850364624e-02
2.087999999999999901e+01,3.476740449340718492e-02
2.092000000000000171e+01,3.895247319712999423e-02
2.096000000000000085e+01,4.077669904531639605e-02
2.100000000000000000e+01,2.345138248560910479e-02
2.103999999999999915e+01,3.262079372664630772e-02
2.107999999999999829e+01,3.628147587935754564e-02
2.112000000000000099e+01,4.413939302945517340e-02
2.116000000000000014e+01,2.943755633501142846e-02
2.119999999999999929e+01,6.038004860737677254e-02
2.123999999999999844e+01,4.698994103655694532e-02
2.128000000000000114e+01,5.799596323861670732e-02
2.132000000000000028e+01,6.428021575041445446e-02
2.135999999999999943e+01,4.144662035123603677e-02
2.139999999999999858e+01,5.927320026657516977e-02
2.144000000000000128e+01,6.818083064943425420e-02
2.148000000000000043e+01,3.800231842724269976e-02
2.151999999999999957e+01,6.028852922113524943e-02
2.155999999999999872e+01,3.142171729854701528e-02
2.160000000000000142e+01,4.846153973011251004e-02
2.164000000000000057e+01,2.693985915533633063e-02
2.167999999999999972e+01,5.762057098828203550e-02
2.171999999999999886e+01,2.639299340209958974e-02
2.176000000000000156e+01,2.979213666270931829e-02
2.180000000000000071e+01,5.365253524132523877e-02
2.183999999999999986e+01,3.527889417309342662e-02
2.187999999999999901e+01,4.864641112122132516e-02
2.192000000000000171e+01,3.079746771849826634e-02
2.196000000000000085e+01,4.416503192441806336e-02
2.200000000000000000e+01,4.992523838862546193e-02
2.203999999999999915e+01,4.597949809076185695e-02
2.207999999999999829e+01,5.646156224618150560e-02
2.212000000000000099e+01,3.415321662910100059e-02
2.216000000000000014e+01,2.050155701044454465e-02
2.219999999999999929e+01,1.970375602642448001e-02
2.223999999999999844e+01,4.251507137218177301e-02
2.228000000000000114e+01,4.119264201721892921e-02
2.232000000000000028e+01,4.721527444288896314e-02
2.235999999999999943e+01,3.461295001433597335e-02
2.239999999999999858e+01,2.568315613041364381e-02
2.244000000000000128e+01,3.642761853340539119e-02
2.248000000000000043e+01,5.084460787802535381e-02
2.251999999999999957e+01,6.053977348734430886e-02
2.255999999999999872e+01,4.924906261371952976e-02
2.260000000000000142e+01,1.644782665093519336e-02
2.264000000000000057e+01,3.873449728577017109e-02
2.267999999999999972e+01,4.633104768972841347e-02
2.271999999999999886e+01,5.235364617916460350e-02
2.276000000000000156e+01,4.053824000643590358e-02
2.280000000000000071e+01,2.688655491382538343e-02
2.283999999999999986e+01,5.074709945340061951e-02
2.287999999999999901e+01,4.050558298016544712e-02
2.292000000000000171e+01,4.285556931218640481e-02
2.296000000000000085e+01,3.707350786174981594e-02
2.300000000000000000e+01,3.339000951928189354e-02
2.303999999999999915e+01,2.734557464321016318e-02
2.307999999999999829e+01,4.228698424181773219e-02
2.312000000000000099e+01,4.935866225431938953e-02
2.316000000000000014e+01,6.508698122771250372e-02
2.319999999999999929e+01,2.205482495471557808e-02
2.323999999999999844e+01,3.988166310867505976e-02
2.328000000000000114e+01,2.727894986781110101e-02
2.332000000000000028e+01,3.880995112090388638e-02
2.335999999999999943e+01,4.037262276002620554e-02
2.339999999999999858e+01,5.111657135574649430e-02
2.344000000000000128e+01,3.887004103140343815e-03
2.348000000000000043e+01,4.610967132540929464e-02
2.351999999999999957e+01,3.403134672934877980e-02
2.355999999999999872e+01,3.559378972395230156e-02
2.360000000000000142e+01,5.866670057843242914e-02
2.364000000000000057e+01,1.851961852993702293e-02
2.367999999999999972e+01,3.450968984945555068e-02
2.371999999999999886e+01,3.607191750142103165e-02
2.376000000000000156e+01,4.917631651768715473e-02
2.380000000000000071e+01,4.077013639975508169e-02
2.383999999999999986e+01,3.393783475355047902e-02
2.387999999999999901e+01,4.625507773549910467e-02
2.392000000000000171e+01,3.260223833867462867e-02
2.396000000000000085e+01,2.760600387271613249e-02
2.400000000000000000e+01,4.123466182569271443e-02
2.403999999999999915e+01,2.705696817889258893e-02
2.407999999999999829e+01,4.252174624702408784e-02
2.412000000000000099e+01,3.018016911237631980e-02
2.416000000000000014e+01,3.095468574115907076e-02
2.419999999999999929e+01,3.067983060458624733e-02
2.423999999999999844e+01,3.958621459308450663e-02
2.428000000000000114e+01,4.560695939672497479e-02
2.432000000000000028e+01,4.690579939750613020e-02
2.435999999999999943e+01,4.505667320806995557e-02
2.439999999999999858e+01,5.317574914477091186e-02
2.444000000000000128e+01,4.607997877982403234e-02
2.448000000000000043e+01,1.773592205751428619e-02
2.451999999999999957e+01,3.083887033969258742e-02
2.455999999999999872e+01,4.000687321707541155e-02
2.460000000000000142e+01,2.609032051609164182e-02
2.464000000000000057e+01,4.050459729723610708e-02
2.467999999999999972e+01,4.206492758893889267e-02
2.471999999999999886e+01,1.555655225298588525e-02
2.476000000000000156e+01,2.944587750308486421e-02
2.480000000000000071e+01,3.231751467573822090e-02
2.483999999999999986e+01,4.148480652501496113e-02
2.487999999999999901e+01,3.989673009620060828e-02
2.492000000000000171e+01,5.142471320229245052e-02
2.496000000000000085e+01,3.803186070000593583e-02
2.500000000000000000e+01,2.936071525419501130e-02
2.503999999999999915e+01,4.534785364249961648e-02
2.507999999999999829e+01,4.402152968627868340e-02
2.512000000000000099e+01,1.383951188031740630e-02
2.516000000000000014e+01,4.477872543160806018e-02
2.519999999999999929e+01,2.351545872037189011e-02
2.523999999999999844e+01,3.504249230881557875e-02
2.528000000000000114e+01,2.820676093579894961e-02
2.532000000000000028e+01,4.078283273924632191e-02
2.535999999999999943e+01,5.099786352201505363e-02
2.539999999999999858e+01,4.075153671996264299e-02
2.544000000000000128e+01,3.732548437672848773e-02
2.548000000000000043e+01,2.812818137766916540e-02
2.551999999999999957e+01,2.916135346506834244e-02
2.555999999999999872e+01,4.042499883742426553e-02
2.560000000000000142e+01,3.280121803159521260e-02
2.564000000000000057e+01,2.780052823936404044e-02
2.567999999999999972e+01,3.722748076529998340e-02
2.571999999999999886e+01,3.957155481461748642e-02
2.576000000000000156e+01,2.460213589388769370e-02
2.580000000000000071e+01,2.773288151982059718e-02
2.583999999999999986e+01,3.925782400370175090e-02
2.587999999999999901e+01,4.238826379317364723e-02
2.592000000000000171e+01,3.450096506316395473e-02
2.596000000000000085e+01,2.713815571588492487e-02
2.600000000000000000e+01,4.469591036904732584e-02
2.603999999999999915e+01,3.995601479686810426e-02
2.607999999999999829e+01,4.413495207834339934e-02
2.612000000000000099e+01,5.067463535304388839e-02
2.616000000000000014e+01,3.176878216961319390e-02
2.619999999999999929e+01,4.644015625690268989e-02
2.623999999999999844e+01,3.855154770898693711e-02
2.628000000000000114e+01,3.695852898364802158e-02
2.632000000000000028e+01,2.015057928610062415e-02
2.635999999999999943e+01,4.583884533341053141e-02
2.639999999999999858e+01,3.349004080043967158e-02
2.644000000000000128e+01,3.451955074768264797e-02
2.648000000000000043e+01,3.528655645106823502e-02
2.651999999999999957e+01,4.261146457037982838e-02
2.655999999999999872e+01,5.570730309704523264e-02
2.660000000000000142e+01,4.519384916556502124e-02
2.664000000000000057e+01,5.435446236336342885e-02
2.667999999999999972e+01,5.958003467679792026e-02
2.671999999999999886e+01,5.746036007372476440e-02
2.676000000000000156e+01,4.117502829135742670e-02
2.680000000000000071e+01,2.829970548612177964e-02
2.683999999999999986e+01,5.162481515115700109e-02
2.687999999999999901e+01,2.851848374246804610e-02
2.692000000000000171e+01,3.610378975154773101e-02
2.696000000000000085e+01,4.526283371525409438e-02
2.700000000000000000e+01,5.284773300380050248e-02
2.703999999999999915e+01,4.075817105304397475e-02
2.707999999999999829e+01,3.706275011369554451e-02
2.712000000000000099e+01,4.543399601725348069e-02
2.716000000000000014e+01,2.573642640157705261e-02
2.719999999999999929e+01,3.069704333894609713e-02
2.723999999999999844e+01,3.565744520629030023e-02
2.728000000000000114e+01,3.222328132668020317e-02
2.732000000000000028e+01,4.033112847775588428e-02
2.735999999999999943e+01,2.745288296573292555e-02
2.739999999999999858e+01,4.080675541339183476e-02
2.744000000000000128e+01,3.133826777844964800e-02
2.748000000000000043e+01,5.256139234025794527e-02
2.751999999999999957e+01,4.624033197403432105e-02
2.755999999999999872e+01,4.647712718470353721e-02
2.760000000000000142e+01,2.940034655626574608e-02
2.764000000000000057e+01,5.272113680578695977e-02
2.767999999999999972e+01,4.062803285055737595e-02
2.771999999999999886e+01,6.106279409957060533e-02
2.776000000000000156e+01,3.427910443475985780e-02
2.780000000000000071e+01,4.763065503954566626e-02
2.783999999999999986e+01,2.110880639350449367e-02
2.787999999999999901e+01,3.078734337870044774e-02
2.792000000000000171e+01,3.233360919527871608e-02
2.796000000000000085e+01,3.125639349123746080e-02
2.800000000000000000e+01,4.224580499707428216e-02
2.803999999999999915e+01,3.303606342136174850e-02
2.807999999999999829e+01,4.323800071852417631e-02
2.812000000000000099e+01,4.032351319477704005e-02
2.816000000000000014e+01,5.052493928433124393e-02
2.819999999999999929e+01,1.718042227654704990e-02
2.823999999999999844e+01,3.131618098784477028e-02
2.828000000000000114e+01,2.525277580858545715e-02
2.832000000000000028e+01,3.676477487669353034e-02
2.835999999999999943e+01,2.361810861117083493e-02
2.839999999999999858e+01,1.283208565329966092e-02
2.844000000000000128e+01,4.585380177400433938e-02
2.848000000000000043e+01,4.975734931650321879e-02
2.851999999999999957e+01,5.470991775036431609e-02
2.855999999999999872e+01,3.185593101480276024e-02
2.860000000000000142e+01,2.552804230667091168e-02
2.864000000000000057e+01,4.228433488339576607e-02
2.867999999999999972e+01,3.621821153097937868e-02
2.871999999999999886e+01,3.146342346477577767e-02
2.876000000000000156e+01,4.008684539171129130e-02
2.880000000000000071e+01,4.346351394292910508e-02
2.883999999999999986e+01,4.054413370749921502e-02
2.887999999999999901e+01,6.123357075263241578e-02
2.892000000000000171e+01,2.709712597204769549e-02
2.896000000000000085e+01,4.490042232359278684e-02
2.900000000000000000e+01,5.299745845184231086e-02
2.903999999999999915e+01,4.876499853172421711e-02
2.907999999999999829e+01,5.371355975502090790e-02
2.912000000000000099e+01,5.184141277644663259e-02
2.916000000000000014e+01,4.708340682985698300e-02
2.919999999999999929e+01,6.462258674003448777e-02
2.923999999999999844e+01,5.881467869533851117e-02
2.928000000000000114e+01,5.772828494647985753e-02
2.932000000000000028e+01,7.369260360274194899e-02
2.935999999999999943e+01,9.778863718248147208e-02
2.939999999999999858e+01,7.807635021748687842e-02
2.944000000000000128e+01,7.226688942482357991e-02
2.948000000000000043e+01,9.268945291377522766e-02
2.951999999999999957e+01,1.188828134989850099e-01
2.955999999999999872e+01,1.235653355338108550e-01
2.960000000000000142e+01,1.662844295518183246e-01
2.964000000000000057e+01,2.171352258827939086e-01
2.967999999999999972e+01,2.685103440568801791e-01
2.971999999999999886e+01,3.707758755251430727e-01
2.976000000000000156e+01,4.242489255903748036e-01
2.980000000000000071e+01,5.535331085707072551e-01
2.983999999999999986e+01,5.422116157200133069e-01
2.987999999999999901e+01,5.505640440769931088e-01
2.992000000000000171e+01,5.064514561919367663e-01
2.996000000000000085e+01,3.789196887852024909e-01
3.000000000000000000e+01,3.494965344864183199e-01
3.003999999999999915e+01,2.306207588087396954e-01
3.007999999999999829e+01,2.114275330501510231e-01
3.012000000000000099e+01,1.625914180470895420e-01
3.016000000000000014e+01,1.468077051614063711e-01
3.019999999999999929e+01,1.299743502851739563e-01
3.023999999999999844e+01,1.385860152549606705e-01
3.028000000000000114e+01,1.136199327389125630e-01
3.032000000000000028e+01,1.154104834776665950e-01
3.035999999999999943e+01,1.581231293970060126e-01
3.039999999999999858e+01,1.462721502374368654e-01
3.044000000000000128e+01,1.714084116200937091e-01
3.048000000000000043e+01,2.033647204724061130e-01
3.051999999999999957e+01,2.479121898447295969e-01
3.055999999999999872e+01,3.499081197386308406e-01
3.060000000000000142e+01,4.647575299518975078e-01
3.064000000000000057e+01,5.672773720567448885e-01
3.067999999999999972e+01,6.362194486607440913e-01
3.071999999999999886e+01,5.892142096222580117e-01
3.076000000000000156e+01,5.012861462139220903e-01
3.080000000000000071e+01,3.813542523143773066e-01
3.083999999999999986e+01,2.855557342265466203e-01
3.087999999999999901e+01,2.618957727802821434e-01
3.092000000000000171e+01,2.162002647278755407e-01
3.096000000000000085e+01,1.896539824378937755e-01
3.100000000000000000e+01,1.688784305886224524e-01
3.103999999999999915e+01,1.237064161074909741e-01
3.107999999999999829e+01,1.412293067755629461e-01
3.112000000000000099e+01,1.519313991666995378e-01
3.116000000000000014e+01,1.594852191123989349e-01
3.119999999999999929e+01,1.394946883919476466e-01
3.123999999999999844e+01,1.336692261786269764e-01
3.128000000000000114e+01,1.501408561440062961e-01
3.132000000000000028e+01,1.673990574933003628e-01
3.135999999999999943e+01,1.906902964721501337e-01
3.139999999999999858e+01,1.743702992689152298e-01
3.144000000000000128e+01,2.063174038717302539e-01
3.148000000000000043e+01,2.209507578898133040e-01
3.151999999999999957e+01,2.424041125385183737e-01
3.155999999999999872e+01,2.885154573766285924e-01
3.160000000000000142e+01,3.178376930302172498e-01
3.164000000000000057e+01,3.657844770159945913e-01
3.167999999999999972e+01,4.084843779179611611e-01
3.171999999999999886e+01,4.362314280474021144e-01
3.176000000000000156e+01,5.135571825826682479e-01
3.180000000000000071e+01,6.071465676229039765e-01
3.183999999999999986e+01,6.236124501274721288e-01
3.187999999999999901e+01,7.166763420761453895e-01
3.192000000000000171e+01,7.218614683895063777e-01
3.196000000000000085e+01,8.041692473486842241e-01
3.200000000000000000e+01,9.056262052312534783e-01
3.203999999999999915e+01,1.000000000000000000e+00
3.207999999999999829e+01,9.020903077892948874e-01
3.211999999999999744e+01,7.640447001647671099e-01
3.215999999999999659e+01,6.210145112407704504e-01
3.220000000000000284e+01,4.850666157242307652e-01
3.224000000000000199e+01,3.903030541200731007e-01
3.228000000000000114e+01,3.243946247160112706e-01
3.232000000000000028e+01,2.862920321011154789e-01
3.235999999999999943e+01,2.476643470193151952e-01
3.239999999999999858e+01,2.239886484081793638e-01
3.243999999999999773e+01,1.761787475149954041e-01
3.247999999999999687e+01,1.826693398430417059e-01
3.252000000000000313e+01,1.721084581496796773e-01
3.256000000000000227e+01,1.489555984734789729e-01
3.260000000000000142e+01,1.378691588345079821e-01
3.264000000000000057e+01,1.385868140289082118e-01
3.267999999999999972e+01,1.261878390312517195e-01
3.271999999999999886e+01,1.276915424828208301e-01
3.275999999999999801e+01,1.129307313110452515e-01
3.279999999999999716e+01,1.220408842750633494e-01
3.284000000000000341e+01,9.416297022652136972e-02
3.288000000000000256e+01,1.195362377747682808e-01
3.292000000000000171e+01,1.047735538791670779e-01
3.296000000000000085e+01,9.210898451771326600e-02
3.300000000000000000e+01,8.364111510776253700e-02
3.303999999999999915e+01,1.087501649118113173e-01
3.307999999999999829e+01,9.031305183536418590e-02
3.311999999999999744e+01,1.012556799322000545e-01
3.315999999999999659e+01,1.135094433486054377e-01
3.320000000000000284e+01,9.900573623086704467e-02
3.324000000000000199e+01,1.495577476024764207e-01
3.328000000000000114e+01,2.024701824985799814e-01
3.332000000000000028e+01,2.430529285856774246e-01
3.335999999999999943e+01,2.356300013416989803e-01
3.339999999999999858e+01,2.481431601756380334e-01
3.343999999999999773e+01,1.927140634963572241e-01
3.347999999999999687e+01,1.582703429014197249e-01
3.352000000000000313e+01,1.387785583351106022e-01
3.356000000000000227e+01,1.261066825228577826e-01
3.360000000000000142e+01,1.079255137523750796e-01
3.364000000000000057e+01,1.057455692154452565e-01
3.367999999999999972e+01,1.069753237974252341e-01
3.371999999999999886e+01,1.236816522052413270e-01
3.375999999999999801e+01,1.327800932299653958e-01
3.379999999999999716e+01,1.379431727030958621e-01
3.384000000000000341e+01,1.150371358062762667e-01
3.388000000000000256e+01,1.438082950545705174e-01
3.392000000000000171e+01,1.699557043585530058e-01
3.396000000000000085e+01,1.685586386927956370e-01
3.400000000000000000e+01,1.697842875268664176e-01
3.403999999999999915e+01,1.631397129649790056e-01
3.407999999999999829e+01,1.971547426416998261e-01
3.411999999999999744e+01,2.154298432487463666e-01
3.415999999999999659e+01,2.132431917421888923e-01
3.420000000000000284e+01,2.420101731825223534e-01
3.424000000000000199e+01,2.671040966571051056e-01
3.428000000000000114e+01,2.788189944772224149e-01
3.432000000000000028e+01,2.892217413498005540e-01
3.435999999999999943e+01,3.151010332241943046e-01
3.439999999999999858e+01,3.294375578561185014e-01
3.443999999999999773e+01,3.306573730299290914e-01
3.447999999999999687e+01,3.253185620030531466e-01
3.452000000000000313e+01,3.448999312568438169e-01
3.456000000000000227e+01,3.345758878971611949e-01
3.460000000000000142e+01,3.009045151814322971e-01
3.464000000000000057e+01,2.764139132004386767e-01
3.467999999999999972e+01,2.401182079641094869e-01
3.471999999999999886e+01,2.384486398881541791e-01
3.475999999999999801e+01,2.441235733259304597e-01
3.479999999999999716e+01,2.122857046728693908e-01
3.484000000000000341e+01,1.780863680433238394e-01
3.488000000000000256e+01,1.661839614573621393e-01
3.492000000000000171e+01,1.374922961622717654e-01
3.496000000000000085e+01,1.484109018633327781e-01
3.500000000000000000e+01,1.210297262589783845e-01
3.503999999999999915e+01,1.518837796151285835e-01
3.507999999999999829e+01,1.344697587732901212e-01
3.511999999999999744e+01,1.375163933495280044e-01
3.515999999999999659e+01,1.138054691180586664e-01
3.520000000000000284e+01,1.121291371158058409e-01
3.524000000000000199e+01,1.400947742096246840e-01
3.528000000000000114e+01,1.305475875945904529e-01
3.532000000000000028e+01,1.333290219170552848e-01
3.535999999999999943e+01,1.229937053468768832e-01
3.539999999999999858e+01,1.144940700169100462e-01
3.543999999999999773e+01,1.317015437401515832e-01
3.547999999999999687e+01,1.454982270534596056e-01
3.552000000000000313e+01,1.461781522681192269e-01
3.556000000000000227e+01,1.484314281146281445e-01
3.560000000000000142e+01,1.651118995069839890e-01
3.564000000000000057e+01,1.665770201773306425e-01
3.567999999999999972e+01,1.906013582635924519e-01
3.571999999999999886e+01,2.057061036814135102e-01
3.575999999999999801e+01,2.121535780316494146e-01
3.579999999999999716e+01,2.256831836542264325e-01
3.584000000000000341e+01,2.557385612324997171e-01
3.588000000000000256e+01,2.939253600895398999e-01
3.592000000000000171e+01,3.116503275669194606e-01
3.596000000000000085e+01,3.372443893177062280e-01
3.600000000000000000e+01,3.620508712626139824e-01
3.603999999999999915e+01,4.225327245277812893e-01
3.607999999999999829e+01,4.211056416348574749e-01
3.611999999999999744e+01,4.941777900080449593e-01
3.615999999999999659e+01,5.284254580275653534e-01
3.620000000000000284e+01,5.361778438027021698e-01
3.624000000000000199e+01,5.819665025118063717e-01
3.628000000000000114e+01,6.030961391900243607e-01
3.632000000000000028e+01,5.969435180122835138e-01
3.635999999999999943e+01,5.787233945137958413e-01
3.639999999999999858e+01,5.733564901169863059e-01
3.643999999999999773e+01,5.131633652122162825e-01
3.647999999999999687e+01,4.813005365451924478e-01
3.652000000000000313e+01,4.730461810719851501e-01
3.656000000000000227e+01,4.097032762839561970e-01
3.660000000000000142e+01,3.854459218258116104e-01
3.664000000000000057e+01,3.525312566670535386e-01
3.667999999999999972e+01,3.083360449826095251e-01
3.671999999999999886e+01,2.759447443784051046e-01
3.675999999999999801e+01,2.377816850950117689e-01
3.679999999999999716e+01,2.326707288797824624e-01
3.684000000000000341e+01,2.359534741096462884e-01
3.688000000000000256e+01,1.983131193399627346e-01
3.692000000000000171e+01,2.002829472928674692e-01
3.696000000000000085e+01,1.752328119681497431e-01
3.700000000000000000e+01,1.433616135458069263e-01
3.703999999999999915e+01,1.589702945122620226e-01
3.707999999999999829e+01,1.362791004952347285e-01
3.711999999999999744e+01,1.209323017033629849e-01
3.715999999999999659e+01,1.160777771634310118e-01
3.720000000000000284e+01,1.141081464055810069e-01
3.724000000000000199e+01,9.718541626802727762e-02
3.728000000000000114e+01,9.049263157555227644e-02
3.732000000000000028e+01,7.304391833808501766e-02
3.735999999999999943e+01,7.343252561105052811e-02
3.739999999999999858e+01,9.113380478823324138e-02
3.743999999999999773e+01,8.102812886270679971e-02
3.747999999999999687e+01,7.039712987811058698e-02
3.752000000000000313e+01,6.737283150601425241e-02
3.756000000000000227e+01,6.015067883884589461e-02
3.760000000000000142e+01,6.683098483774575771e-02
3.764000000000000057e+01,5.645958622307192809e-02
3.767999999999999972e+01,4.661214915125051067e-02
3.771999999999999886e+01,2.548411871470960752e-02
3.775999999999999801e+01,3.662117790323029393e-02
3.779999999999999716e+01,3.831390394052876236e-02
3.784000000000000341e+01,4.918725659245949677e-02
3.788000000000000256e+01,4.773071506423701149e-02
3.792000000000000171e+01,3.053407332371757890e-02
3.796000000000000085e+01,2.566593362161198599e-02
3.800000000000000000e+01,3.732346859413286644e-02
3.803999999999999915e+01,4.163524682528083054e-02
3.807999999999999829e+01,2.837065382162665475e-02
3.811999999999999744e+01,5.025669165545092881e-02
3.815999999999999659e+01,3.436745266997201509e-02
3.820000000000000284e+01,5.284187071189758167e-02
3.824000000000000199e+01,3.485262534330309941e-02
3.828000000000000114e+01,4.519359514489657698e-02
3.832000000000000028e+01,3.140009784375224350e-02
3.835999999999999943e+01,3.937872705086520320e-02
3.839999999999999858e+01,2.427217916166623732e-02
3.843999999999999773e+01,3.592189882250736155e-02
3.847999999999999687e+01,2.606037819817667855e-02
3.852000000000000313e+01,2.642874717238486923e-02
3.856000000000000227e+01,2.627174444698835223e-02
3.860000000000000142e+01,3.581998091241390264e-02
3.864000000000000057e+01,4.064566763751827766e-02
3.867999999999999972e+01,3.209213054301528201e-02
3.871999999999999886e+01,1.383189546040323840e-02
3.875999999999999801e+01,1.970467949224976104e-02
3.879999999999999716e+01,3.108551926969775267e-02
3.884000000000000341e+01,2.121742595081950455e-02
3.888000000000000256e+01,4.177810799846688045e-02
3.892000000000000171e+01,2.351418538885818171e-02
3.896000000000000085e+01,3.253115371448701137e-02
3.900000000000000000e+01,2.790656040614095459e-02
3.903999999999999915e+01,2.957698224146003071e-02
3.907999999999999829e+01,1.367098780444484483e-02
3.911999999999999744e+01,1.743849842830547114e-02
3.915999999999999659e+01,2.225455074418497894e-02
3.920000000000000284e+01,3.048005357179605496e-02
3.924000000000000199e+01,3.214671582006679851e-02
3.928000000000000114e+01,2.541827187099616331e-02
3.932000000000000028e+01,3.888797078000912066e-02
3.935999999999999943e+01,1.615627923882298478e-02
3.939999999999999858e+01,2.175475242578878143e-02
3.943999999999999773e+01,2.079437602590773412e-02
3.947999999999999687e+01,3.531031403567694293e-02
3.952000000000000313e+01,3.251213935895479190e-02
3.956000000000000227e+01,4.623956909830883449e-02
3.960000000000000142e+01,2.743812521145576333e-02
3.964000000000000057e+01,1.815499327892291159e-03
3.967999999999999972e+01,9.244846804399948700e-03
3.971999999999999886e+01,1.903432776369397977e-02
3.975999999999999801e+01,2.200262132177370836e-02
3.979999999999999716e+01,2.024831289599495973e-02
3.984000000000000341e+01,1.875554532964176027e-02
3.988000000000000256e+01,1.122855516464176147e-02
3.992000000000000171e+01,9.734217107921456363e-03
3.996000000000000085e+01,2.476546545226436524e-02
4.000000000000000000e+01,1.776075824967222189e-02
4.003999999999999915e+01,0.000000000000000000e+00
4.007999999999999829e+01,2.368554597081386562e-02
4.011999999999999744e+01,1.746542891947503243e-02
4.015999999999999659e+01,2.383603822633619668e-02
4.020000000000000284e+01,1.105624040468417175e-02
4.024000000000000199e+01,1.427736956887209682e-02
4.028000000000000114e+01,1.933396019011410921e-02
4.032000000000000028e+01,4.453168071267691805e-03
4.035999999999999943e+01,2.026340806575627207e-02
4.039999999999999858e+01,1.902181914308212832e-02
4.043999999999999773e+01,3.115791417517036269e-02
4.047999999999999687e+01,2.965238091773593834e-02
4.052000000000000313e+01,1.555451117870606907e-02
4.056000000000000227e+01,4.866030700363948615e-03
4.060000000000000142e+01,3.273827359706277251e-02
4.064000000000000057e+01,1.916260034837878948e-02
4.067999999999999972e+01,2.919521293737709078e-02
4.071999999999999886e+01,1.876577796655985730e-02
4.075999999999999801e+01,2.800977419506553434e-02
4.079999999999999716e+01,2.334980431968110628e-02
4.084000000000000341e+01,1.239324520726188192e-02
4.088000000000000256e+01,1.717526085430485724e-02
4.092000000000000171e+01,1.854624108723886347e-02
4.096000000000000085e+01,2.149032874934774656e-02
4.100000000000000000e+01,1.892479017548805847e-02
4.103999999999999915e+01,2.685135110794292790e-02
4.107999999999999829e+01,3.503939705328337068e-02
4.111999999999999744e+01,3.824245816286558214e-02
4.115999999999999659e+01,2.360668591968917776e-02
4.120000000000000284e+01,1.001936349196583947e-02
4.124000000000000199e+01,2.607373993512055246e-02
4.128000000000000114e+01,2.114139679272738701e-02
4.132000000000000028e+01,2.381558312021143584e-02
4.135999999999999943e+01,1.809456957228689281e-02
4.139999999999999858e+01,1.552058405116594174e-02
4.143999999999999773e+01,2.868514806848903448e-02
4.147999999999999687e+01,3.450380041532824515e-02
4.152000000000000313e+01,2.090966278175451082e-02
4.156000000000000227e+01,2.436568629390662571e-02
4.160000000000000142e+01,1.942649912164252576e-02
4.164000000000000057e+01,3.311140990624438646e-02
4.167999999999999972e+01,8.758561937072488826e-03
4.171999999999999886e+01,1.221112740426327087e-02
4.175999999999999801e+01,2.799202376724534147e-02
4.179999999999999716e+01,3.511537703594752591e-02
4.184000000000000341e+01,2.833471736172602298e-02
4.188000000000000256e+01,2.601268110807822623e-02
4.192000000000000171e+01,1.477077295328954425e-02
4.196000000000000085e+01,2.923568020699882433e-02
4.200000000000000000e+01,3.163283112827912358e-02
4.203999999999999915e+01,1.592878566141549268e-02
4.207999999999999829e+01,1.596326090897530123e-02
4.211999999999999744e+01,3.619575290952833230e-02
4.215999999999999659e+01,2.153834536657760201e-02
4.220000000000000284e+01,2.340642334061781085e-02
4.224000000000000199e+01,2.632290429107757290e-02
4.228000000000000114e+01,2.609061197874140703e-02
4.232000000000000028e+01,3.215318708696469213e-02
4.235999999999999943e+01,3.349304491524674604e-02
4.239999999999999858e+01,2.748694963851524078e-02
4.243999999999999773e+01,1.282328244348313051e-02
4.247999999999999687e+01,6.290739279505066714e-03
4.252000000000000313e+01,2.598963310772116689e-02
4.256000000000000227e+01,2.627569011649086642e-02
4.260000000000000142e+01,3.259427853295367161e-02
4.264000000000000057e+01,2.054932013639601193e-02
4.267999999999999972e+01,3.027629368595621470e-02
4.271999999999999886e+01,1.429466155349388631e-02
4.275999999999999801e+01,2.270819178771820920e-02
4.279999999999999716e+01,2.062787007363045891e-02
4.284000000000000341e+01,3.559765185722729708e-02
4.288000000000000256e+01,3.299084622586721111e-02
4.292000000000000171e+01,2.959614912890479177e-02
4.296000000000000085e+01,1.229738864698254851e-02
4.300000000000000000e+01,2.359095416045312726e-02
4.303999999999999915e+01,3.488359301088880815e-02
4.307999999999999829e+01,9.712350469148370996e-03
4.311999999999999744e+01,2.441333481965311455e-02
4.315999999999999659e+01,3.937571050497627734e-02
4.320000000000000284e+01,1.734955258890505045e-02
4.324000000000000199e+01,3.624490977000371927e-02
4.328000000000000114e+01,2.759537223156186686e-02
4.332000000000000028e+01,3.363500595157498801e-02
4.335999999999999943e+01,2.472126466218699595e-02
4.339999999999999858e+01,2.262698895753772685e-02
4.343999999999999773e+01,2.682753023141153798e-02
4.347999999999999687e+01,4.440561854594961971e-02
4.352000000000000313e+01,3.837365236729631257e-02
4.356000000000000227e+01,3.312770631316275249e-02
4.360000000000000142e+01,4.204627210226090372e-02
4.364000000000000057e+01,3.548680346673461355e-02
4.367999999999999972e+01,4.282951966908025987e-02
4.371999999999999886e+01,6.250047849365387986e-02
4.375999999999999801e+01,6.197157624667101739e-02
4.379999999999999716e+01,9.082193417212641728e-02
4.384000000000000341e+01,1.089160699078792344e-01
4.388000000000000256e+01,1.340919730127123344e-01
4.392000000000000171e+01,1.621524672474105311e-01
4.396000000000000085e+01,1.369603427060483436e-01
4.400000000000000000e+01,1.542636394474741213e-01
4.403999999999999915e+01,1.416610966196208965e-01
4.407999999999999829e+01,1.080717081011293157e-01
4.411999999999999744e+01,9.494256966292369260e-02
4.415999999999999659e+01,7.210648823243345773e-02
4.420000000000000284e+01,6.579580224386974430e-02
4.424000000000000199e+01,5.607393131658981733e-02
4.428000000000000114e+01,5.343380974337730988e-02
4.432000000000000028e+01,5.236664427323144827e-02
4.435999999999999943e+01,6.284072239422150430e-02
4.439999999999999858e+01,4.183500431827809340e-02
4.443999999999999773e+01,6.437398131803705181e-02
4.447999999999999687e+01,4.939972026364616853e-02
4.452000000000000313e+01,6.695256778295581579e-02
4.456000000000000227e+01,6.299390118889748591e-02
4.460000000000000142e+01,7.477364181468142135e-02
4.464000000000000057e+01,6.871439235709443649e-02
4.467999999999999972e+01,7.550798909041876728e-02
4.471999999999999886e+01,8.571078772829658632e-02
4.475999999999999801e+01,1.090287523564402172e-01
4.479999999999999716e+01,1.454618811733483785e-01
4.484000000000000341e+01,1.732373299818784074e-01
4.488000000000000256e+01,2.201613776303843195e-01
4.492000000000000171e+01,2.775773500395796178e-01
4.496000000000000085e+01,3.121701733086083008e-01
4.500000000000000000e+01,2.554734376207602464e-01
4.503999999999999915e+01,2.320907572941673935e-01
4.507999999999999829e+01,1.937546244936178552e-01
4.511999999999999744e+01,1.567290883637520449e-01
4.515999999999999659e+01,1.194402066889257846e-01
4.520000000000000284e+01,9.893899882085074871e-02
4.524000000000000199e+01,8.184696943781262501e-02
4.528000000000000114e+01,6.344229549588162320e-02
4.532000000000000028e+01,6.628478779626924278e-02
4.535999999999999943e+01,5.732169584047655531e-02
4.539999999999999858e+01,5.570262619907230539e-02
4.543999999999999773e+01,4.595049633148498569e-02
4.547999999999999687e+01,5.141208724599716923e-02
4.552000000000000313e+01,3.746070802996746829e-02
4.556000000000000227e+01,5.052759909910515407e-02
4.560000000000000142e+01,4.208292921584134982e-02
4.564000000000000057e+01,4.937661971338617312e-02
4.567999999999999972e+01,4.171683071445492913e-02
4.571999999999999886e+01,3.536761136368799657e-02
4.575999999999999801e+01,4.187118956329741182e-02
4.579999999999999716e+01,4.706209978449734516e-02
4.584000000000000341e+01,2.628194040421689623e-02
4.588000000000000256e+01,4.406226660080706653e-02
4.592000000000000171e+01,2.983808133870046939e-02
4.596000000000000085e+01,4.184517813967694733e-02
4.600000000000000000e+01,3.076675555909638704e-02
4.603999999999999915e+01,2.493373925002659655e-02
4.607999999999999829e+01,4.638129320896462043e-02
4.611999999999999744e+01,3.031553525219988360e-02
4.615999999999999659e+01,3.418528869444090179e-02
4.620000000000000284e+01,3.989023697154499976e-02
4.624000000000000199e+01,4.533179106315384649e-02
4.628000000000000114e+01,1.693255366605447843e-02
4.632000000000000028e+01,2.604448841988298360e-02
4.635999999999999943e+01,3.436837677899809429e-02
4.639999999999999858e+01,3.980562972304158009e-02
4.643999999999999773e+01,3.133866255151301905e-02
4.647999999999999687e+01,4.962760082826520036e-02
4.652000000000000313e+01,4.561796651101469174e-02
4.656000000000000227e+01,2.455622584540284939e-02
4.660000000000000142e+01,5.307252122863746063e-02
4.664000000000000057e+01,4.223921746015260603e-02
4.667999999999999972e+01,5.763716332772778755e-02
4.671999999999999886e+01,3.866965108536622731e-02
4.675999999999999801e+01,5.721329117741833642e-02
4.679999999999999716e+01,4.663793760367368479e-02
4.684000000000000341e+01,4.498048190441374800e-02
4.688000000000000256e+01,5.617577331349407621e-02
4.692000000000000171e+01,5.897561443848635399e-02
4.696000000000000085e+01,5.574091409910348488e-02
4.700000000000000000e+01,5.355440235748651356e-02
4.703999999999999915e+01,5.110446040034854337e-02
4.707999999999999829e+01,6.806534160297238178e-02
4.711999999999999744e+01,7.138429546685937099e-02
4.715999999999999659e+01,7.339052010129290537e-02
4.720000000000000284e+01,6.044319678220135689e-02
4.724000000000000199e+01,7.530103829229452261e-02
4.728000000000000114e+01,8.700988135193046813e-02
4.732000000000000028e+01,8.192890723703766254e-02
4.735999999999999943e+01,8.497883737004137406e-02
4.739999999999999858e+01,8.356814663629845430e-02
4.743999999999999773e+01,8.871441613330681430e-02
4.747999999999999687e+01,1.009422908642793049e-01
4.752000000000000313e+01,9.952822024150209668e-02
4.756000000000000227e+01,1.062450448591149565e-01
4.760000000000000142e+01,9.328648226576159719e-02
4.764000000000000057e+01,1.115432707172225729e-01
4.767999999999999972e+01,1.027796130887153603e-01
4.771999999999999886e+01,1.131644263935922268e-01
4.775999999999999801e+01,1.106942537427828832e-01
4.779999999999999716e+01,1.087475868549994396e-01
4.784000000000000341e+01,1.178173600230253693e-01
4.788000000000000256e+01,1.163930524520753601e-01
4.792000000000000171e+01,1.144429516302187949e-01
4.796000000000000085e+01,1.161642301936683386e-01
4.800000000000000000e+01,1.005710141523528528e-01
4.803999999999999915e+01,8.025482501791303402e-02
4.807999999999999829e+01,9.403952453770166031e-02
4.811999999999999744e+01,8.342699218457912125e-02
4.815999999999999659e+01,7.176400896682799679e-02
4.820000000000000284e+01,7.478997722437444318e-02
4.824000000000000199e+01,8.515983988971766172e-02
4.828000000000000114e+01,7.113246347614447795e-02
4.832000000000000028e+01,7.284332674279353492e-02
4.835999999999999943e+01,7.822555137973570549e-02
4.839999999999999858e+01,5.868588472854349009e-02
4.843999999999999773e+01,5.383515874364101783e-02
4.847999999999999687e+01,5.606599295517050024e-02
4.852000000000000313e+01,6.537838556163061421e-02
4.856000000000000227e+01,3.691503295845207505e-02
4.860000000000000142e+01,4.858598384419907101e-02
4.864000000000000057e+01,5.395999420015956671e-02
4.867999999999999972e+01,3.939624530226189247e-02
4.871999999999999886e+01,5.289991798035820897e-02
4.875999999999999801e+01,4.226865336387990169e-02
4.879999999999999716e+01,4.396540257896556364e-02
4.884000000000000341e+01,2.913458956483052850e-02
4.888000000000000256e+01,3.214057822875650977e-02
4.892000000000000171e+01,3.278446478774381390e-02
4.896000000000000085e+01,4.549403456993295070e-02
4.900000000000000000e+01,4.534856254989585306e-02
4.903999999999999915e+01,3.654522136384528302e-02
4.907999999999999829e+01,5.554696213791994464e-02
4.911999999999999744e+01,4.175707712612329592e-02
4.915999999999999659e+01,4.160680674416464275e-02
4.920000000000000284e+01,3.804512803732976872e-02
4.924000000000000199e+01,4.025335828661674026e-02
4.928000000000000114e+01,4.141108722923898117e-02
4.932000000000000028e+01,4.938801513440898433e-02
4.935999999999999943e+01,6.339716999355396454e-02
4.939999999999999858e+01,4.461468645631855995e-02
4.943999999999999773e+01,4.314433257141191136e-02
4.947999999999999687e+01,3.406538331340602799e-02
4.952000000000000313e+01,4.019997288586932976e-02
4.956000000000000227e+01,3.505343584923115152e-02
4.960000000000000142e+01,4.616972764948799879e-02
4.964000000000000057e+01,3.524962974099878771e-02
4.967999999999999972e+01,4.662579532061587873e-02
4.971999999999999886e+01,3.806415480734127305e-02
4.975999999999999801e+01,5.389736139802738663e-02
4.979999999999999716e+01,3.877517539382002720e-02
4.984000000000000341e+01,3.650560318685738825e-02
4.988000000000000256e+01,3.921894090492452495e-02
4.992000000000000171e+01,4.927609736773430615e-02
4.996000000000000085e+01,3.152573485793092739e-02
5.000000000000000000e+01,4.577758731143704435e-02
5.003999999999999915e+01,4.560041070954074655e-02
5.007999999999999829e+01,4.201178614973981318e-02
5.011999999999999744e+01,4.576697132717504751e-02
5.015999999999999659e+01,5.083252618613127299e-02
5.020000000000000284e+01,4.566621922139380702e-02
5.024000000000000199e+01,5.099159741767413101e-02
5.028000000000000114e+01,5.395481225797187086e-02
5.032000000000000028e+01,6.950829587514173458e-02
5.035999999999999943e+01,7.168202963432732111e-02
5.039999999999999858e+01,7.805167969195449251e-02
5.043999999999999773e+01,7.550107412866589873e-02
5.047999999999999687e+01,1.002308406682431569e-01
5.052000000000000313e+01,1.000386204401175483e-01
5.056000000000000227e+01,1.200440368482128539e-01
5.060000000000000142e+01,1.266696925893161241e-01
5.064000000000000057e+01,1.109965901817839273e-01
5.067999999999999972e+01,1.084383871423264672e-01
5.071999999999999886e+01,1.014194137115153049e-01
5.075999999999999801e+01,9.177593190434889248e-02
5.079999999999999716e+01,7.898329311461178837e-02
5.084000000000000341e+01,6.094290832194572405e-02
5.088000000000000256e+01,6.755964359356134152e-02
5.092000000000000171e+01,6.315751440738866240e-02
5.096000000000000085e+01,4.721187215721224517e-02
5.100000000000000000e+01,5.461172755502802928e-02
5.103999999999999915e+01,5.073038968819451600e-02
5.107999999999999829e+01,5.393049492020909885e-02
5.111999999999999744e+01,4.847263730814303784e-02
5.115999999999999659e+01,4.117722351178026985e-02
5.120000000000000284e+01,3.834001338619043991e-02
5.124000000000000199e+01,3.445221368037265641e-02
5.128000000000000114e+01,5.286060540260961726e-02
5.132000000000000028e+01,4.241212329176100027e-02
5.135999999999999943e+01,4.061901208339419728e-02
5.139999999999999858e+01,3.043024882279478718e-02
5.143999999999999773e+01,3.755352513945962867e-02
5.147999999999999687e+01,4.415084787160306057e-02
5.152000000000000313e+01,4.235251314701007214e-02
5.156000000000000227e+01,3.976589783253592358e-02
5.160000000000000142e+01,4.242443838089322156e-02
5.164000000000000057e+01,3.196549482558199567e-02
5.167999999999999972e+01,3.855625663617009979e-02
5.171999999999999886e+01,3.412811795894421518e-02
5.175999999999999801e+01,3.494512793854444993e-02
5.179999999999999716e+01,5.176254427011175302e-02
5.184000000000000341e+01,5.257691006457576588e-02
5.188000000000000256e+01,4.709418940764868028e-02
5.192000000000000171e+01,4.292175916618590215e-02
5.196000000000000085e+01,4.268285156225722771e-02
5.200000000000000000e+01,3.535988189536232867e-02
5.203999999999999915e+01,3.065881425121336212e-02
5.207999999999999829e+01,4.563066798152207171e-02
5.211999999999999744e+01,3.174561184871948355e-02
5.215999999999999659e+01,3.832044369444329024e-02
5.220000000000000284e+01,4.095908529797989001e-02
5.224000000000000199e+01,2.103657329047221164e-02
5.228000000000000114e+01,4.492072666677106307e-02
5.232000000000000028e+01,3.470149312530960983e-02
5.235999999999999943e+01,2.474323657336971460e-02
5.239999999999999858e+01,3.367091677680585093e-02
5.243999999999999773e+01,3.840007252668980325e-02
5.247999999999999687e+01,3.158564675552090473e-02
5.252000000000000313e+01,3.998462470222444859e-02
5.256000000000000227e+01,3.552840051308688019e-02
5.260000000000000142e+01,3.054617229739175696e-02
5.264000000000000057e+01,3.815410837149395273e-02
5.267999999999999972e+01,3.605471773353666892e-02
5.271999999999999886e+01,4.077437293051740241e-02
5.275999999999999801e+01,4.365639988314976017e-02
5.279999999999999716e+01,2.528886501550550031e-02
5.284000000000000341e+01,3.761180019279344172e-02
5.288000000000000256e+01,4.389992728351522350e-02
5.292000000000000171e+01,4.756344871681216641e-02
5.296000000000000085e+01,2.814113730732731300e-02
5.300000000000000000e+01,3.757302492026975971e-02
5.303999999999999915e+01,4.175706744771229967e-02
5.307999999999999829e+01,3.518447163865388860e-02
5.311999999999999744e+01,4.434989932966279524e-02
5.315999999999999659e+01,4.407030209295392104e-02
5.320000000000000284e+01,3.382103132231163017e-02
5.324000000000000199e+01,4.140836586608977188e-02
5.328000000000000114e+01,3.640278924936075911e-02
5.332000000000000028e+01,3.218279319083655610e-02
5.335999999999999943e+01,3.215858011965845586e-02
5.339999999999999858e+01,3.895338225789640729e-02
5.343999999999999773e+01,4.574678934276399378e-02
5.347999999999999687e+01,4.178354007611777970e-02
5.352000000000000313e+01,3.703192194602716869e-02
5.356000000000000227e+01,3.227890335806232747e-02
5.360000000000000142e+01,2.647518890129336305e-02
5.364000000000000057e+01,3.798341493921762735e-02
5.367999999999999972e+01,2.509415869555126077e-02
5.371999999999999886e+01,3.502563079307523253e-02
5.375999999999999801e+01,3.131487650264802580e-02
5.379999999999999716e+01,4.885090653626569107e-02
5.384000000000000341e+01,3.175883439035986910e-02
5.388000000000000256e+01,3.565121956313916513e-02
5.392000000000000171e+01,3.613198383389001900e-02
5.396000000000000085e+01,3.451274241289670891e-02
5.400000000000000000e+01,3.630228494815741086e-02
5.403999999999999915e+01,4.176293304052811767e-02
5.407999999999999829e+01,4.617286364607921939e-02
5.411999999999999744e+01,3.143176020066804077e-02
5.415999999999999659e+01,3.400257383043327891e-02
5.420000000000000284e+01,2.817760930287562318e-02
5.424000000000000199e+01,2.759768173906425315e-02
5.428000000000000114e+01,3.593531697049749674e-02
5.432000000000000028e+01,4.164828349196065399e-02
5.435999999999999943e+01,4.263799228309555350e-02
5.439999999999999858e+01,5.464384568382817109e-02
5.443999999999999773e+01,4.120288896501720505e-02
5.447999999999999687e+01,3.799110304572999447e-02
5.452000000000000313e+01,4.238525210089413159e-02
5.456000000000000227e+01,3.759663657815237592e-02
5.460000000000000142e+01,4.225021624335920101e-02
5.464000000000000057e+01,3.981961494651461292e-02
5.467999999999999972e+01,4.551958822283034417e-02
5.471999999999999886e+01,4.466002373880628706e-02
5.475999999999999801e+01,4.537294516601200756e-02
5.479999999999999716e+01,3.637844440158978510e-02
5.484000000000000341e+01,4.863068112217894257e-02
5.488000000000000256e+01,5.117549204813771901e-02
5.492000000000000171e+01,3.561852650253678060e-02
5.496000000000000085e+01,4.865334830344279077e-02
5.500000000000000000e+01,3.545436455671571729e-02
5.503999999999999915e+01,4.350210928749361633e-02
5.507999999999999829e+01,5.705717655284772011e-02
5.511999999999999744e+01,4.673934348727897675e-02
5.515999999999999659e+01,5.111014843578323003e-02
5.520000000000000284e+01,4.787210039650376114e-02
5.524000000000000199e+01,5.591248253765196408e-02
5.528000000000000114e+01,6.342673995165622192e-02
5.532000000000000028e+01,8.536730477137106921e-02
5.535999999999999943e+01,7.950010741579853490e-02
5.539999999999999858e+01,7.966486498750616208e-02
5.543999999999999773e+01,7.825419701663616223e-02
5.547999999999999687e+01,5.952869756025975373e-02
5.552000000000000313e+01,7.070657724115778087e-02
5.556000000000000227e+01,5.591294955576190523e-02
5.560000000000000142e+01,5.397167625142484937e-02
5.564000000000000057e+01,6.593204913607392248e-02
5.567999999999999972e+01,6.162687513713872162e-02
5.571999999999999886e+01,7.148566712654409738e-02
5.575999999999999801e+01,5.143809170679220638e-02
5.579999999999999716e+01,6.365479343501985465e-02
5.584000000000000341e+01,5.986826447601519691e-02
5.588000000000000256e+01,5.424396675556145131e-02
5.592000000000000171e+01,4.730654527687165600e-02
5.596000000000000085e+01,5.951722362230014995e-02
5.600000000000000000e+01,6.700457037584733877e-02
5.603999999999999915e+01,7.527737518551158580e-02
5.607999999999999829e+01,6.964552571779275558e-02
5.611999999999999744e+01,6.978327534797371112e-02
5.615999999999999659e+01,7.883850310283863072e-02
5.620000000000000284e+01,9.313867954788665471e-02
5.624000000000000199e+01,8.435287542704698882e-02
5.628000000000000114e+01,8.317292701460178572e-02
5.632000000000000028e+01,1.079614706740484181e-01
5.635999999999999943e+01,1.222555516762455635e-01
5.639999999999999858e+01,1.160868789301211373e-01
5.643999999999999773e+01,1.369359864608131194e-01
5.647999999999999687e+01,1.339121324095385035e-01
5.652000000000000313e+01,1.398057402694361795e-01
5.656000000000000227e+01,1.580270124696475098e-01
5.660000000000000142e+01,1.940847386581708578e-01
5.664000000000000057e+01,1.766269515923674926e-01
5.667999999999999972e+01,1.712345000600168365e-01
5.671999999999999886e+01,1.923351693892592362e-01
5.675999999999999801e+01,1.827424560647408214e-01
5.679999999999999716e+01,1.710496091418865217e-01
5.684000000000000341e+01,1.656509756946230316e-01
5.688000000000000256e+01,1.605131156672352510e-01
5.692000000000000171e+01,1.566853208676503850e-01
5.696000000000000085e+01,1.358049513293685395e-01
5.700000000000000000e+01,1.440409240657420653e-01
5.703999999999999915e+01,1.221081483425598135e-01
5.707999999999999829e+01,1.151262475637457178e-01
5.711999999999999744e+01,1.013223775321572401e-01
5.715999999999999659e+01,1.289640424800037877e-01
5.720000000000000284e+01,1.078119901949336767e-01
5.724000000000000199e+01,1.236459714462248699e-01
5.728000000000000114e+01,1.158692784878807142e-01
5.732000000000000028e+01,1.117635433635406211e-01
5.735999999999999943e+01,1.173622025259171697e-01
5.739999999999999858e+01,1.164012032273674946e-01
5.743999999999999773e+01,1.141270117135326362e-01
5.747999999999999687e+01,1.226065026913390615e-01
5.752000000000000313e+01,1.017041937986457451e-01
5.756000000000000227e+01,1.004745594747331605e-01
5.760000000000000142e+01,9.740707892481610675e-02
5.764000000000000057e+01,9.696124818746436336e-02
5.767999999999999972e+01,5.926390830289395006e-02
5.771999999999999886e+01,7.455430788045376567e-02
5.775999999999999801e+01,5.679036914550636417e-02
5.779999999999999716e+01,6.289626860804602149e-02
5.784000000000000341e+01,5.168723029650310746e-02
5.788000000000000256e+01,5.306812027808843757e-02
5.792000000000000171e+01,5.077488580515913258e-02
5.796000000000000085e+01,4.638146549035647437e-02
5.800000000000000000e+01,5.221705744296410712e-02
5.803999999999999915e+01,4.441023024698247113e-02
5.807999999999999829e+01,4.709473511776566396e-02
5.811999999999999744e+01,4.925298735481317691e-02
5.815999999999999659e+01,3.278467039398220984e-02
5.820000000000000284e+01,3.782526299441139883e-02
5.824000000000000199e+01,3.315827847410161844e-02
5.828000000000000114e+01,2.980129793055089765e-02
5.832000000000000028e+01,4.349372370368528168e-02
5.835999999999999943e+01,3.751027766200629859e-02
5.839999999999999858e+01,3.677168122793925825e-02
5.843999999999999773e+01,4.888531126833949025e-02
5.847999999999999687e+01,3.660124284699432795e-02
5.852000000000000313e+01,3.297222285939981068e-02
5.856000000000000227e+01,2.724299000741268323e-02
5.860000000000000142e+01,3.043112538853091215e-02
5.864000000000000057e+01,3.387995492346795173e-02
5.867999999999999972e+01,3.627785979893703716e-02
5.871999999999999886e+01,2.608260850972345807e-02
5.875999999999999801e+01,2.191916082168155963e-02
5.879999999999999716e+01,3.060792339459532038e-02
5.884000000000000341e+01,3.037605203132227524e-02
5.888000000000000256e+01,2.620768957514642630e-02
5.892000000000000171e+01,3.279294475656534952e-02
5.896000000000000085e+01,3.019523719493644523e-02
5.900000000000000000e+01,3.074376499954327782e-02
5.903999999999999915e+01,2.263397326281382446e-02
5.907999999999999829e+01,2.265455793410281818e-02
5.911999999999999744e+01,1.847631730112420795e-02
5.915999999999999659e+01,3.843017701694587118e-02
5.920000000000000284e+01,2.716589738271355317e-02
5.924000000000000199e+01,2.481895715756599063e-02
5.928000000000000114e+01,1.879783122685974028e-02
5.932000000000000028e+01,2.274333471166403720e-02
5.935999999999999943e+01,2.904808714212099921e-02
5.939999999999999858e+01,3.377723568137253052e-02
5.943999999999999773e+01,2.224066799591838117e-02
5.947999999999999687e+01,1.804748849639833605e-02
5.952000000000000313e+01,3.064133786616760405e-02
5.956000000000000227e+01,2.618249539965597852e-02
5.960000000000000142e+01,2.198430385093232825e-02
5.964000000000000057e+01,2.355555286799489167e-02
5.967999999999999972e+01,2.092795135977169180e-02
5.971999999999999886e+01,3.561201651804553336e-02
5.975999999999999801e+01,2.852155959010383574e-02
5.979999999999999716e+01,2.431497859601488079e-02
5.984000000000000341e+01,2.692712276963418055e-02
5.988000000000000256e+01,2.534040741046130960e-02
5.992000000000000171e+01,2.742453278770868447e-02
5.996000000000000085e+01,1.717776955609040535e-02
