2.003999999999999915e+01,4.726656097425527281e-02
2.007999999999999829e+01,4.683528489740454437e-02
2.012000000000000099e+01,3.148550058533569618e-02
2.016000000000000014e+01,4.285549782895327342e-02
2.019999999999999929e+01,3.173638548300369150e-02
2.023999999999999844e+01,3.753980674681882401e-02
2.028000000000000114e+01,2.753405525278114496e-02
2.032000000000000028e+01,4.001745090443648706e-02
2.035999999999999943e+01,4.047697006090939659e-02
2.039999999999999858e+01,2.624063534081130800e-02
2.044000000000000128e+01,3.738808392094626620e-02
2.048000000000000043e+01,4.519557329852704614e-02
2.051999999999999957e+01,2.472466017644010111e-02
2.055999999999999872e+01,3.431348378238414931e-02
2.060000000000000142e+01,4.412497831778554314e-02
2.064000000000000057e+01,2.343141934744229909e-02
2.067999999999999972e+01,2.522699427927907467e-02
2.071999999999999886e+01,2.323727186123835872e-02
2.076000000000000156e+01,3.950605187838674565e-02
2.080000000000000071e+01,3.417635887007464124e-02
2.083999999999999986e+01,3.419061512282813714e-02
2.087999999999999901e+01,2.039965847762192572e-02
2.092000000000000171e+01,3.444177872536093032e-02
2.096000000000000085e+01,2.866673733489148723e-02
2.100000000000000000e+01,4.181818352807426670e-02
2.103999999999999915e+01,3.804710570908977074e-02
2.107999999999999829e+01,2.915472934177132033e-02
2.112000000000000099e+01,2.471563329837906178e-02
2.116000000000000014e+01,1.715921769606510577e-02
2.119999999999999929e+01,3.053326425231111044e-02
2.123999999999999844e+01,3.255139591781400915e-02
2.128000000000000114e+01,2.388160519854403904e-02
2.132000000000000028e+01,4.237688267973277467e-02
2.135999999999999943e+01,3.816034323865415134e-02
2.139999999999999858e+01,3.461177461531814853e-02
2.144000000000000128e+01,3.217650465653806857e-02
2.148000000000000043e+01,5.378899178400903258e-02
2.151999999999999957e+01,3.910711189461447274e-02
2.155999999999999872e+01,4.491035160195202408e-02
2.160000000000000142e+01,3.356838203694475359e-02
2.164000000000000057e+01,3.046497287201807222e-02
2.167999999999999972e+01,2.624820695106558355e-02
2.171999999999999886e+01,3.405529769286396585e-02
2.176000000000000156e+01,3.095178373271453495e-02
2.180000000000000071e+01,1.471101700754355764e-02
2.183999999999999986e+01,3.632320299286014714e-02
2.187999999999999901e+01,2.030502076285444976e-02
2.192000000000000171e+01,3.145188466078530087e-02
2.196000000000000085e+01,2.344954411044268550e-02
2.200000000000000000e+01,2.101377480678043655e-02
2.203999999999999915e+01,2.614855721071196112e-02
2.207999999999999829e+01,1.124347211523677760e-02
2.212000000000000099e+01,3.085135954238023281e-02
2.216000000000000014e+01,1.839548493262229550e-02
2.219999999999999929e+01,3.110066421787534285e-02
2.223999999999999844e+01,2.042600023035689646e-02
2.228000000000000114e+01,2.934577071591535150e-02
2.232000000000000028e+01,3.514817896900914590e-02
2.235999999999999943e+01,1.868406283061344389e-02
2.239999999999999858e+01,4.051820811999954502e-02
2.244000000000000128e+01,1.937801277326829316e-02
2.248000000000000043e+01,1.538293329137681992e-02
2.251999999999999957e+01,3.075961479439616106e-02
2.255999999999999872e+01,5.036685898813149376e-02
2.260000000000000142e+01,4.503559405148123418e-02
2.264000000000000057e+01,3.703228442866941805e-02
2.267999999999999972e+01,4.016213751594411435e-02
2.271999999999999886e+01,1.701748910338532483e-02
2.276000000000000156e+01,2.682713705532087725e-02
2.280000000000000071e+01,1.236626249683540728e-02
2.283999999999999986e+01,1.148785601316008355e-02
2.287999999999999901e+01,3.710646636391456282e-02
2.292000000000000171e+01,3.444658592491299520e-02
2.296000000000000085e+01,3.379060687004019348e-02
2.300000000000000000e+01,2.289197147414599037e-02
2.303999999999999915e+01,2.045450963493788271e-02
2.307999999999999829e+01,3.894744079372076950e-02
2.312000000000000099e+01,3.094319107849829997e-02
2.316000000000000014e+01,3.986136755343323845e-02
2.319999999999999929e+01,3.653289839742401846e-02
2.323999999999999844e+01,2.563373998127146600e-02
2.328000000000000114e+01,4.011826038874754391e-02
2.332000000000000028e+01,3.901616086341631179e-02
2.335999999999999943e+01,1.965546402388918673e-02
2.339999999999999858e+01,3.324904000483280136e-02
2.344000000000000128e+01,2.324006390880367992e-02
2.348000000000000043e+01,1.545763472654148457e-02
2.351999999999999957e+01,2.348429519513716562e-02
2.355999999999999872e+01,1.547899758360221298e-02
2.360000000000000142e+01,1.882949349677729561e-02
2.364000000000000057e+01,1.639060270805233269e-02
2.367999999999999972e+01,1.684624545305866278e-02
2.371999999999999886e+01,3.489228776467367260e-02
2.376000000000000156e+01,2.532780236247349215e-02
2.380000000000000071e+01,3.268571960640731522e-02
2.383999999999999986e+01,2.267568051475653268e-02
2.387999999999999901e+01,2.446675396561993551e-02
2.392000000000000171e+01,2.625771155216150704e-02
2.396000000000000085e+01,2.448591725636406133e-02
2.400000000000000000e+01,3.696454233930606542e-02
2.403999999999999915e+01,1.715667156562029547e-02
2.407999999999999829e+01,3.564700041665438274e-02
2.412000000000000099e+01,3.966400320063782209e-02
2.416000000000000014e+01,3.967291742646036901e-02
2.419999999999999929e+01,5.836677295548460889e-03
2.423999999999999844e+01,1.185728351745133496e-02
2.428000000000000114e+01,1.542844938078937952e-02
2.432000000000000028e+01,2.812873569023848982e-02
2.435999999999999943e+01,4.483685381368028577e-02
2.439999999999999858e+01,3.660639658917022587e-02
2.444000000000000128e+01,2.726248107503321735e-02
2.448000000000000043e+01,4.352486489863786195e-02
2.451999999999999957e+01,1.636750224973460358e-02
2.455999999999999872e+01,2.283236372523120283e-02
2.460000000000000142e+01,2.595711443352221107e-02
2.464000000000000057e+01,3.153103404119500519e-02
2.467999999999999972e+01,2.307693629911108588e-02
2.471999999999999886e+01,3.310385997272806413e-02
2.476000000000000156e+01,2.442680551128315752e-02
2.480000000000000071e+01,2.755082974781872598e-02
2.483999999999999986e+01,1.486551347533368768e-02
2.487999999999999901e+01,1.064130307046731901e-02
2.492000000000000171e+01,1.955415490402045986e-02
2.496000000000000085e+01,1.978293090708055021e-02
2.500000000000000000e+01,2.246086256600922718e-02
2.503999999999999915e+01,3.070525363750624404e-02
2.507999999999999829e+01,2.046831946108705266e-02
2.512000000000000099e+01,1.156721323024538332e-02
2.516000000000000014e+01,1.513516643134277598e-02
2.519999999999999929e+01,2.426957315900252904e-02
2.523999999999999844e+01,1.714929534431258035e-02
2.528000000000000114e+01,1.158750424835180461e-02
2.532000000000000028e+01,2.539737113219887182e-02
2.535999999999999943e+01,1.649527394363140692e-02
2.539999999999999858e+01,3.342210690742910412e-02
2.544000000000000128e+01,2.340634433182184684e-02
2.548000000000000043e+01,1.940235430058119895e-02
2.551999999999999957e+01,1.383953693085927111e-02
2.555999999999999872e+01,3.944959564727079648e-02
2.560000000000000142e+01,2.676115532125128427e-02
2.564000000000000057e+01,1.563118847044764684e-02
2.567999999999999972e+01,4.235403306599055950e-02
2.571999999999999886e+01,2.231711715662255263e-02
2.576000000000000156e+01,3.323040531672324938e-02
2.580000000000000071e+01,3.879955663215908790e-02
2.583999999999999986e+01,1.386346314665909234e-02
2.587999999999999901e+01,2.143622193022416689e-02
2.592000000000000171e+01,1.398373538894678728e-03
2.596000000000000085e+01,1.832266765677242545e-02
2.600000000000000000e+01,1.587494404557105235e-02
2.603999999999999915e+01,3.458016920040905134e-02
2.607999999999999829e+01,1.231490174491135965e-02
2.612000000000000099e+01,2.834775886755859162e-02
2.616000000000000014e+01,2.723523896669330022e-02
2.619999999999999929e+01,3.013048319075297896e-02
2.623999999999999844e+01,3.213486756677676887e-02
2.628000000000000114e+01,3.324839062326303413e-02
2.632000000000000028e+01,1.966584202096070821e-02
2.635999999999999943e+01,2.567757779858521536e-02
2.639999999999999858e+01,4.081835750424411130e-02
2.644000000000000128e+01,2.344988840402986718e-02
2.648000000000000043e+01,2.367171733682277290e-02
2.651999999999999957e+01,1.320543111815026746e-02
2.655999999999999872e+01,3.034934965155827724e-02
2.660000000000000142e+01,3.569182679471174374e-02
2.664000000000000057e+01,3.524480687335478091e-02
2.667999999999999972e+01,2.166035466379692687e-02
2.671999999999999886e+01,3.279146075126935372e-02
2.676000000000000156e+01,1.653459342147371725e-02
2.680000000000000071e+01,1.452804246531457302e-02
2.683999999999999986e+01,1.563857345342798549e-02
2.687999999999999901e+01,1.853019695936884009e-02
2.692000000000000171e+01,1.563231310028915730e-02
2.696000000000000085e+01,1.451551881603403357e-02
2.700000000000000000e+01,2.564505161549292603e-02
2.703999999999999915e+01,3.151990240770182784e-03
2.707999999999999829e+01,3.855150813399525062e-02
2.712000000000000099e+01,3.387115379447559055e-02
2.716000000000000014e+01,2.340128326092662595e-02
2.719999999999999929e+01,2.139243324791079148e-02
2.723999999999999844e+01,2.806726694308406614e-02
2.728000000000000114e+01,2.093665230006260675e-02
2.732000000000000028e+01,2.293504774054163156e-02
2.735999999999999943e+01,2.448787144925799325e-02
2.739999999999999858e+01,1.178991308696073631e-02
2.744000000000000128e+01,3.115542028685658327e-02
2.748000000000000043e+01,1.600765848942579950e-02
2.751999999999999957e+01,3.292335931118522963e-02
2.755999999999999872e+01,2.913099706036486117e-02
2.760000000000000142e+01,2.333440163467197931e-02
2.764000000000000057e+01,1.197093701608949352e-02
2.767999999999999972e+01,1.752973230799816443e-02
2.771999999999999886e+01,3.266285228670752494e-02
2.776000000000000156e+01,2.263460865218432094e-02
2.780000000000000071e+01,1.884071687409980336e-02
2.783999999999999986e+01,1.504656502454955989e-02
2.787999999999999901e+01,1.236547492781818469e-02
2.792000000000000171e+01,3.373190500560148408e-02
2.796000000000000085e+01,3.238627536337480156e-02
2.800000000000000000e+01,8.773913847951038750e-03
2.803999999999999915e+01,1.744766048135584779e-02
2.807999999999999829e+01,2.389449162271349222e-02
2.812000000000000099e+01,3.323569296113926264e-02
2.816000000000000014e+01,1.828989830310276312e-03
2.819999999999999929e+01,2.363886692308569265e-02
2.823999999999999844e+01,2.696730251932854747e-02
2.828000000000000114e+01,2.673282731107334484e-02
2.832000000000000028e+01,4.052594790024153376e-02
2.835999999999999943e+01,1.913777314157914453e-02
2.839999999999999858e+01,4.250491420103789247e-02
2.844000000000000128e+01,3.403072685702178413e-02
2.848000000000000043e+01,2.889622578487505838e-02
2.851999999999999957e+01,4.981320474713620688e-02
2.855999999999999872e+01,3.688486895900262158e-02
2.860000000000000142e+01,2.417890980003250742e-02
2.864000000000000057e+01,3.218047444119156997e-02
2.867999999999999972e+01,2.103258742183039195e-02
2.871999999999999886e+01,1.522835977774518630e-02
2.876000000000000156e+01,3.703425595315938679e-02
2.880000000000000071e+01,3.857737275776267766e-02
2.883999999999999986e+01,3.967486338504899734e-02
2.887999999999999901e+01,1.716960181116240422e-02
2.892000000000000171e+01,3.429834976526123513e-02
2.896000000000000085e+01,3.918024019220428533e-02
2.900000000000000000e+01,3.381925355290515967e-02
2.903999999999999915e+01,5.272841054523681042e-02
2.907999999999999829e+01,3.133495854209416426e-02
2.912000000000000099e+01,4.801685609532901911e-02
2.916000000000000014e+01,4.421329637508215199e-02
2.919999999999999929e+01,5.154265951018224823e-02
2.923999999999999844e+01,6.466099220935346559e-02
2.928000000000000114e+01,6.152449174452663538e-02
2.932000000000000028e+01,6.484495187823992313e-02
2.935999999999999943e+01,7.016907795584675922e-02
2.939999999999999858e+01,8.061417373404729247e-02
2.944000000000000128e+01,9.996553694701329484e-02
2.948000000000000043e+01,1.257738548725134964e-01
2.951999999999999957e+01,1.506911922868571507e-01
2.955999999999999872e+01,2.123478751161184674e-01
2.960000000000000142e+01,2.809068375617241320e-01
2.964000000000000057e+01,3.924397529356474790e-01
2.967999999999999972e+01,5.110976096420692949e-01
2.971999999999999886e+01,6.956638762270034304e-01
2.976000000000000156e+01,8.938123563169931840e-01
2.980000000000000071e+01,1.000000000000000000e+00
2.983999999999999986e+01,9.859483940915509947e-01
2.987999999999999901e+01,8.407469688214393999e-01
2.992000000000000171e+01,6.648174839980847128e-01
2.996000000000000085e+01,4.944542775926177858e-01
3.000000000000000000e+01,3.735222859875156898e-01
3.003999999999999915e+01,2.614965397446569195e-01
3.007999999999999829e+01,2.222817945706715981e-01
3.012000000000000099e+01,1.746054484016610064e-01
3.016000000000000014e+01,1.389526484085910341e-01
3.019999999999999929e+01,1.275699493736089929e-01
3.023999999999999844e+01,9.124846015146068079e-02
3.028000000000000114e+01,1.199447015701745473e-01
3.032000000000000028e+01,1.074476297402398445e-01
3.035999999999999943e+01,1.098687372977825150e-01
3.039999999999999858e+01,1.051642215147332582e-01
3.044000000000000128e+01,1.334137195678959664e-01
3.048000000000000043e+01,1.890506135068378279e-01
3.051999999999999957e+01,2.266513113919779443e-01
3.055999999999999872e+01,3.072259283609020675e-01
3.060000000000000142e+01,4.519276055620474741e-01
3.064000000000000057e+01,4.657021001021598994e-01
3.067999999999999972e+01,3.964223122285468470e-01
3.071999999999999886e+01,2.950784474167177929e-01
3.076000000000000156e+01,2.237939441000445784e-01
3.080000000000000071e+01,1.585210176180426589e-01
3.083999999999999986e+01,1.564844839026243717e-01
3.087999999999999901e+01,1.188212328164680864e-01
3.092000000000000171e+01,1.138893132493489085e-01
3.096000000000000085e+01,9.092118144191184415e-02
3.100000000000000000e+01,9.400443843579128766e-02
3.103999999999999915e+01,6.524627137860021520e-02
3.107999999999999829e+01,8.391529745881898261e-02
3.112000000000000099e+01,7.519618972810940272e-02
3.116000000000000014e+01,7.315663956602949658e-02
3.119999999999999929e+01,7.512466959119078191e-02
3.123999999999999844e+01,8.510824219692239567e-02
3.128000000000000114e+01,8.952481170313048020e-02
3.132000000000000028e+01,9.171434652567234114e-02
3.135999999999999943e+01,1.065953773565821855e-01
3.139999999999999858e+01,1.225893404481818022e-01
3.144000000000000128e+01,1.131991398892564227e-01
3.148000000000000043e+01,1.445561779780087930e-01
3.151999999999999957e+01,1.663382402733980803e-01
3.155999999999999872e+01,1.939091867857734297e-01
3.160000000000000142e+01,2.003265922856058145e-01
3.164000000000000057e+01,2.521671883894122113e-01
3.167999999999999972e+01,2.886435216757611832e-01
3.171999999999999886e+01,3.124275665830382742e-01
3.176000000000000156e+01,3.647122835838338406e-01
3.180000000000000071e+01,3.922808176680631087e-01
3.183999999999999986e+01,4.450100510154489375e-01
3.187999999999999901e+01,4.442993574719797945e-01
3.192000000000000171e+01,4.945784607109059428e-01
3.196000000000000085e+01,6.020819697171284623e-01
3.200000000000000000e+01,6.069366577442391053e-01
3.203999999999999915e+01,5.616913828818473897e-01
3.207999999999999829e+01,4.705767721824402616e-01
3.211999999999999744e+01,3.594219246367572618e-01
3.215999999999999659e+01,2.774357284470496676e-01
3.220000000000000284e+01,2.005703989528327680e-01
3.224000000000000199e+01,1.651202741252373596e-01
3.228000000000000114e+01,1.539401737376534796e-01
3.232000000000000028e+01,1.124772548250527193e-01
3.235999999999999943e+01,1.139881887786697856e-01
3.239999999999999858e+01,8.543896592342432872e-02
3.243999999999999773e+01,1.190127536789173934e-01
3.247999999999999687e+01,8.378273098918302686e-02
3.252000000000000313e+01,8.685059743735835946e-02
3.256000000000000227e+01,9.459398801919663424e-02
3.260000000000000142e+01,6.671059795573376638e-02
3.264000000000000057e+01,5.953458454225309116e-02
3.267999999999999972e+01,6.282337198601954664e-02
3.271999999999999886e+01,6.009977403789500822e-02
3.275999999999999801e+01,7.808354832524833089e-02
3.279999999999999716e+01,6.444849847462365278e-02
3.284000000000000341e+01,3.567180779215613912e-02
3.288000000000000256e+01,7.525272199031417253e-02
3.292000000000000171e+01,5.560438990049043628e-02
3.296000000000000085e+01,5.443677609706466108e-02
3.300000000000000000e+01,6.172996944645900430e-02
3.303999999999999915e+01,5.343618528818873392e-02
3.307999999999999829e+01,7.475634795967457669e-02
3.311999999999999744e+01,8.071219483965012820e-02
3.315999999999999659e+01,9.935947151042770487e-02
3.320000000000000284e+01,1.643205400332510557e-01
3.324000000000000199e+01,2.551102502941512418e-01
3.328000000000000114e+01,2.897880062517581568e-01
3.332000000000000028e+01,3.240199712238833185e-01
3.335999999999999943e+01,2.789828543973577601e-01
3.339999999999999858e+01,2.078935078392635527e-01
3.343999999999999773e+01,1.483822574756748225e-01
3.347999999999999687e+01,1.167036219535694669e-01
3.352000000000000313e+01,8.658317002089035985e-02
3.356000000000000227e+01,8.963928180646574262e-02
3.360000000000000142e+01,9.826153810329490979e-02
3.364000000000000057e+01,6.947565822252674272e-02
3.367999999999999972e+01,7.431166696382314474e-02
3.371999999999999886e+01,6.801396636507496540e-02
3.375999999999999801e+01,8.888087632982821784e-02
3.379999999999999716e+01,5.920242934070020502e-02
3.384000000000000341e+01,1.038934977134082505e-01
3.388000000000000256e+01,9.870720016670382624e-02
3.392000000000000171e+01,8.839913171969332462e-02
3.396000000000000085e+01,8.209854192632259906e-02
3.400000000000000000e+01,9.605994943356964411e-02
3.403999999999999915e+01,1.109115274232518877e-01
3.407999999999999829e+01,1.019374972574130511e-01
3.411999999999999744e+01,1.343786025976264897e-01
3.415999999999999659e+01,1.280755646757798238e-01
3.420000000000000284e+01,1.464878098801886130e-01
3.424000000000000199e+01,1.604462663897513741e-01
3.428000000000000114e+01,1.521377600003862574e-01
3.432000000000000028e+01,1.736658194833889945e-01
3.435999999999999943e+01,1.724815838061465045e-01
3.439999999999999858e+01,1.675115475255237740e-01
3.443999999999999773e+01,1.799088517899583572e-01
3.447999999999999687e+01,1.733791556853165605e-01
3.452000000000000313e+01,1.423558412611656276e-01
3.456000000000000227e+01,1.661075257059860810e-01
3.460000000000000142e+01,1.339698719471218158e-01
3.464000000000000057e+01,1.370127241083875513e-01
3.467999999999999972e+01,1.146712934275093965e-01
3.471999999999999886e+01,1.041305765122469001e-01
3.475999999999999801e+01,1.013826080262680146e-01
3.479999999999999716e+01,1.046460692248133567e-01
3.484000000000000341e+01,8.831452283329736808e-02
3.488000000000000256e+01,7.866239716077430555e-02
3.492000000000000171e+01,8.749091767107715356e-02
3.496000000000000085e+01,8.674433583889068489e-02
3.500000000000000000e+01,7.330534496451175663e-02
3.503999999999999915e+01,7.723367256266806813e-02
3.507999999999999829e+01,6.579761226574204480e-02
3.511999999999999744e+01,8.219410647873913456e-02
3.515999999999999659e+01,6.585836643938525192e-02
3.520000000000000284e+01,7.356987876127830950e-02
3.524000000000000199e+01,7.682756560078847496e-02
3.528000000000000114e+01,7.295944957652722440e-02
3.532000000000000028e+01,6.040687660289240785e-02
3.535999999999999943e+01,7.479619067354287276e-02
3.539999999999999858e+01,8.183703280676041247e-02
3.543999999999999773e+01,6.572021073087845611e-02
3.547999999999999687e+01,8.879182753842627951e-02
3.552000000000000313e+01,8.158050810083962434e-02
3.556000000000000227e+01,9.997508039508747057e-02
3.560000000000000142e+01,8.318809099973835386e-02
3.564000000000000057e+01,1.020269000552971039e-01
3.567999999999999972e+01,1.012706706192636336e-01
3.571999999999999886e+01,9.873257395271671510e-02
3.575999999999999801e+01,1.191283857506098554e-01
3.579999999999999716e+01,1.268317590762811919e-01
3.584000000000000341e+01,1.487851162162568408e-01
3.588000000000000256e+01,1.429048351183145604e-01
3.592000000000000171e+01,1.539465108015605765e-01
3.596000000000000085e+01,1.974966679355012467e-01
3.600000000000000000e+01,2.196704575325799103e-01
3.603999999999999915e+01,2.059946752760737076e-01
3.607999999999999829e+01,2.528831171095715091e-01
3.611999999999999744e+01,2.701565946028845477e-01
3.615999999999999659e+01,3.074693252765786089e-01
3.620000000000000284e+01,3.240736750333750860e-01
3.624000000000000199e+01,3.397867970667680648e-01
3.628000000000000114e+01,3.550540192235704939e-01
3.632000000000000028e+01,3.371436351361646877e-01
3.635999999999999943e+01,3.201233361841088754e-01
3.639999999999999858e+01,2.812813256618618696e-01
3.643999999999999773e+01,2.491186784700506474e-01
3.647999999999999687e+01,2.499098229177292574e-01
3.652000000000000313e+01,2.288792513807123008e-01
3.656000000000000227e+01,1.889216029565425614e-01
3.660000000000000142e+01,1.739018140276972768e-01
3.664000000000000057e+01,1.611080878886352041e-01
3.667999999999999972e+01,1.463097945438671110e-01
3.671999999999999886e+01,1.344055550233510810e-01
3.675999999999999801e+01,1.327433016077749495e-01
3.679999999999999716e+01,1.531242597609716316e-01
3.684000000000000341e+01,1.340929820840381093e-01
3.688000000000000256e+01,1.322062905314148606e-01
3.692000000000000171e+01,1.312096635131210220e-01
3.696000000000000085e+01,1.344430694450139685e-01
3.700000000000000000e+01,1.227573461680684375e-01
3.703999999999999915e+01,9.904713277982735153e-02
3.707999999999999829e+01,8.290691781462733445e-02
3.711999999999999744e+01,1.015017882181518116e-01
3.715999999999999659e+01,8.580569818015100492e-02
3.720000000000000284e+01,5.563580089411887530e-02
3.724000000000000199e+01,4.461445842129913714e-02
3.728000000000000114e+01,5.051502269861782995e-02
3.732000000000000028e+01,5.262967895294893422e-02
3.735999999999999943e+01,5.095842571279100147e-02
3.739999999999999858e+01,4.795057275737229369e-02
3.743999999999999773e+01,4.293812463771968374e-02
3.747999999999999687e+01,3.324910397244459220e-02
3.752000000000000313e+01,2.200081451824702564e-02
3.756000000000000227e+01,2.945573878693569583e-02
3.760000000000000142e+01,3.112076279971112344e-02
3.764000000000000057e+01,2.899986701748725332e-02
3.767999999999999972e+01,2.153439735466180713e-02
3.771999999999999886e+01,1.785360336518071814e-02
3.775999999999999801e+01,2.107478880574398944e-02
3.779999999999999716e+01,2.140070720193095258e-02
3.784000000000000341e+01,2.528863219780071864e-02
3.788000000000000256e+01,2.405464061471871209e-02
3.792000000000000171e+01,3.105861053061875418e-02
3.796000000000000085e+01,1.757679944271377248e-02
3.800000000000000000e+01,7.434324409328241408e-03
3.803999999999999915e+01,1.554971612249672272e-02
3.807999999999999829e+01,2.299647708235126597e-02
3.811999999999999744e+01,2.554397729340250611e-02
3.815999999999999659e+01,2.920416108139489014e-02
3.820000000000000284e+01,3.375436231566964623e-02
3.824000000000000199e+01,1.826410156394353557e-02
3.828000000000000114e+01,1.769172884240385532e-02
3.832000000000000028e+01,1.778670449348484367e-02
3.835999999999999943e+01,1.721303909074158381e-02
3.839999999999999858e+01,2.020135968666041809e-02
3.843999999999999773e+01,1.806774310260696181e-02
3.847999999999999687e+01,3.285598912364772611e-02
3.852000000000000313e+01,3.584235524699582592e-02
3.856000000000000227e+01,2.390953477294804549e-02
3.860000000000000142e+01,1.932399214572835464e-02
3.864000000000000057e+01,1.718710339237559948e-02
3.867999999999999972e+01,1.527222044981581262e-02
3.871999999999999886e+01,1.046203661834600902e-02
3.875999999999999801e+01,1.166313679275485585e-02
3.879999999999999716e+01,1.108225643103693744e-02
3.884000000000000341e+01,1.873930372376725675e-02
3.888000000000000256e+01,1.036382935130374973e-02
3.892000000000000171e+01,1.712888412416035261e-02
3.896000000000000085e+01,1.543201270016678409e-02
3.900000000000000000e+01,1.484779395158344201e-02
3.903999999999999915e+01,2.294682481825547488e-02
3.907999999999999829e+01,1.879862586789958490e-02
3.911999999999999744e+01,1.554041051929230810e-02
3.915999999999999659e+01,1.183618934598854207e-02
3.920000000000000284e+01,2.460847497243819418e-02
3.924000000000000199e+01,2.644394320971544914e-03
3.928000000000000114e+01,2.498989992091179418e-02
3.932000000000000028e+01,2.417759857610999805e-02
3.935999999999999943e+01,1.980197882090289907e-02
3.939999999999999858e+01,1.397800203398155781e-03
3.943999999999999773e+01,1.639263365258907326e-02
3.947999999999999687e+01,1.179228881754811574e-02
3.952000000000000313e+01,2.055113378204713806e-02
3.956000000000000227e+01,1.706273127150065988e-02
3.960000000000000142e+01,1.268297743142714901e-02
3.964000000000000057e+01,1.386914590588531754e-02
3.967999999999999972e+01,1.215997817539821862e-02
3.971999999999999886e+01,6.664814131835296827e-03
3.975999999999999801e+01,1.631014833206156575e-02
3.979999999999999716e+01,1.304023225076178516e-02
3.984000000000000341e+01,2.134817692373221221e-02
3.988000000000000256e+01,5.162306095996466171e-03
3.992000000000000171e+01,1.146486137823339753e-02
3.996000000000000085e+01,4.406831174623851780e-03
4.000000000000000000e+01,5.586685951919822569e-03
4.003999999999999915e+01,1.901238810345046507e-02
4.007999999999999829e+01,4.604297509408796646e-03
4.011999999999999744e+01,1.357528430446144907e-02
4.015999999999999659e+01,2.499486905632517311e-02
4.020000000000000284e+01,5.018022101596159024e-03
4.024000000000000199e+01,1.153755334965862224e-02
4.028000000000000114e+01,2.518163598233005840e-02
4.032000000000000028e+01,1.611320420103720674e-02
4.035999999999999943e+01,9.270698359890777729e-03
4.039999999999999858e+01,2.001797846923989224e-02
4.043999999999999773e+01,5.158099181075979055e-03
4.047999999999999687e+01,2.236120574562597274e-02
4.052000000000000313e+01,2.286373633595010710e-02
4.056000000000000227e+01,2.002556902998210708e-02
4.060000000000000142e+01,6.053439285716601288e-03
4.064000000000000057e+01,5.217793479792721262e-03
4.067999999999999972e+01,1.462398957166466222e-02
4.071999999999999886e+01,1.868549994882329202e-02
4.075999999999999801e+01,2.719956814268623124e-02
4.079999999999999716e+01,2.057170267591380136e-02
4.084000000000000341e+01,6.595165147508377963e-03
4.088000000000000256e+01,2.178695818775791201e-02
4.092000000000000171e+01,1.849684326550882912e-02
4.096000000000000085e+01,3.146050573779110571e-02
4.100000000000000000e+01,1.124638980019325094e-02
4.103999999999999915e+01,2.153658650018794307e-02
4.107999999999999829e+01,1.579418060240794786e-02
4.111999999999999744e+01,2.407889962158091257e-02
4.115999999999999659e+01,1.633101309997629993e-02
4.120000000000000284e+01,7.891119549108956913e-04
4.124000000000000199e+01,1.953681529560404029e-02
4.128000000000000114e+01,2.381056129511592220e-02
4.132000000000000028e+01,1.895430030171911182e-02
4.135999999999999943e+01,6.972012776327513213e-03
4.139999999999999858e+01,1.013016316316475880e-02
4.143999999999999773e+01,2.108081623854018635e-02
4.147999999999999687e+01,1.867082791101316863e-02
4.152000000000000313e+01,1.202944773452980023e-02
4.156000000000000227e+01,2.832176265477321861e-02
4.160000000000000142e+01,2.101085743637628664e-02
4.164000000000000057e+01,1.548050175176431814e-02
4.167999999999999972e+01,6.609406968819033640e-03
4.171999999999999886e+01,1.866801946417945973e-02
4.175999999999999801e+01,1.669798627865540577e-02
4.179999999999999716e+01,1.873514333248306463e-02
4.184000000000000341e+01,1.654089676534247280e-02
4.188000000000000256e+01,1.568186158466347915e-02
4.192000000000000171e+01,1.148207847664235379e-02
4.196000000000000085e+01,1.218013835859583192e-02
4.200000000000000000e+01,1.978002169143796771e-02
4.203999999999999915e+01,2.604313461484874387e-02
4.207999999999999829e+01,5.140375195085448642e-03
4.211999999999999744e+01,2.050003110411687934e-03
4.215999999999999659e+01,9.201418477979325661e-03
4.220000000000000284e+01,1.924668607409765406e-02
4.224000000000000199e+01,1.637661362710010962e-02
4.228000000000000114e+01,1.350574989660600911e-02
4.232000000000000028e+01,7.516788182912266872e-03
4.235999999999999943e+01,2.379349815844425051e-02
4.239999999999999858e+01,1.490830595120576363e-02
4.243999999999999773e+01,2.160884271547238236e-02
4.247999999999999687e+01,1.005007878784035247e-02
4.252000000000000313e+01,2.253829793668619269e-02
4.256000000000000227e+01,1.698987810978762683e-02
4.260000000000000142e+01,1.967924761619912338e-02
4.264000000000000057e+01,1.257056759268164979e-02
4.267999999999999972e+01,2.037961373418878397e-02
4.271999999999999886e+01,2.529321183663887224e-02
4.275999999999999801e+01,1.484213951572430946e-02
4.279999999999999716e+01,1.418750178471308958e-02
4.284000000000000341e+01,2.978657228766412243e-02
4.288000000000000256e+01,1.376644783426670196e-02
4.292000000000000171e+01,1.043739412531250257e-02
4.296000000000000085e+01,1.490078718784056816e-02
4.300000000000000000e+01,1.312875202344251230e-02
4.303999999999999915e+01,0.000000000000000000e+00
4.307999999999999829e+01,2.249677272819189042e-02
4.311999999999999744e+01,1.782763485417151669e-02
4.315999999999999659e+01,2.540422957727104733e-02
4.320000000000000284e+01,2.518673610183633921e-02
4.324000000000000199e+01,3.476566102978884132e-02
4.328000000000000114e+01,1.962798072025301321e-02
4.332000000000000028e+01,1.918533837256096442e-02
4.335999999999999943e+01,2.252716421650589537e-02
4.339999999999999858e+01,1.406693063957872164e-02
4.343999999999999773e+01,1.918840731420470846e-02
4.347999999999999687e+01,2.675835981101977804e-02
4.352000000000000313e+01,2.029960188088563225e-02
4.356000000000000227e+01,1.406267023836520538e-02
4.360000000000000142e+01,1.717681443740423641e-02
4.364000000000000057e+01,2.919670368818677586e-02
4.367999999999999972e+01,4.522371401775181904e-02
4.371999999999999886e+01,4.744467122201766196e-02
4.375999999999999801e+01,4.343017224082944966e-02
4.379999999999999716e+01,6.502126186217274673e-02
4.384000000000000341e+01,7.725958712685751517e-02
4.388000000000000256e+01,9.350502611281746868e-02
4.392000000000000171e+01,8.970979415956771563e-02
4.396000000000000085e+01,7.344448820695356761e-02
4.400000000000000000e+01,7.788614099790400203e-02
4.403999999999999915e+01,5.560717866042286933e-02
4.407999999999999829e+01,3.755798734586678761e-02
4.411999999999999744e+01,4.867700740834650375e-02
4.415999999999999659e+01,4.509929952238187628e-02
4.420000000000000284e+01,4.619668756315237212e-02
4.424000000000000199e+01,3.326533868994731302e-02
4.428000000000000114e+01,2.679040007373240453e-02
4.432000000000000028e+01,3.946375581496973373e-02
4.435999999999999943e+01,4.033501681929956006e-02
4.439999999999999858e+01,3.519346275330900720e-02
4.443999999999999773e+01,3.294567851178678564e-02
4.447999999999999687e+01,3.804495580637645702e-02
4.452000000000000313e+01,2.911548588648021907e-02
4.456000000000000227e+01,1.751316489761654133e-02
4.460000000000000142e+01,5.623218024771008128e-02
4.464000000000000057e+01,4.329211657123768764e-02
4.467999999999999972e+01,5.328563321437751465e-02
4.471999999999999886e+01,6.416892744905997037e-02
4.475999999999999801e+01,8.507124882923108866e-02
4.479999999999999716e+01,1.110939733819297781e-01
4.484000000000000341e+01,1.351118305426224631e-01
4.488000000000000256e+01,1.920831703274963886e-01
4.492000000000000171e+01,1.746836255512543568e-01
4.496000000000000085e+01,1.381340302133933773e-01
4.500000000000000000e+01,1.107127945553832565e-01
4.503999999999999915e+01,9.843186290296823682e-02
4.507999999999999829e+01,7.835677389144986293e-02
4.511999999999999744e+01,6.206608832550374738e-02
4.515999999999999659e+01,5.779839712244690814e-02
4.520000000000000284e+01,4.217390959926614613e-02
4.524000000000000199e+01,3.634576690439910579e-02
4.528000000000000114e+01,2.450477676617941747e-02
4.532000000000000028e+01,2.401878112737124843e-02
4.535999999999999943e+01,3.154780862911434752e-02
4.539999999999999858e+01,3.306398427300032139e-02
4.543999999999999773e+01,1.431676840146356953e-02
4.547999999999999687e+01,3.475762353798902971e-02
4.552000000000000313e+01,2.335652193991169870e-02
4.556000000000000227e+01,1.551714294173322725e-02
4.560000000000000142e+01,2.237271802981478930e-02
4.564000000000000057e+01,2.477408504513117782e-02
4.567999999999999972e+01,1.960393728797939217e-02
4.571999999999999886e+01,2.044481749545042429e-02
4.575999999999999801e+01,2.217543703542589409e-02
4.579999999999999716e+01,2.034250125325935341e-02
4.584000000000000341e+01,2.986454084098521394e-02
4.588000000000000256e+01,1.845517874930046459e-02
4.592000000000000171e+01,2.663938147332348474e-02
4.596000000000000085e+01,3.415466355824287731e-02
4.600000000000000000e+01,2.029321023093269560e-02
4.603999999999999915e+01,2.201735343999535258e-02
4.607999999999999829e+01,2.975251137016758293e-02
4.611999999999999744e+01,3.726407209354484079e-02
4.615999999999999659e+01,2.629353208773081360e-02
4.620000000000000284e+01,3.268990000554189423e-02
4.624000000000000199e+01,2.104949356947327654e-02
4.628000000000000114e+01,2.655332745486950127e-02
4.632000000000000028e+01,1.780568324905649341e-02
4.635999999999999943e+01,2.152631857940300389e-02
4.639999999999999858e+01,1.834340662772665498e-02
4.643999999999999773e+01,2.206215479027559892e-02
4.647999999999999687e+01,2.065867000105679058e-02
4.652000000000000313e+01,4.129803920575347148e-02
4.656000000000000227e+01,3.454870659995419591e-02
4.660000000000000142e+01,3.514635754068886481e-02
4.664000000000000057e+01,2.705913509713378517e-02
4.667999999999999972e+01,3.388949166845633271e-02
4.671999999999999886e+01,3.114431327585719111e-02
4.675999999999999801e+01,1.659695185626238606e-02
4.679999999999999716e+01,3.166303254141942386e-02
4.684000000000000341e+01,3.537225657489232594e-02
4.688000000000000256e+01,4.598312453607440037e-02
4.692000000000000171e+01,4.323315097015419800e-02
4.696000000000000085e+01,3.625158543107750292e-02
4.700000000000000000e+01,3.260902485868954342e-02
4.703999999999999915e+01,3.119214448570251097e-02
4.707999999999999829e+01,4.157552318437685024e-02
4.711999999999999744e+01,5.039927993377586041e-02
4.715999999999999659e+01,4.007290518897522330e-02
4.720000000000000284e+01,4.934004817183532121e-02
4.724000000000000199e+01,4.569166717389587518e-02
4.728000000000000114e+01,4.560494550129205044e-02
4.732000000000000028e+01,5.108386361493771899e-02
4.735999999999999943e+01,6.502306061237557444e-02
4.739999999999999858e+01,5.201885421610111943e-02
4.743999999999999773e+01,5.704950410437788916e-02
4.747999999999999687e+01,6.185650675480957456e-02
4.752000000000000313e+01,6.287722614937878152e-02
4.756000000000000227e+01,6.389696002225735139e-02
4.760000000000000142e+01,7.404495792739108906e-02
4.764000000000000057e+01,7.461738702406932322e-02
4.767999999999999972e+01,9.033002300724560230e-02
4.771999999999999886e+01,7.954457314301233151e-02
4.775999999999999801e+01,8.679396779131845485e-02
4.779999999999999716e+01,9.649167933965487054e-02
4.784000000000000341e+01,1.017351018826452430e-01
4.788000000000000256e+01,1.011882459938445583e-01
4.792000000000000171e+01,8.906182906366287566e-02
4.796000000000000085e+01,8.673165689969486447e-02
4.800000000000000000e+01,6.859129222735511899e-02
4.803999999999999915e+01,6.982174972198801344e-02
4.807999999999999829e+01,7.661781904434235291e-02
4.811999999999999744e+01,7.517428985516715068e-02
4.815999999999999659e+01,5.101795783773940829e-02
4.820000000000000284e+01,4.957241198863723830e-02
4.824000000000000199e+01,4.678986764737588094e-02
4.828000000000000114e+01,4.422897595655459618e-02
4.832000000000000028e+01,4.300305874045821930e-02
4.835999999999999943e+01,3.442819282045240376e-02
4.839999999999999858e+01,3.475889684351515796e-02
4.843999999999999773e+01,4.176852274657243125e-02
4.847999999999999687e+01,3.608524371144179732e-02
4.852000000000000313e+01,4.287016475139136112e-02
4.856000000000000227e+01,3.050490279458975204e-02
4.860000000000000142e+01,2.927185001492184357e-02
4.864000000000000057e+01,3.961633425920069174e-02
4.867999999999999972e+01,2.234937404424836016e-02
4.871999999999999886e+01,3.736776121186432403e-02
4.875999999999999801e+01,2.098940177157289713e-02
4.879999999999999716e+01,2.464983051719790708e-02
4.884000000000000341e+01,3.120386722212950548e-02
4.888000000000000256e+01,2.617830756964471470e-02
4.892000000000000171e+01,3.495692123216893182e-02
4.896000000000000085e+01,1.968671468146775128e-02
4.900000000000000000e+01,1.866600782108709250e-02
4.903999999999999915e+01,1.875758428924763008e-02
4.907999999999999829e+01,2.508272977506460430e-02
4.911999999999999744e+01,2.650820984917406226e-02
4.915999999999999659e+01,1.301411337799811448e-02
4.920000000000000284e+01,1.755480844530859022e-02
4.924000000000000199e+01,2.699307868932624213e-02
4.928000000000000114e+01,3.531697684130369330e-02
4.932000000000000028e+01,2.938928653946159750e-02
4.935999999999999943e+01,2.212455654341916392e-02
4.939999999999999858e+01,1.374545004083210613e-02
4.943999999999999773e+01,2.562777283929526181e-02
4.947999999999999687e+01,2.882511777686426122e-02
4.952000000000000313e+01,3.135341111169885620e-02
4.956000000000000227e+01,2.430606500600734562e-02
4.960000000000000142e+01,2.994954390401356054e-02
4.964000000000000057e+01,2.646270973680528438e-02
4.967999999999999972e+01,2.809609921894519816e-02
4.971999999999999886e+01,2.193516064781123043e-02
4.975999999999999801e+01,2.467974198869576224e-02
4.979999999999999716e+01,2.586460278970644996e-02
4.984000000000000341e+01,2.526707692018471951e-02
4.988000000000000256e+01,3.958701234542288255e-02
4.992000000000000171e+01,2.473680508078355059e-02
4.996000000000000085e+01,2.725336741863100889e-02
5.000000000000000000e+01,3.733945288454468270e-02
5.003999999999999915e+01,4.363916239000322633e-02
5.007999999999999829e+01,3.746857275637228285e-02
5.011999999999999744e+01,4.087148376871842237e-02
5.015999999999999659e+01,4.293732565683480717e-02
5.020000000000000284e+01,4.567007888163518436e-02
5.024000000000000199e+01,5.574968174633573859e-02
5.028000000000000114e+01,6.070691186662877797e-02
5.032000000000000028e+01,6.677637822741598617e-02
5.035999999999999943e+01,7.774337856286907267e-02
5.039999999999999858e+01,1.000651865170470028e-01
5.043999999999999773e+01,1.054633889054772261e-01
5.047999999999999687e+01,1.162044501723834417e-01
5.052000000000000313e+01,1.563361520352475054e-01
5.056000000000000227e+01,1.454765510667997974e-01
5.060000000000000142e+01,1.644529170696214793e-01
5.064000000000000057e+01,1.491378267349223463e-01
5.067999999999999972e+01,1.509668148565263546e-01
5.071999999999999886e+01,1.311962292695700028e-01
5.075999999999999801e+01,1.147645103281641210e-01
5.079999999999999716e+01,8.964776496631553238e-02
5.084000000000000341e+01,7.788979296909091798e-02
5.088000000000000256e+01,7.436930570437194632e-02
5.092000000000000171e+01,5.971447635397610088e-02
5.096000000000000085e+01,5.262913481561123236e-02
5.100000000000000000e+01,5.133196234451773560e-02
5.103999999999999915e+01,5.560029281003697754e-02
5.107999999999999829e+01,4.450364677988569856e-02
5.111999999999999744e+01,3.496453687851364123e-02
5.115999999999999659e+01,3.054559618093544843e-02
5.120000000000000284e+01,3.391879912553651816e-02
5.124000000000000199e+01,4.174417435345668947e-02
5.128000000000000114e+01,4.199782879870291030e-02
5.132000000000000028e+01,3.735173689966061333e-02
5.135999999999999943e+01,3.047787309471549147e-02
5.139999999999999858e+01,2.538419977719649084e-02
5.143999999999999773e+01,2.340670343054572847e-02
5.147999999999999687e+01,2.788535247062055161e-02
5.152000000000000313e+01,2.167496667081095577e-02
5.156000000000000227e+01,2.659668115702626748e-02
5.160000000000000142e+01,2.906795024917264644e-02
5.164000000000000057e+01,3.398739497720811020e-02
5.167999999999999972e+01,3.712438534564344028e-02
5.171999999999999886e+01,3.447095601814662014e-02
5.175999999999999801e+01,3.983231439096576731e-02
5.179999999999999716e+01,2.804735250783001524e-02
5.184000000000000341e+01,2.850780390599512090e-02
5.188000000000000256e+01,3.609237995334275972e-02
5.192000000000000171e+01,2.385865542034400211e-02
5.196000000000000085e+01,2.275701645835543838e-02
5.200000000000000000e+01,3.724075477902070302e-02
5.203999999999999915e+01,2.567157764843198617e-02
5.207999999999999829e+01,2.968777485749413483e-02
5.211999999999999744e+01,2.568689106403694231e-02
5.215999999999999659e+01,3.437673809818334036e-02
5.220000000000000284e+01,2.569758550220276744e-02
5.224000000000000199e+01,2.124790374284732039e-02
5.228000000000000114e+01,2.948894839659108036e-02
5.232000000000000028e+01,3.238488060019508591e-02
5.235999999999999943e+01,1.857980126513800873e-02
5.239999999999999858e+01,2.036008449772009135e-02
5.243999999999999773e+01,1.946722677554501776e-02
5.247999999999999687e+01,2.859311219907478135e-02
5.252000000000000313e+01,2.903390792759872469e-02
5.256000000000000227e+01,1.811763657972825792e-02
5.260000000000000142e+01,2.902133089839260827e-02
5.264000000000000057e+01,1.053211780592225658e-02
5.267999999999999972e+01,3.501601005692269591e-02
5.271999999999999886e+01,2.253639354243883522e-02
5.275999999999999801e+01,2.052083919146402771e-02
5.279999999999999716e+01,2.473871700850908267e-02
5.284000000000000341e+01,3.051406767977004469e-02
5.288000000000000256e+01,2.582299813925389986e-02
5.292000000000000171e+01,1.845876998596305066e-02
5.296000000000000085e+01,3.447314686979454507e-02
5.300000000000000000e+01,1.775463321161918281e-02
5.303999999999999915e+01,3.465729596879692925e-02
5.307999999999999829e+01,2.662032831146874182e-02
5.311999999999999744e+01,1.991815854868898145e-02
5.315999999999999659e+01,2.969198203164946301e-02
5.320000000000000284e+01,2.142877511947442054e-02
5.324000000000000199e+01,1.494569100565797462e-02
5.328000000000000114e+01,3.273185879358105760e-02
5.332000000000000028e+01,2.869569256619104031e-02
5.335999999999999943e+01,3.133826722411465343e-02
5.339999999999999858e+01,3.776494072680620928e-02
5.343999999999999773e+01,2.682256898282528446e-02
5.347999999999999687e+01,2.033228711808108061e-02
5.352000000000000313e+01,2.319271616253171242e-02
5.356000000000000227e+01,2.093065179945432716e-02
5.360000000000000142e+01,1.755405642217796464e-02
5.364000000000000057e+01,2.152418560717670598e-02
5.367999999999999972e+01,2.059448162930030760e-02
5.371999999999999886e+01,2.589817597490985668e-02
5.375999999999999801e+01,2.897401012452828842e-02
5.379999999999999716e+01,2.759533601508160419e-02
5.384000000000000341e+01,2.332080478916912641e-02
5.388000000000000256e+01,3.307292907124054909e-02
5.392000000000000171e+01,2.701464306272252994e-02
5.396000000000000085e+01,2.273645336553664978e-02
5.400000000000000000e+01,2.736362760121344509e-02
5.403999999999999915e+01,2.686829077134450169e-02
5.407999999999999829e+01,1.902379481285592505e-02
5.411999999999999744e+01,3.144055598974550975e-02
5.415999999999999659e+01,3.250019123018189904e-02
5.420000000000000284e+01,2.064404644856290480e-02
5.424000000000000199e+01,2.570918450045889606e-02
5.428000000000000114e+01,2.787844924937283794e-02
5.432000000000000028e+01,3.917573081829498621e-02
5.435999999999999943e+01,2.308402363393450077e-02
5.439999999999999858e+01,2.725356328444176676e-02
5.443999999999999773e+01,1.939797272051387023e-02
5.447999999999999687e+01,3.492093127665237690e-02
5.452000000000000313e+01,3.686010406125204281e-02
5.456000000000000227e+01,3.323141733247234747e-02
5.460000000000000142e+01,3.494543791751725248e-02
5.464000000000000057e+01,2.775162615882113826e-02
5.467999999999999972e+01,2.500986013431767685e-02
5.471999999999999886e+01,2.694280303166260437e-02
5.475999999999999801e+01,3.199180076525377781e-02
5.479999999999999716e+01,4.015685186358963765e-02
5.484000000000000341e+01,2.627684837039919244e-02
5.488000000000000256e+01,3.533004996394603636e-02
5.492000000000000171e+01,2.456484061453614517e-02
5.496000000000000085e+01,3.272486954403000525e-02
5.500000000000000000e+01,3.375837015952765086e-02
5.503999999999999915e+01,2.966932292194283255e-02
5.507999999999999829e+01,3.248161795426574017e-02
5.511999999999999744e+01,3.150735014544676221e-02
5.515999999999999659e+01,4.144238552836316397e-02
5.520000000000000284e+01,4.024292137494538818e-02
5.524000000000000199e+01,3.748353655745382401e-02
5.528000000000000114e+01,4.407479790309246082e-02
5.532000000000000028e+01,6.068469791783147327e-02
5.535999999999999943e+01,6.282012262287166304e-02
5.539999999999999858e+01,5.382104043407039129e-02
5.543999999999999773e+01,4.682466477020406914e-02
5.547999999999999687e+01,4.940159257111773061e-02
5.552000000000000313e+01,4.819194281587484835e-02
5.556000000000000227e+01,4.564502528370373291e-02
5.560000000000000142e+01,3.686221600164325818e-02
5.564000000000000057e+01,3.342207577436916849e-02
5.567999999999999972e+01,3.710592040363806104e-02
5.571999999999999886e+01,2.920991704873910494e-02
5.575999999999999801e+01,3.110987151726718122e-02
5.579999999999999716e+01,3.167254937985818086e-02
5.584000000000000341e+01,3.446058371152666694e-02
5.588000000000000256e+01,3.813798508582761509e-02
5.592000000000000171e+01,3.402083032412674124e-02
5.596000000000000085e+01,4.059028466497457965e-02
5.600000000000000000e+01,3.468922208451530320e-02
5.603999999999999915e+01,3.635746043540019623e-02
5.607999999999999829e+01,5.071628540674468638e-02
5.611999999999999744e+01,4.859662517744708921e-02
5.615999999999999659e+01,5.471425544246105027e-02
5.620000000000000284e+01,6.105324700062404047e-02
5.624000000000000199e+01,5.536704212678557335e-02
5.628000000000000114e+01,5.836345265106872987e-02
5.632000000000000028e+01,5.067065175529108373e-02
5.635999999999999943e+01,6.390701956828105657e-02
5.639999999999999858e+01,9.116995018466225731e-02
5.643999999999999773e+01,6.989067290974530777e-02
5.647999999999999687e+01,7.265786515729312500e-02
5.652000000000000313e+01,8.343966999648194660e-02
5.656000000000000227e+01,9.288417027120568492e-02
5.660000000000000142e+01,8.941280223378589298e-02
5.664000000000000057e+01,9.484670101013170651e-02
5.667999999999999972e+01,1.000566141032943751e-01
5.671999999999999886e+01,9.702661231211125170e-02
5.675999999999999801e+01,1.044605255342902078e-01
5.679999999999999716e+01,1.029865269516486437e-01
5.684000000000000341e+01,7.879940622493555868e-02
5.688000000000000256e+01,8.133071621555953978e-02
5.692000000000000171e+01,8.141138510241893722e-02
5.696000000000000085e+01,9.418260823670550341e-02
5.700000000000000000e+01,6.820884788159253809e-02
5.703999999999999915e+01,6.984417099443963883e-02
5.707999999999999829e+01,7.548612223307667179e-02
5.711999999999999744e+01,7.021616796246621384e-02
5.715999999999999659e+01,8.632068228890855954e-02
5.720000000000000284e+01,9.218128214057214054e-02
5.724000000000000199e+01,9.158326525162886755e-02
5.728000000000000114e+01,1.005584856098995783e-01
5.732000000000000028e+01,1.122043373100077984e-01
5.735999999999999943e+01,1.156102505817467319e-01
5.739999999999999858e+01,1.285893966861952342e-01
5.743999999999999773e+01,1.083901595936591772e-01
5.747999999999999687e+01,1.120146905768937828e-01
5.752000000000000313e+01,1.154152049754143955e-01
5.756000000000000227e+01,8.764131369486137524e-02
5.760000000000000142e+01,7.901522823327232492e-02
5.764000000000000057e+01,7.684506154718237503e-02
5.767999999999999972e+01,7.244689045795724147e-02
5.771999999999999886e+01,5.735945644611982475e-02
5.775999999999999801e+01,4.227066167971674920e-02
5.779999999999999716e+01,4.054038423668181179e-02
5.784000000000000341e+01,4.816065878068285372e-02
5.788000000000000256e+01,3.017313235252984047e-02
5.792000000000000171e+01,3.266938792627258059e-02
5.796000000000000085e+01,3.048831754563998547e-02
5.800000000000000000e+01,2.875120689974748275e-02
5.803999999999999915e+01,3.235667701855311079e-02
5.807999999999999829e+01,2.260089506134624338e-02
5.811999999999999744e+01,2.820760058791094149e-02
5.815999999999999659e+01,2.891430814343574213e-02
5.820000000000000284e+01,2.538901023389097608e-02
5.824000000000000199e+01,1.585038811451708329e-02
5.828000000000000114e+01,2.790885804931195549e-02
5.832000000000000028e+01,2.816471969318626659e-02
5.835999999999999943e+01,2.930985714660187813e-02
5.839999999999999858e+01,2.221501791260998768e-02
5.843999999999999773e+01,1.712277484094276714e-02
5.847999999999999687e+01,2.895165862363469067e-02
5.852000000000000313e+01,1.673137050424970684e-02
5.856000000000000227e+01,1.876023038633389123e-02
5.860000000000000142e+01,2.190102190810791494e-02
5.864000000000000057e+01,1.880580984588081997e-02
5.867999999999999972e+01,2.483845421000162659e-02
5.871999999999999886e+01,1.862314624987267478e-02
5.875999999999999801e+01,1.752772790825813873e-02
5.879999999999999716e+01,1.687623987135421222e-02
5.884000000000000341e+01,2.357128510153434081e-02
5.888000000000000256e+01,1.579172552988628367e-02
5.892000000000000171e+01,2.315195935282308992e-02
5.896000000000000085e+01,2.405351316058984557e-02
5.900000000000000000e+01,2.072303207325763841e-02
5.903999999999999915e+01,1.739114314331272754e-02
5.907999999999999829e+01,2.340976058385830019e-02
5.911999999999999744e+01,1.718041098513940768e-02
5.915999999999999659e+01,2.297354072379502107e-02
5.920000000000000284e+01,2.008133502669920065e-02
5.924000000000000199e+01,2.141834265347120417e-02
5.928000000000000114e+01,2.052728701704915892e-02
5.932000000000000028e+01,1.028289755289953956e-02
5.935999999999999943e+01,2.341687768563699770e-02
5.939999999999999858e+01,1.851359934051113182e-02
5.943999999999999773e+01,2.028883821247545738e-02
5.947999999999999687e+01,6.921456232617704922e-03
5.952000000000000313e+01,1.559645000869771571e-02
5.956000000000000227e+01,8.683490671638234917e-03
5.960000000000000142e+01,1.512898244038064603e-02
5.964000000000000057e+01,9.549152699496696664e-03
5.967999999999999972e+01,1.309714259742389940e-02
5.971999999999999886e+01,1.419438838648362164e-02
5.975999999999999801e+01,7.942266093714882985e-03
5.979999999999999716e+01,1.749789879997052516e-02
5.984000000000000341e+01,1.324688536583436098e-02
5.988000000000000256e+01,1.901434284963107041e-02
5.992000000000000171e+01,1.364712715992014505e-02
5.996000000000000085e+01,1.028245171547790583e-02
