2.003999999999999915e+01,5.106127735819353947e-02
2.007999999999999829e+01,7.471027388115207557e-02
2.012000000000000099e+01,5.538900056699333496e-02
2.016000000000000014e+01,5.770160780534474426e-02
2.019999999999999929e+01,6.268173622374778597e-02
2.023999999999999844e+01,5.580826633070359866e-02
2.028000000000000114e+01,5.367675780145043235e-02
2.032000000000000028e+01,6.162149594612134629e-02
2.035999999999999943e+01,6.749215587639856295e-02
2.039999999999999858e+01,7.128873504526035687e-02
2.044000000000000128e+01,8.130901201681538237e-02
2.048000000000000043e+01,9.044060043450241615e-02
2.051999999999999957e+01,5.512014691787018444e-02
2.055999999999999872e+01,5.862180935659021958e-02
2.060000000000000142e+01,6.153112492577626075e-02
2.064000000000000057e+01,7.184952286413857914e-02
2.067999999999999972e+01,5.934936943411282806e-02
2.071999999999999886e+01,5.988893046177307805e-02
2.076000000000000156e+01,9.184186157474213963e-02
2.080000000000000071e+01,7.223034911470316288e-02
2.083999999999999986e+01,6.358409819350389902e-02
2.087999999999999901e+01,7.153374344667541573e-02
2.092000000000000171e+01,4.569989700962388129e-02
2.096000000000000085e+01,7.498735395457370445e-02
2.100000000000000000e+01,3.433669641676459494e-02
2.103999999999999915e+01,5.354892637327369337e-02
2.107999999999999829e+01,4.905353151498938191e-02
2.112000000000000099e+01,7.389703854103964187e-02
2.116000000000000014e+01,4.895417502327502335e-02
2.119999999999999929e+01,5.631370154977737713e-02
2.123999999999999844e+01,8.026910132745883331e-02
2.128000000000000114e+01,3.458271811862978495e-02
2.132000000000000028e+01,6.061317759086944784e-02
2.135999999999999943e+01,5.878710386360156553e-02
2.139999999999999858e+01,4.332926200888394946e-02
2.144000000000000128e+01,5.335776043216328840e-02
2.148000000000000043e+01,4.116035519742346910e-02
2.151999999999999957e+01,4.022451752755894921e-02
2.155999999999999872e+01,3.395468265328909635e-02
2.160000000000000142e+01,8.428785703566678278e-02
2.164000000000000057e+01,4.986540991307104181e-02
2.167999999999999972e+01,2.551912286567534910e-02
2.171999999999999886e+01,2.488106231474248448e-02
2.176000000000000156e+01,8.833114760783368144e-03
2.180000000000000071e+01,6.805817122840714106e-02
2.183999999999999986e+01,7.601506722586649778e-02
2.187999999999999901e+01,5.196650635697646486e-02
2.192000000000000171e+01,5.399695385262277131e-02
2.196000000000000085e+01,3.380146712599440412e-02
2.200000000000000000e+01,6.576372430483853893e-02
2.203999999999999915e+01,2.186081427042006406e-02
2.207999999999999829e+01,2.952294439663693051e-02
2.212000000000000099e+01,5.970787824751381395e-02
2.216000000000000014e+01,5.284939887113481588e-02
2.219999999999999929e+01,7.029181407775843271e-02
2.223999999999999844e+01,5.128350961387866808e-02
2.228000000000000114e+01,3.464624455954504884e-02
2.232000000000000028e+01,7.490829224087305893e-02
2.235999999999999943e+01,6.360579701536223096e-02
2.239999999999999858e+01,5.852687478850083364e-02
2.244000000000000128e+01,5.255913920372775466e-02
2.248000000000000043e+01,4.451719041243174663e-02
2.251999999999999957e+01,4.981119078826094781e-02
2.255999999999999872e+01,6.518129520482154882e-02
2.260000000000000142e+01,6.454876048011366774e-02
2.264000000000000057e+01,6.776898886874736794e-02
2.267999999999999972e+01,4.668879191094049003e-02
2.271999999999999886e+01,5.198390170264127752e-02
2.276000000000000156e+01,7.120764403013461752e-02
2.280000000000000071e+01,5.546237765581382012e-02
2.283999999999999986e+01,5.927637590579464683e-02
2.287999999999999901e+01,7.346280714573422133e-02
2.292000000000000171e+01,5.742181124915557433e-02
2.296000000000000085e+01,5.738388043104501735e-02
2.300000000000000000e+01,6.208773777927685533e-02
2.303999999999999915e+01,3.952765360390139704e-02
2.307999999999999829e+01,5.164063436597190332e-02
2.312000000000000099e+01,4.330570299453450483e-02
2.316000000000000014e+01,4.119429622834186455e-02
2.319999999999999929e+01,1.715322560761141715e-02
2.323999999999999844e+01,3.667568949816597118e-02
2.328000000000000114e+01,4.345531352746240250e-02
2.332000000000000028e+01,6.386718510885536215e-02
2.335999999999999943e+01,5.879319074285552227e-02
2.339999999999999858e+01,6.883318546189709508e-02
2.344000000000000128e+01,4.627492532996370367e-02
2.348000000000000043e+01,3.320001200647682005e-02
2.351999999999999957e+01,5.776162885717609635e-02
2.355999999999999872e+01,2.809148246182031905e-02
2.360000000000000142e+01,4.228119697995559589e-02
2.364000000000000057e+01,4.787693926920526255e-02
2.367999999999999972e+01,4.517505610794610854e-02
2.371999999999999886e+01,5.047475784601824361e-02
2.376000000000000156e+01,7.385191899991490339e-02
2.380000000000000071e+01,4.892428813357824896e-02
2.383999999999999986e+01,4.533395416839570286e-02
2.387999999999999901e+01,7.641663420023298015e-02
2.392000000000000171e+01,6.275070647554266412e-02
2.396000000000000085e+01,3.871269019341208595e-02
2.400000000000000000e+01,3.393751534656786611e-02
2.403999999999999915e+01,4.279454220543697784e-02
2.407999999999999829e+01,5.135534992931612558e-02
2.412000000000000099e+01,4.361707239971972933e-02
2.416000000000000014e+01,4.832559163318287526e-02
2.419999999999999929e+01,4.769994555883460413e-02
2.423999999999999844e+01,7.285681079639014235e-02
2.428000000000000114e+01,4.822710682246893199e-02
2.432000000000000028e+01,3.011720291557251628e-02
2.435999999999999943e+01,4.875472771922231829e-02
2.439999999999999858e+01,6.828141031330187127e-02
2.444000000000000128e+01,5.254263045229651263e-02
2.448000000000000043e+01,4.628713372420516226e-02
2.451999999999999957e+01,5.781269869313620385e-02
2.455999999999999872e+01,3.288739626432866936e-02
2.460000000000000142e+01,7.256634385130317222e-02
2.464000000000000057e+01,6.008790470042989912e-02
2.467999999999999972e+01,5.294384539179915194e-02
2.471999999999999886e+01,4.609622484663278286e-02
2.476000000000000156e+01,7.303251428782510379e-02
2.480000000000000071e+01,4.336616692212191815e-02
2.483999999999999986e+01,3.444435413124555950e-02
2.487999999999999901e+01,5.663929975708645315e-02
2.492000000000000171e+01,4.179065641120218583e-02
2.496000000000000085e+01,9.457477022804982453e-03
2.500000000000000000e+01,3.935772757679733419e-02
2.503999999999999915e+01,2.836184028783327385e-02
2.507999999999999829e+01,1.262443030738431664e-02
2.512000000000000099e+01,5.022996286633631818e-02
2.516000000000000014e+01,3.893791815553580837e-02
2.519999999999999929e+01,4.068530263603577918e-02
2.523999999999999844e+01,4.421083939571041760e-02
2.528000000000000114e+01,5.870135497486045351e-02
2.532000000000000028e+01,4.918762642956154424e-02
2.535999999999999943e+01,5.834395407003018647e-02
2.539999999999999858e+01,4.142158721422454365e-02
2.544000000000000128e+01,3.753863426759168620e-02
2.548000000000000043e+01,4.402794875453269058e-02
2.551999999999999957e+01,9.324745508864190971e-03
2.555999999999999872e+01,5.908113595209834451e-02
2.560000000000000142e+01,6.260706503692271829e-02
2.564000000000000057e+01,6.079873712116939249e-02
2.567999999999999972e+01,3.972773136413492584e-02
2.571999999999999886e+01,5.303327311574302511e-02
2.576000000000000156e+01,3.551850824152538721e-02
2.580000000000000071e+01,4.260075804379068881e-02
2.583999999999999986e+01,6.124064965802838295e-02
2.587999999999999901e+01,4.283689117202935798e-02
2.592000000000000171e+01,4.903013972144941446e-02
2.596000000000000085e+01,4.692561764014609865e-02
2.600000000000000000e+01,3.711602103189338281e-02
2.603999999999999915e+01,1.545245679410509575e-02
2.607999999999999829e+01,4.446463003862925756e-02
2.612000000000000099e+01,3.998932980555882505e-02
2.616000000000000014e+01,4.529355505590520331e-02
2.619999999999999929e+01,4.763428225055531262e-02
2.623999999999999844e+01,2.330356281068929336e-02
2.628000000000000114e+01,4.164713633229696899e-02
2.632000000000000028e+01,5.702720415714453150e-02
2.635999999999999943e+01,3.536359131749984563e-02
2.639999999999999858e+01,4.985457863952053731e-02
2.644000000000000128e+01,8.331190270313082458e-02
2.648000000000000043e+01,6.224092826273364132e-02
2.651999999999999957e+01,5.332025098574134231e-02
2.655999999999999872e+01,7.521987582517458693e-02
2.660000000000000142e+01,5.533421551162798907e-02
2.664000000000000057e+01,4.196820753787032510e-02
2.667999999999999972e+01,5.645900078549904305e-02
2.671999999999999886e+01,4.635276211213840841e-02
2.676000000000000156e+01,4.721140801846515633e-02
2.680000000000000071e+01,1.873142770339987495e-02
2.683999999999999986e+01,2.640601953276564690e-02
2.687999999999999901e+01,5.334326941188453908e-02
2.692000000000000171e+01,7.109363955557626569e-02
2.696000000000000085e+01,7.135934630569058801e-02
2.700000000000000000e+01,5.265864048821837506e-02
2.703999999999999915e+01,6.062931566735108024e-02
2.707999999999999829e+01,5.733865564518941110e-02
2.712000000000000099e+01,8.694270735893713797e-02
2.716000000000000014e+01,5.846222536454516450e-02
2.719999999999999929e+01,2.612913366273219087e-02
2.723999999999999844e+01,6.995774756379738446e-02
2.728000000000000114e+01,7.081563571093091314e-02
2.732000000000000028e+01,5.507788551748758060e-02
2.735999999999999943e+01,5.208307765079672053e-02
2.739999999999999858e+01,4.493929801618092024e-02
2.744000000000000128e+01,5.587274347142984904e-02
2.748000000000000043e+01,6.621340396948074969e-02
2.751999999999999957e+01,7.240508505854258148e-02
2.755999999999999872e+01,8.333826395351878746e-02
2.760000000000000142e+01,3.826132640090312148e-02
2.764000000000000057e+01,4.563812294915421675e-02
2.767999999999999972e+01,5.538561505907554916e-02
2.771999999999999886e+01,5.090823796138690960e-02
2.776000000000000156e+01,4.583805807735120974e-02
2.780000000000000071e+01,4.136047016153692607e-02
2.783999999999999986e+01,5.614547916696459307e-02
2.787999999999999901e+01,5.492751282431199839e-02
2.792000000000000171e+01,4.304085644371274250e-02
2.796000000000000085e+01,2.967233656546730894e-02
2.800000000000000000e+01,3.734449937276335812e-02
2.803999999999999915e+01,3.820050573121604176e-02
2.807999999999999829e+01,5.209575789543555852e-02
2.812000000000000099e+01,6.658358165170628895e-02
2.816000000000000014e+01,5.351078854024565040e-02
2.819999999999999929e+01,4.962469236332073957e-02
2.823999999999999844e+01,6.351942101043710209e-02
2.828000000000000114e+01,5.933670356147805608e-02
2.832000000000000028e+01,4.063272937419181580e-02
2.835999999999999943e+01,6.430656637787429686e-02
2.839999999999999858e+01,4.412055833483603112e-02
2.844000000000000128e+01,5.090219146805474715e-02
2.848000000000000043e+01,6.894494898444218645e-02
2.851999999999999957e+01,3.779356595589062479e-02
2.855999999999999872e+01,6.324474900228030383e-02
2.860000000000000142e+01,5.372655402876747727e-02
2.864000000000000057e+01,7.473217940117456159e-02
2.867999999999999972e+01,4.802540066754484860e-02
2.871999999999999886e+01,6.517815682867945937e-02
2.876000000000000156e+01,6.128994307550807846e-02
2.880000000000000071e+01,5.503076436105083791e-02
2.883999999999999986e+01,4.995681004305635442e-02
2.887999999999999901e+01,3.154696063002645351e-02
2.892000000000000171e+01,6.588711313857910368e-02
2.896000000000000085e+01,4.480976125161088841e-02
2.900000000000000000e+01,5.188541218419141787e-02
2.903999999999999915e+01,6.636961061147510221e-02
2.907999999999999829e+01,5.566392819271785697e-02
2.912000000000000099e+01,8.229807003976692681e-02
2.916000000000000014e+01,7.544454483560297797e-02
2.919999999999999929e+01,7.214701570788958906e-02
2.923999999999999844e+01,8.692659705408284365e-02
2.928000000000000114e+01,7.799803144611554273e-02
2.932000000000000028e+01,8.892466717039705648e-02
2.935999999999999943e+01,8.177378802902773858e-02
2.939999999999999858e+01,1.167043045306758731e-01
2.944000000000000128e+01,1.122201496440117241e-01
2.948000000000000043e+01,9.084386955222296944e-02
2.951999999999999957e+01,1.358496221449815300e-01
2.955999999999999872e+01,1.651486417401626106e-01
2.960000000000000142e+01,2.092649063066860382e-01
2.964000000000000057e+01,2.510101524244763849e-01
2.967999999999999972e+01,2.906807268719098225e-01
2.971999999999999886e+01,3.804341083719222638e-01
2.976000000000000156e+01,4.455902643773262395e-01
2.980000000000000071e+01,5.024484052379624144e-01
2.983999999999999986e+01,4.795883409860152158e-01
2.987999999999999901e+01,4.739162984794411670e-01
2.992000000000000171e+01,4.193463756075798687e-01
2.996000000000000085e+01,3.561820780774677675e-01
3.000000000000000000e+01,3.022043628659329406e-01
3.003999999999999915e+01,2.748978376244053390e-01
3.007999999999999829e+01,2.146962854009693000e-01
3.012000000000000099e+01,1.823513153550880006e-01
3.016000000000000014e+01,1.935694391858069907e-01
3.019999999999999929e+01,1.668545898617964096e-01
3.023999999999999844e+01,1.638474245187118428e-01
3.028000000000000114e+01,1.839552419587369425e-01
3.032000000000000028e+01,1.590176947934290319e-01
3.035999999999999943e+01,1.892008524601167252e-01
3.039999999999999858e+01,2.161238953084739234e-01
3.044000000000000128e+01,2.421576153946596588e-01
3.048000000000000043e+01,2.913063055288485081e-01
3.051999999999999957e+01,3.665334564179941745e-01
3.055999999999999872e+01,4.272392079356199801e-01
3.060000000000000142e+01,5.309153266618165112e-01
3.064000000000000057e+01,5.981401908430367120e-01
3.067999999999999972e+01,5.758672686861096013e-01
3.071999999999999886e+01,5.138832443107911319e-01
3.076000000000000156e+01,4.080392246144951551e-01
3.080000000000000071e+01,4.011755818917881466e-01
3.083999999999999986e+01,3.371162191111743978e-01
3.087999999999999901e+01,2.543865460273055379e-01
3.092000000000000171e+01,2.573015226330748750e-01
3.096000000000000085e+01,2.406571358653540049e-01
3.100000000000000000e+01,2.023789378993392785e-01
3.103999999999999915e+01,2.082564764262511692e-01
3.107999999999999829e+01,1.927965479862239484e-01
3.112000000000000099e+01,1.722983629290981977e-01
3.116000000000000014e+01,1.654319262078940422e-01
3.119999999999999929e+01,2.098335996010707583e-01
3.123999999999999844e+01,2.097825484582194755e-01
3.128000000000000114e+01,2.126946622959165756e-01
3.132000000000000028e+01,2.150137466623707749e-01
3.135999999999999943e+01,2.268156760740752953e-01
3.139999999999999858e+01,2.448406054046366187e-01
3.144000000000000128e+01,2.922037794880371075e-01
3.148000000000000043e+01,3.351213726819422534e-01
3.151999999999999957e+01,3.810021155742678856e-01
3.155999999999999872e+01,4.378474374037247818e-01
3.160000000000000142e+01,4.576487449088990078e-01
3.164000000000000057e+01,4.973051060190866179e-01
3.167999999999999972e+01,5.740047790603201028e-01
3.171999999999999886e+01,6.361829788664160601e-01
3.176000000000000156e+01,6.956936759062524178e-01
3.180000000000000071e+01,7.629090940217201355e-01
3.183999999999999986e+01,8.250862096737053841e-01
3.187999999999999901e+01,8.463667519420919882e-01
3.192000000000000171e+01,8.543112055418243811e-01
3.196000000000000085e+01,9.238959472514448601e-01
3.200000000000000000e+01,1.000000000000000000e+00
3.203999999999999915e+01,9.492661648116005324e-01
3.207999999999999829e+01,8.647481273140350533e-01
3.211999999999999744e+01,7.508911248412446504e-01
3.215999999999999659e+01,5.943594352033215733e-01
3.220000000000000284e+01,5.045059569249158438e-01
3.224000000000000199e+01,4.324330487684215352e-01
3.228000000000000114e+01,3.748808656074448797e-01
3.232000000000000028e+01,3.158465413235003738e-01
3.235999999999999943e+01,2.935591363458423531e-01
3.239999999999999858e+01,2.902376886036002746e-01
3.243999999999999773e+01,2.353510561051517236e-01
3.247999999999999687e+01,2.035792663036412875e-01
3.252000000000000313e+01,2.198156599854364235e-01
3.256000000000000227e+01,1.794489227382039254e-01
3.260000000000000142e+01,1.524174928087287384e-01
3.264000000000000057e+01,1.485008953881065130e-01
3.267999999999999972e+01,1.715516691594832499e-01
3.271999999999999886e+01,1.667451863773032339e-01
3.275999999999999801e+01,1.385266843755069976e-01
3.279999999999999716e+01,1.393499912024284415e-01
3.284000000000000341e+01,1.469889049062347852e-01
3.288000000000000256e+01,1.137311815509094298e-01
3.292000000000000171e+01,1.089225607324429412e-01
3.296000000000000085e+01,1.100404911736048569e-01
3.300000000000000000e+01,1.630191157639842015e-01
3.303999999999999915e+01,1.442807632658082706e-01
3.307999999999999829e+01,1.160587894655278757e-01
3.311999999999999744e+01,1.447354407051580638e-01
3.315999999999999659e+01,1.562233830883064667e-01
3.320000000000000284e+01,1.653400803378261008e-01
3.324000000000000199e+01,2.233539632004604147e-01
3.328000000000000114e+01,2.736623079782683488e-01
3.332000000000000028e+01,2.771470011717609983e-01
3.335999999999999943e+01,2.625539247974728041e-01
3.339999999999999858e+01,2.672230913084656101e-01
3.343999999999999773e+01,1.933592207765481852e-01
3.347999999999999687e+01,1.867661787502616355e-01
3.352000000000000313e+01,1.715785353808287061e-01
3.356000000000000227e+01,1.534269253037802150e-01
3.360000000000000142e+01,1.554265933530986632e-01
3.364000000000000057e+01,1.553513375769513816e-01
3.367999999999999972e+01,1.609062378886517986e-01
3.371999999999999886e+01,1.421600098760325559e-01
3.375999999999999801e+01,1.743853796430334113e-01
3.379999999999999716e+01,1.900146984520067472e-01
3.384000000000000341e+01,1.579312845891951422e-01
3.388000000000000256e+01,1.871916872538517407e-01
3.392000000000000171e+01,2.235639773512156925e-01
3.396000000000000085e+01,2.205213082468602537e-01
3.400000000000000000e+01,2.500765634653532854e-01
3.403999999999999915e+01,2.787422666897576562e-01
3.407999999999999829e+01,2.638441125158140221e-01
3.411999999999999744e+01,2.999175331982988357e-01
3.415999999999999659e+01,3.324342503170537033e-01
3.420000000000000284e+01,3.492439389837603270e-01
3.424000000000000199e+01,3.755362893101836241e-01
3.428000000000000114e+01,3.677479479158721198e-01
3.432000000000000028e+01,3.961137023730083584e-01
3.435999999999999943e+01,4.049198769598438830e-01
3.439999999999999858e+01,4.054277434944618674e-01
3.443999999999999773e+01,4.243087387156144752e-01
3.447999999999999687e+01,4.111834747587080896e-01
3.452000000000000313e+01,3.817584633227883439e-01
3.456000000000000227e+01,3.745591141625065901e-01
3.460000000000000142e+01,3.611358894926831042e-01
3.464000000000000057e+01,3.254859231948326048e-01
3.467999999999999972e+01,2.942806520077071442e-01
3.471999999999999886e+01,2.832265876303522445e-01
3.475999999999999801e+01,2.739500693411026089e-01
3.479999999999999716e+01,2.670437932437317308e-01
3.484000000000000341e+01,2.299093309974951094e-01
3.488000000000000256e+01,2.298179769206005751e-01
3.492000000000000171e+01,1.808284241007560023e-01
3.496000000000000085e+01,2.071110373324863696e-01
3.500000000000000000e+01,1.951640224415338298e-01
3.503999999999999915e+01,1.867726317619221310e-01
3.507999999999999829e+01,1.890492465561697533e-01
3.511999999999999744e+01,1.785822675708541862e-01
3.515999999999999659e+01,1.604096307907112717e-01
3.520000000000000284e+01,1.555721357719411779e-01
3.524000000000000199e+01,1.779981982612042213e-01
3.528000000000000114e+01,1.639727107510201287e-01
3.532000000000000028e+01,2.050676122421903058e-01
3.535999999999999943e+01,1.851139646318792908e-01
3.539999999999999858e+01,1.832370352541944081e-01
3.543999999999999773e+01,1.807668140620727060e-01
3.547999999999999687e+01,1.945952100561495479e-01
3.552000000000000313e+01,2.143499943004915920e-01
3.556000000000000227e+01,2.530705345655670513e-01
3.560000000000000142e+01,2.461526753677027446e-01
3.564000000000000057e+01,2.223422987234335568e-01
3.567999999999999972e+01,2.797310287923054362e-01
3.571999999999999886e+01,2.565121313602706787e-01
3.575999999999999801e+01,2.913770881663306223e-01
3.579999999999999716e+01,3.185363464252224386e-01
3.584000000000000341e+01,3.536964178359915389e-01
3.588000000000000256e+01,3.850033268357170857e-01
3.592000000000000171e+01,4.308307290520221322e-01
3.596000000000000085e+01,4.698414705092661681e-01
3.600000000000000000e+01,5.041099939382104322e-01
3.603999999999999915e+01,5.606040854030046594e-01
3.607999999999999829e+01,5.877589597374652808e-01
3.611999999999999744e+01,6.406955889185033115e-01
3.615999999999999659e+01,6.799995101212316095e-01
3.620000000000000284e+01,7.015218302430644703e-01
3.624000000000000199e+01,7.123749305465199022e-01
3.628000000000000114e+01,7.359704051909781164e-01
3.632000000000000028e+01,7.429696684150667307e-01
3.635999999999999943e+01,6.981071479494638243e-01
3.639999999999999858e+01,6.233126913265618629e-01
3.643999999999999773e+01,5.864502915153636531e-01
3.647999999999999687e+01,5.721097810481785562e-01
3.652000000000000313e+01,5.225030389254758934e-01
3.656000000000000227e+01,4.536329261716983696e-01
3.660000000000000142e+01,4.176569215097823418e-01
3.664000000000000057e+01,3.950159669164720611e-01
3.667999999999999972e+01,3.427394076621113062e-01
3.671999999999999886e+01,3.254313941363302654e-01
3.675999999999999801e+01,2.876745999427779421e-01
3.679999999999999716e+01,2.596966537249766338e-01
3.684000000000000341e+01,2.492026353962396856e-01
3.688000000000000256e+01,1.901066428459065594e-01
3.692000000000000171e+01,2.071717395192968769e-01
3.696000000000000085e+01,2.150493171549140436e-01
3.700000000000000000e+01,1.823263447136033444e-01
3.703999999999999915e+01,1.996857132199735541e-01
3.707999999999999829e+01,1.669613481426538149e-01
3.711999999999999744e+01,1.615004208633662175e-01
3.715999999999999659e+01,1.542606949461359234e-01
3.720000000000000284e+01,1.138291393518082867e-01
3.724000000000000199e+01,1.258507065732350216e-01
3.728000000000000114e+01,1.091256789044841857e-01
3.732000000000000028e+01,9.121454106050046196e-02
3.735999999999999943e+01,1.029376203356009573e-01
3.739999999999999858e+01,1.004352140239365698e-01
3.743999999999999773e+01,9.111605271342326784e-02
3.747999999999999687e+01,6.105171556335781818e-02
3.752000000000000313e+01,6.773396915383098071e-02
3.756000000000000227e+01,7.145200133455860414e-02
3.760000000000000142e+01,7.131676158232690133e-02
3.764000000000000057e+01,7.414428183425661456e-02
3.767999999999999972e+01,5.711566148772018875e-02
3.771999999999999886e+01,4.956948121004745716e-02
3.775999999999999801e+01,8.410416424794010803e-02
3.779999999999999716e+01,5.255220428429518281e-02
3.784000000000000341e+01,6.397015051836574262e-02
3.788000000000000256e+01,4.693781298233649230e-02
3.792000000000000171e+01,4.887108119278388979e-02
3.796000000000000085e+01,5.435978768201733119e-02
3.800000000000000000e+01,4.651201835535888340e-02
3.803999999999999915e+01,6.177873768967789142e-02
3.807999999999999829e+01,3.614848885209635820e-02
3.811999999999999744e+01,4.696844322433648550e-02
3.815999999999999659e+01,5.186064472753663945e-02
3.820000000000000284e+01,5.052874148927796738e-02
3.824000000000000199e+01,4.652892286730916926e-02
3.828000000000000114e+01,3.126705587808168568e-02
3.832000000000000028e+01,3.645251579210531667e-02
3.835999999999999943e+01,2.741242899085288842e-02
3.839999999999999858e+01,3.200362951466659972e-02
3.843999999999999773e+01,1.614594239581458590e-02
3.847999999999999687e+01,3.762748353978492138e-02
3.852000000000000313e+01,3.688203599466190197e-02
3.856000000000000227e+01,2.991246078488858304e-02
3.860000000000000142e+01,4.546463992699938811e-02
3.864000000000000057e+01,4.027156936594044473e-02
3.867999999999999972e+01,3.181785675314201950e-02
3.871999999999999886e+01,3.432826716066197936e-02
3.875999999999999801e+01,3.357803042239992930e-02
3.879999999999999716e+01,3.934667172945138097e-02
3.884000000000000341e+01,4.778164730462786808e-02
3.888000000000000256e+01,3.873120047387915155e-02
3.892000000000000171e+01,3.293978146800772416e-02
3.896000000000000085e+01,2.655484650982498085e-02
3.900000000000000000e+01,2.431798225866955640e-02
3.903999999999999915e+01,1.704235708019792572e-02
3.907999999999999829e+01,3.347385299094497030e-02
3.911999999999999744e+01,2.530752740409927815e-02
3.915999999999999659e+01,3.195783805050506077e-02
3.920000000000000284e+01,1.993730861322515202e-02
3.924000000000000199e+01,4.495960971996553618e-02
3.928000000000000114e+01,4.419868183943807122e-02
3.932000000000000028e+01,3.750992722625288989e-02
3.935999999999999943e+01,0.000000000000000000e+00
3.939999999999999858e+01,2.235179118528846792e-02
3.943999999999999773e+01,3.818304934606040618e-02
3.947999999999999687e+01,2.141503130031581145e-02
3.952000000000000313e+01,3.191029823132537913e-02
3.956000000000000227e+01,3.469962719516449939e-02
3.960000000000000142e+01,3.541365282736416015e-02
3.964000000000000057e+01,2.634729012056848119e-02
3.967999999999999972e+01,1.757641359127056976e-02
3.971999999999999886e+01,5.533151545445674779e-02
3.975999999999999801e+01,2.462905490888172080e-02
3.979999999999999716e+01,2.030081353471922465e-02
3.984000000000000341e+01,2.990011711825362600e-02
3.988000000000000256e+01,1.253075620761073816e-02
3.992000000000000171e+01,3.516767579560070578e-02
3.996000000000000085e+01,2.876148051758850924e-02
4.000000000000000000e+01,2.709599092186590341e-02
4.003999999999999915e+01,1.298294358835763024e-02
4.007999999999999829e+01,4.154331049397430586e-02
4.011999999999999744e+01,1.557451036131999970e-02
4.015999999999999659e+01,2.605578354040090361e-02
4.020000000000000284e+01,1.786615296026368774e-02
4.024000000000000199e+01,2.182594591522545729e-02
4.028000000000000114e+01,3.674976255667495445e-02
4.032000000000000028e+01,4.248584621056192973e-02
4.035999999999999943e+01,3.014371456794058893e-02
4.039999999999999858e+01,2.550575639137068681e-02
4.043999999999999773e+01,5.465070976880970904e-02
4.047999999999999687e+01,3.993504889909526429e-02
4.052000000000000313e+01,3.855419103692060007e-02
4.056000000000000227e+01,2.235494772250348067e-02
4.060000000000000142e+01,3.875320847242003791e-02
4.064000000000000057e+01,3.796228407287161044e-02
4.067999999999999972e+01,3.005804904035135408e-02
4.071999999999999886e+01,3.163606305009703662e-02
4.075999999999999801e+01,3.558393974554788924e-02
4.079999999999999716e+01,3.834548467491263879e-02
4.084000000000000341e+01,2.599227699748825685e-02
4.088000000000000256e+01,3.112273995997676818e-02
4.092000000000000171e+01,2.913987700736563047e-02
4.096000000000000085e+01,2.182178154501855302e-02
4.100000000000000000e+01,2.606036257357075697e-02
4.103999999999999915e+01,3.355783643487127155e-02
4.107999999999999829e+01,2.771863835963987027e-02
4.111999999999999744e+01,2.454562937231935527e-02
4.115999999999999659e+01,3.737452656877512241e-02
4.120000000000000284e+01,2.945801105269790776e-02
4.124000000000000199e+01,4.524847908668899743e-02
4.128000000000000114e+01,3.821908403632209156e-02
4.132000000000000028e+01,1.518585783871798794e-02
4.135999999999999943e+01,3.719675897873732373e-02
4.139999999999999858e+01,2.957175490919249430e-02
4.143999999999999773e+01,4.150483109904481299e-02
4.147999999999999687e+01,1.994945575512311470e-02
4.152000000000000313e+01,3.039882724325021143e-02
4.156000000000000227e+01,3.284578408774447428e-02
4.160000000000000142e+01,4.951652314639584662e-02
4.164000000000000057e+01,5.138313221222027931e-03
4.167999999999999972e+01,3.010485494009480442e-02
4.171999999999999886e+01,2.780626567641308194e-02
4.175999999999999801e+01,3.498985923244347235e-02
4.179999999999999716e+01,3.861626274367551542e-02
4.184000000000000341e+01,3.038769255195816407e-02
4.188000000000000256e+01,3.193764686428666316e-02
4.192000000000000171e+01,2.548516360979052528e-02
4.196000000000000085e+01,1.606817877320569632e-02
4.200000000000000000e+01,2.620923853771977771e-02
4.203999999999999915e+01,8.196098967316394271e-03
4.207999999999999829e+01,1.774243068970132731e-02
4.211999999999999744e+01,3.262203175304197872e-02
4.215999999999999659e+01,1.519853528483646257e-02
4.220000000000000284e+01,3.096513965090766374e-02
4.224000000000000199e+01,2.894975833586684033e-02
4.228000000000000114e+01,3.523112942767134964e-02
4.232000000000000028e+01,3.943702399038791218e-02
4.235999999999999943e+01,2.971346646109601294e-02
4.239999999999999858e+01,3.954792806268982164e-02
4.243999999999999773e+01,3.278578854965511630e-02
4.247999999999999687e+01,4.380356712107875278e-02
4.252000000000000313e+01,2.044377995998212724e-02
4.256000000000000227e+01,3.471931059093278510e-02
4.260000000000000142e+01,3.269457924456713876e-02
4.264000000000000057e+01,2.592720706436580508e-02
4.267999999999999972e+01,3.249450035255407876e-02
4.271999999999999886e+01,5.269280588750808320e-02
4.275999999999999801e+01,3.495733850304417328e-02
4.279999999999999716e+01,2.966748096971360063e-02
4.284000000000000341e+01,2.378386042300556849e-02
4.288000000000000256e+01,2.856774868100324383e-02
4.292000000000000171e+01,2.238564244266899594e-02
4.296000000000000085e+01,3.250167709755005102e-02
4.300000000000000000e+01,4.528378113034084440e-02
4.303999999999999915e+01,3.850575258920863053e-02
4.307999999999999829e+01,2.431791126842914805e-02
4.311999999999999744e+01,4.391281085123137362e-02
4.315999999999999659e+01,1.727613093327317120e-02
4.320000000000000284e+01,3.538711186456100499e-02
4.324000000000000199e+01,4.757001645510371135e-02
4.328000000000000114e+01,3.693293061022336066e-02
4.332000000000000028e+01,4.051951745758420459e-02
4.335999999999999943e+01,5.151373996602287564e-02
4.339999999999999858e+01,3.939161507257712275e-02
4.343999999999999773e+01,1.985965447629221836e-02
4.347999999999999687e+01,5.218772070964396853e-02
4.352000000000000313e+01,4.361847237619827927e-02
4.356000000000000227e+01,5.608891593700809225e-02
4.360000000000000142e+01,5.107363654337929160e-02
4.364000000000000057e+01,5.613311891025635908e-02
4.367999999999999972e+01,4.874481176040950520e-02
4.371999999999999886e+01,6.565602889610527848e-02
4.375999999999999801e+01,9.945803463538531453e-02
4.379999999999999716e+01,1.095509688517729702e-01
4.384000000000000341e+01,1.451288170142293332e-01
4.388000000000000256e+01,1.418837729644790158e-01
4.392000000000000171e+01,1.688652269731145406e-01
4.396000000000000085e+01,1.567274343501033063e-01
4.400000000000000000e+01,1.404396129453270303e-01
4.403999999999999915e+01,1.262250960451117288e-01
4.407999999999999829e+01,9.037593507063733378e-02
4.411999999999999744e+01,9.038389660199455666e-02
4.415999999999999659e+01,8.061118198094935350e-02
4.420000000000000284e+01,9.573065973198621736e-02
4.424000000000000199e+01,8.388119536352411920e-02
4.428000000000000114e+01,8.121740402703471473e-02
4.432000000000000028e+01,6.166054254051812206e-02
4.435999999999999943e+01,4.921490371414940362e-02
4.439999999999999858e+01,7.262636956446309744e-02
4.443999999999999773e+01,6.729078460778636916e-02
4.447999999999999687e+01,6.877006534479600253e-02
4.452000000000000313e+01,7.143357204591857523e-02
4.456000000000000227e+01,7.202145958476037502e-02
4.460000000000000142e+01,7.527531462065978340e-02
4.464000000000000057e+01,9.067831301931518484e-02
4.467999999999999972e+01,9.541155417809894790e-02
4.471999999999999886e+01,1.025144058674789527e-01
4.475999999999999801e+01,1.202846466515635759e-01
4.479999999999999716e+01,1.667995828325780361e-01
4.484000000000000341e+01,1.887163332919538083e-01
4.488000000000000256e+01,2.621966721098231146e-01
4.492000000000000171e+01,2.396586326912174547e-01
4.496000000000000085e+01,2.443835318544689272e-01
4.500000000000000000e+01,2.135453100682895566e-01
4.503999999999999915e+01,2.037466859365777150e-01
4.507999999999999829e+01,1.595703330629823780e-01
4.511999999999999744e+01,1.239869010831174123e-01
4.515999999999999659e+01,1.011452780055265843e-01
4.520000000000000284e+01,1.046775302514725836e-01
4.524000000000000199e+01,8.272252332937458930e-02
4.528000000000000114e+01,9.810631167647780593e-02
4.532000000000000028e+01,8.652108913450685945e-02
4.535999999999999943e+01,6.367336740250716109e-02
4.539999999999999858e+01,6.838490556052785607e-02
4.543999999999999773e+01,4.820187046619282822e-02
4.547999999999999687e+01,4.253871985034621966e-02
4.552000000000000313e+01,6.858371203902109692e-02
4.556000000000000227e+01,4.246998539770757697e-02
4.560000000000000142e+01,4.569360186369308269e-02
4.564000000000000057e+01,4.061819456447538640e-02
4.567999999999999972e+01,5.658234416738447403e-02
4.571999999999999886e+01,5.357888919673838013e-02
4.575999999999999801e+01,4.494354674840270875e-02
4.579999999999999716e+01,4.075219133887068163e-02
4.584000000000000341e+01,3.329973796078626591e-02
4.588000000000000256e+01,4.836857537670952861e-02
4.592000000000000171e+01,5.336027524589569832e-02
4.596000000000000085e+01,4.471864311655365798e-02
4.600000000000000000e+01,3.963193731471623821e-02
4.603999999999999915e+01,5.558476549181379928e-02
4.607999999999999829e+01,4.782837696580478914e-02
4.611999999999999744e+01,4.896119498339131237e-02
4.615999999999999659e+01,5.068543588642234615e-02
4.620000000000000284e+01,6.396602216758366655e-02
4.624000000000000199e+01,6.005706671629779808e-02
4.628000000000000114e+01,4.725634809667320080e-02
4.632000000000000028e+01,6.171848146018158593e-02
4.635999999999999943e+01,8.003186755340034597e-02
4.639999999999999858e+01,7.374696859114977798e-02
4.643999999999999773e+01,4.138203539942102854e-02
4.647999999999999687e+01,5.317185555039669054e-02
4.652000000000000313e+01,4.836481479057125332e-02
4.656000000000000227e+01,5.185425390631188958e-02
4.660000000000000142e+01,7.282699943791948183e-02
4.664000000000000057e+01,4.282635467155361531e-02
4.667999999999999972e+01,6.557458094931288561e-02
4.671999999999999886e+01,5.750116596208507819e-02
4.675999999999999801e+01,6.602199922644656771e-02
4.679999999999999716e+01,7.098532406834701103e-02
4.684000000000000341e+01,7.179843928997020619e-02
4.688000000000000256e+01,7.409197952684708210e-02
4.692000000000000171e+01,6.986451044622415951e-02
4.696000000000000085e+01,5.881968017568264123e-02
4.700000000000000000e+01,6.022019231903790598e-02
4.703999999999999915e+01,7.080620174989617210e-02
4.707999999999999829e+01,9.057770592123613740e-02
4.711999999999999744e+01,8.071294065896610082e-02
4.715999999999999659e+01,9.929637119397158318e-02
4.720000000000000284e+01,1.030609934711987363e-01
4.724000000000000199e+01,9.230315426902366283e-02
4.728000000000000114e+01,1.052519140167004763e-01
4.732000000000000028e+01,9.626947405599546592e-02
4.735999999999999943e+01,1.053629907685475070e-01
4.739999999999999858e+01,1.242346804962059237e-01
4.743999999999999773e+01,9.776356616801715194e-02
4.747999999999999687e+01,1.234485732927323581e-01
4.752000000000000313e+01,1.150520456326622892e-01
4.756000000000000227e+01,1.016162145297390546e-01
4.760000000000000142e+01,1.104052153735099184e-01
4.764000000000000057e+01,1.082279211724354595e-01
4.767999999999999972e+01,1.262010085462300646e-01
4.771999999999999886e+01,1.290589052255718960e-01
4.775999999999999801e+01,1.150235127110547095e-01
4.779999999999999716e+01,1.175823022255729350e-01
4.784000000000000341e+01,1.189543116982563070e-01
4.788000000000000256e+01,1.283263676694053612e-01
4.792000000000000171e+01,1.048022606871460427e-01
4.796000000000000085e+01,1.126897918157111628e-01
4.800000000000000000e+01,1.016095731905071325e-01
4.803999999999999915e+01,8.874986313756663692e-02
4.807999999999999829e+01,7.974129629242063255e-02
4.811999999999999744e+01,8.258530189377992492e-02
4.815999999999999659e+01,1.014307679501879750e-01
4.820000000000000284e+01,8.145306671608890103e-02
4.824000000000000199e+01,7.688412219220089328e-02
4.828000000000000114e+01,8.772393183150289930e-02
4.832000000000000028e+01,6.863104630115827998e-02
4.835999999999999943e+01,9.250739710192701359e-02
4.839999999999999858e+01,9.623057537712365050e-02
4.843999999999999773e+01,7.594803734955946073e-02
4.847999999999999687e+01,6.633265154371893735e-02
4.852000000000000313e+01,7.301505259513299539e-02
4.856000000000000227e+01,7.021284664719906754e-02
4.860000000000000142e+01,6.355666833544811045e-02
4.864000000000000057e+01,5.571365904143629755e-02
4.867999999999999972e+01,6.239033046420877637e-02
4.871999999999999886e+01,6.462032323130546818e-02
4.875999999999999801e+01,5.143870975599808271e-02
4.879999999999999716e+01,5.514756395959102137e-02
4.884000000000000341e+01,4.611195075531468457e-02
4.888000000000000256e+01,6.107918394543571800e-02
4.892000000000000171e+01,6.300559530824731413e-02
4.896000000000000085e+01,5.841086745547283826e-02
4.900000000000000000e+01,6.626135466553001452e-02
4.903999999999999915e+01,5.662577252625162344e-02
4.907999999999999829e+01,5.232301654622255327e-02
4.911999999999999744e+01,4.327720711490715827e-02
4.915999999999999659e+01,5.408533569327528961e-02
4.920000000000000284e+01,3.999865159928549241e-02
4.924000000000000199e+01,4.161700986537188174e-02
4.928000000000000114e+01,5.064262683338355969e-02
4.932000000000000028e+01,5.492517761500233242e-02
4.935999999999999943e+01,5.120481708383461950e-02
4.939999999999999858e+01,4.511217987541130819e-02
4.943999999999999773e+01,4.939028443480291547e-02
4.947999999999999687e+01,3.944213420699693717e-02
4.952000000000000313e+01,4.134646727995078958e-02
4.956000000000000227e+01,5.628867840823298385e-02
4.960000000000000142e+01,5.374478452888133834e-02
4.964000000000000057e+01,3.904907095202933554e-02
4.967999999999999972e+01,4.894885147994366970e-02
4.971999999999999886e+01,5.766173225602203023e-02
4.975999999999999801e+01,6.103882017767819912e-02
4.979999999999999716e+01,5.996916067408333828e-02
4.984000000000000341e+01,5.623084715060112926e-02
4.988000000000000256e+01,5.426911694117242391e-02
4.992000000000000171e+01,5.171317289559617530e-02
4.996000000000000085e+01,5.330460167321079273e-02
5.000000000000000000e+01,3.859529727456847970e-02
5.003999999999999915e+01,6.507702627976005849e-02
5.007999999999999829e+01,5.955150276858539593e-02
5.011999999999999744e+01,5.372810201155413939e-02
5.015999999999999659e+01,5.649730122356951684e-02
5.020000000000000284e+01,5.748687146869820019e-02
5.024000000000000199e+01,6.025300210468887557e-02
5.028000000000000114e+01,5.620156014799295580e-02
5.032000000000000028e+01,7.141128368656796122e-02
5.035999999999999943e+01,7.150564842728429626e-02
5.039999999999999858e+01,7.011672079140493508e-02
5.043999999999999773e+01,9.065609493830989463e-02
5.047999999999999687e+01,8.837502018595774778e-02
5.052000000000000313e+01,9.527922113025547035e-02
5.056000000000000227e+01,1.004037701844748415e-01
5.060000000000000142e+01,1.164916857936864475e-01
5.064000000000000057e+01,1.272437525140072134e-01
5.067999999999999972e+01,9.709804875071775809e-02
5.071999999999999886e+01,1.057725404887202153e-01
5.075999999999999801e+01,8.895942156973900283e-02
5.079999999999999716e+01,8.874029365319566209e-02
5.084000000000000341e+01,8.318530411265510904e-02
5.088000000000000256e+01,5.984777873440162016e-02
5.092000000000000171e+01,8.214647060647560506e-02
5.096000000000000085e+01,7.184515527691989756e-02
5.100000000000000000e+01,7.013638642896338760e-02
5.103999999999999915e+01,6.160999659491574881e-02
5.107999999999999829e+01,5.426741501348768260e-02
5.111999999999999744e+01,5.314657766941512790e-02
5.115999999999999659e+01,5.380224213471458683e-02
5.120000000000000284e+01,5.741980316395463996e-02
5.124000000000000199e+01,3.703146959894283718e-02
5.128000000000000114e+01,4.805456274198762617e-02
5.132000000000000028e+01,5.374176369677942378e-02
5.135999999999999943e+01,4.757338475755253093e-02
5.139999999999999858e+01,6.600039040117600120e-02
5.143999999999999773e+01,5.449450220749147561e-02
5.147999999999999687e+01,5.395192453433059199e-02
5.152000000000000313e+01,5.074058586638767465e-02
5.156000000000000227e+01,6.175239520429800372e-02
5.160000000000000142e+01,5.409257488191963198e-02
5.164000000000000057e+01,5.117271905863243764e-02
5.167999999999999972e+01,6.603219550490441181e-02
5.171999999999999886e+01,5.629304814187405248e-02
5.175999999999999801e+01,5.099750831147351754e-02
5.179999999999999716e+01,4.184779235555188825e-02
5.184000000000000341e+01,7.951963237005783836e-02
5.188000000000000256e+01,6.562504977600502887e-02
5.192000000000000171e+01,5.587771520109931223e-02
5.196000000000000085e+01,4.612873554275473409e-02
5.200000000000000000e+01,5.830795833336369777e-02
5.203999999999999915e+01,5.359361939883452997e-02
5.207999999999999829e+01,5.776810750172690911e-02
5.211999999999999744e+01,4.267823418225880072e-02
5.215999999999999659e+01,4.862750514746653346e-02
5.220000000000000284e+01,5.487146507250499627e-02
5.224000000000000199e+01,5.666852220399320322e-02
5.228000000000000114e+01,5.046248209013988462e-02
5.232000000000000028e+01,3.832778746170619616e-02
5.235999999999999943e+01,4.545412843045707613e-02
5.239999999999999858e+01,4.931895371916236032e-02
5.243999999999999773e+01,5.614559661414792596e-02
5.247999999999999687e+01,4.667134841755590791e-02
5.252000000000000313e+01,4.756764586813876095e-02
5.256000000000000227e+01,4.816591070456564122e-02
5.260000000000000142e+01,4.757709240362276853e-02
5.264000000000000057e+01,4.906103099766130626e-02
5.267999999999999972e+01,4.017105227296546149e-02
5.271999999999999886e+01,3.661366792858065239e-02
5.275999999999999801e+01,4.283411529844785570e-02
5.279999999999999716e+01,3.868063770851690175e-02
5.284000000000000341e+01,4.697213066737267184e-02
5.288000000000000256e+01,4.074080301682280608e-02
5.292000000000000171e+01,3.806396105909265470e-02
5.296000000000000085e+01,5.138827391385517723e-02
5.300000000000000000e+01,3.892848415304365345e-02
5.303999999999999915e+01,4.898952926942704011e-02
5.307999999999999829e+01,3.711900790636106506e-02
5.311999999999999744e+01,5.162185755661462955e-02
5.315999999999999659e+01,5.160186876831346359e-02
5.320000000000000284e+01,4.654221740715574346e-02
5.324000000000000199e+01,4.740782596582710645e-02
5.328000000000000114e+01,5.953297975446109752e-02
5.332000000000000028e+01,3.787257876561863496e-02
5.335999999999999943e+01,4.614172541273759559e-02
5.339999999999999858e+01,6.152151909319045209e-02
5.343999999999999773e+01,5.348797674401494645e-02
5.347999999999999687e+01,4.426729522300106023e-02
5.352000000000000313e+01,4.956598622919428099e-02
5.356000000000000227e+01,5.397388229490408806e-02
5.360000000000000142e+01,6.015812480168648141e-02
5.364000000000000057e+01,4.796695707549123583e-02
5.367999999999999972e+01,5.029515168841784678e-02
5.371999999999999886e+01,5.113984252198090774e-02
5.375999999999999801e+01,3.420181413229737150e-02
5.379999999999999716e+01,4.808235333753346080e-02
5.384000000000000341e+01,6.077573044773956767e-02
5.388000000000000256e+01,4.620320228091561593e-02
5.392000000000000171e+01,5.059526105204800728e-02
5.396000000000000085e+01,5.498554738867647562e-02
5.400000000000000000e+01,5.403977088662483691e-02
5.403999999999999915e+01,4.894332630046185906e-02
5.407999999999999829e+01,5.303193072605301428e-02
5.411999999999999744e+01,6.956542419574940350e-02
5.415999999999999659e+01,4.223743233700746891e-02
5.420000000000000284e+01,4.217179069820239240e-02
5.424000000000000199e+01,5.040213990687382462e-02
5.428000000000000114e+01,5.566720305089600113e-02
5.432000000000000028e+01,5.292903905149033000e-02
5.435999999999999943e+01,5.493066635372748086e-02
5.439999999999999858e+01,4.892906141849423518e-02
5.443999999999999773e+01,5.596502380199070564e-02
5.447999999999999687e+01,4.936711167142197182e-02
5.452000000000000313e+01,5.432501513855299280e-02
5.456000000000000227e+01,4.890888157694854577e-02
5.460000000000000142e+01,5.119601728883382830e-02
5.464000000000000057e+01,4.844339873509588557e-02
5.467999999999999972e+01,5.131959908302269335e-02
5.471999999999999886e+01,5.449032792843831741e-02
5.475999999999999801e+01,4.224906847825473516e-02
5.479999999999999716e+01,4.630519600298148297e-02
5.484000000000000341e+01,4.739600180476077201e-02
5.488000000000000256e+01,4.344703805878893932e-02
5.492000000000000171e+01,5.609180297206104587e-02
5.496000000000000085e+01,6.577123852132181481e-02
5.500000000000000000e+01,6.122406779444547475e-02
5.503999999999999915e+01,3.622695241106367592e-02
5.507999999999999829e+01,4.501181637189459461e-02
5.511999999999999744e+01,6.120356716954100662e-02
5.515999999999999659e+01,7.146648261409475900e-02
5.520000000000000284e+01,6.335388849184010740e-02
5.524000000000000199e+01,8.457802364475078272e-02
5.528000000000000114e+01,8.120330830346343676e-02
5.532000000000000028e+01,8.523546706388489269e-02
5.535999999999999943e+01,9.371100412501916221e-02
5.539999999999999858e+01,9.922118380490776990e-02
5.543999999999999773e+01,8.872663323904012023e-02
5.547999999999999687e+01,7.941561075344892584e-02
5.552000000000000313e+01,7.780779895985766303e-02
5.556000000000000227e+01,8.508859261283498177e-02
5.560000000000000142e+01,8.970036547485757406e-02
5.564000000000000057e+01,8.423438186396704774e-02
5.567999999999999972e+01,6.780159125694981692e-02
5.571999999999999886e+01,7.033327297193023298e-02
5.575999999999999801e+01,8.234624604916768176e-02
5.579999999999999716e+01,8.131795921143197825e-02
5.584000000000000341e+01,7.287904709425416239e-02
5.588000000000000256e+01,9.140602889672089226e-02
5.592000000000000171e+01,9.303920191298331588e-02
5.596000000000000085e+01,9.555952311986923298e-02
5.600000000000000000e+01,8.385317437508546523e-02
5.603999999999999915e+01,8.844413364755182583e-02
5.607999999999999829e+01,9.747842537434756038e-02
5.611999999999999744e+01,8.961889557983236665e-02
5.615999999999999659e+01,1.096142898520052616e-01
5.620000000000000284e+01,1.133085561596197111e-01
5.624000000000000199e+01,1.196680487810933419e-01
5.628000000000000114e+01,1.337307037011621624e-01
5.632000000000000028e+01,1.442352440077004638e-01
5.635999999999999943e+01,1.565159550108416453e-01
5.639999999999999858e+01,1.593115597984600118e-01
5.643999999999999773e+01,1.721811112997681248e-01
5.647999999999999687e+01,1.675641197057788911e-01
5.652000000000000313e+01,2.103610847315197929e-01
5.656000000000000227e+01,2.143343501393018269e-01
5.660000000000000142e+01,2.153421817551991191e-01
5.664000000000000057e+01,2.089393371512282549e-01
5.667999999999999972e+01,2.185374104867690292e-01
5.671999999999999886e+01,2.174649599290266466e-01
5.675999999999999801e+01,2.066110309071723383e-01
5.679999999999999716e+01,1.788632370646449365e-01
5.684000000000000341e+01,1.955658862117026775e-01
5.688000000000000256e+01,1.796681511979782153e-01
5.692000000000000171e+01,1.560633728098388684e-01
5.696000000000000085e+01,1.434215560003049006e-01
5.700000000000000000e+01,1.506331779842796370e-01
5.703999999999999915e+01,1.477669543495956916e-01
5.707999999999999829e+01,1.351192318746293752e-01
5.711999999999999744e+01,1.239512823774636952e-01
5.715999999999999659e+01,1.255243776761819363e-01
5.720000000000000284e+01,1.190940624459386615e-01
5.724000000000000199e+01,1.360733626318460510e-01
5.728000000000000114e+01,1.426784525915695545e-01
5.732000000000000028e+01,1.486888575162048642e-01
5.735999999999999943e+01,1.395834579142538334e-01
5.739999999999999858e+01,1.260308269530047987e-01
5.743999999999999773e+01,1.302571614902476860e-01
5.747999999999999687e+01,1.155151426296731065e-01
5.752000000000000313e+01,1.144031936179830677e-01
5.756000000000000227e+01,1.029170165509600415e-01
5.760000000000000142e+01,8.105660888158269795e-02
5.764000000000000057e+01,8.734738036450277743e-02
5.767999999999999972e+01,9.037629996056560644e-02
5.771999999999999886e+01,7.532589885287557796e-02
5.775999999999999801e+01,8.220333342307190039e-02
5.779999999999999716e+01,7.040874354467784035e-02
5.784000000000000341e+01,6.987340853581805455e-02
5.788000000000000256e+01,7.378129136532907140e-02
5.792000000000000171e+01,5.575729952581350707e-02
5.796000000000000085e+01,6.025382927987271708e-02
5.800000000000000000e+01,5.822864419153191834e-02
5.803999999999999915e+01,5.857222147569431797e-02
5.807999999999999829e+01,5.328312679960661019e-02
5.811999999999999744e+01,6.369850904486638876e-02
5.815999999999999659e+01,4.625501483102198441e-02
5.820000000000000284e+01,4.362694446829005340e-02
5.824000000000000199e+01,5.255445283027676551e-02
5.828000000000000114e+01,4.666244740958483406e-02
5.832000000000000028e+01,4.373188518304202410e-02
5.835999999999999943e+01,4.198466765124207051e-02
5.839999999999999858e+01,2.867777127507182763e-02
5.843999999999999773e+01,3.255707807106607288e-02
5.847999999999999687e+01,5.243718819061361086e-02
5.852000000000000313e+01,4.771824150723757291e-02
5.856000000000000227e+01,5.425850384701241119e-02
5.860000000000000142e+01,3.501430698823137372e-02
5.864000000000000057e+01,4.510662290780505235e-02
5.867999999999999972e+01,4.008305024908950104e-02
5.871999999999999886e+01,5.076391630640195857e-02
5.875999999999999801e+01,4.395809408820275377e-02
5.879999999999999716e+01,3.626114326972968566e-02
5.884000000000000341e+01,4.486132217701564728e-02
5.888000000000000256e+01,4.308718897726571129e-02
5.892000000000000171e+01,4.427446076634533600e-02
5.896000000000000085e+01,2.797503154480679086e-02
5.900000000000000000e+01,3.389970836889177885e-02
5.903999999999999915e+01,3.389530277881789427e-02
5.907999999999999829e+01,3.062895615614121686e-02
5.911999999999999744e+01,4.484511873166445450e-02
5.915999999999999659e+01,3.120234117255096459e-02
5.920000000000000284e+01,4.185810220173685758e-02
5.924000000000000199e+01,3.976873359751532944e-02
5.928000000000000114e+01,3.056486999541710436e-02
5.932000000000000028e+01,3.054572174528265294e-02
5.935999999999999943e+01,2.015223082385671216e-02
5.939999999999999858e+01,2.842662857307147808e-02
5.943999999999999773e+01,4.321859010460864930e-02
5.947999999999999687e+01,3.281873505391619261e-02
5.952000000000000313e+01,3.575247317564584498e-02
5.956000000000000227e+01,3.186804779574719387e-02
5.960000000000000142e+01,2.975958680372610410e-02
5.964000000000000057e+01,3.713217011289593472e-02
5.967999999999999972e+01,3.442673970000121458e-02
5.971999999999999886e+01,3.290456738312517310e-02
5.975999999999999801e+01,3.908533577399119635e-02
5.979999999999999716e+01,2.096331518264960697e-02
5.984000000000000341e+01,3.691932016538355260e-02
5.988000000000000256e+01,3.983380543697177117e-02
5.992000000000000171e+01,4.037534416470231480e-02
5.996000000000000085e+01,2.076297427770476545e-02
