2.003999999999999915e+01,1.789796400445119520e-02
2.007999999999999829e+01,1.317936144438553066e-02
2.012000000000000099e+01,1.884552762643712520e-02
2.016000000000000014e+01,3.693639748207717260e-02
2.019999999999999929e+01,2.943499024794514474e-02
2.023999999999999844e+01,3.380193945602922440e-02
2.028000000000000114e+01,2.629981299344075554e-02
2.032000000000000028e+01,3.919668124654195757e-02
2.035999999999999943e+01,1.889787401509508691e-02
2.039999999999999858e+01,3.012498134562447208e-02
2.044000000000000128e+01,1.650160278130709604e-02
2.048000000000000043e+01,1.381933370017995703e-02
2.051999999999999957e+01,2.523080113634570271e-02
2.055999999999999872e+01,2.848216244709460623e-02
2.060000000000000142e+01,2.895142887179741331e-02
2.064000000000000057e+01,2.255872877743496027e-02
2.067999999999999972e+01,2.877617337007727649e-02
2.071999999999999886e+01,3.035703446886784534e-02
2.076000000000000156e+01,2.674496543246244334e-02
2.080000000000000071e+01,2.276163144891481596e-02
2.083999999999999986e+01,2.675222269795357252e-02
2.087999999999999901e+01,3.927308464086849693e-02
2.092000000000000171e+01,2.397627466825066889e-02
2.096000000000000085e+01,3.853633284327501185e-02
2.100000000000000000e+01,2.583506397402900862e-02
2.103999999999999915e+01,4.020893181578522740e-02
2.107999999999999829e+01,2.565243327926507860e-02
2.112000000000000099e+01,1.740081769118872329e-02
2.116000000000000014e+01,2.639555680409778893e-02
2.119999999999999929e+01,4.262242110425764480e-02
2.123999999999999844e+01,2.009013642609694741e-02
2.128000000000000114e+01,7.386257327945306567e-03
2.132000000000000028e+01,1.563770424611684445e-02
2.135999999999999943e+01,2.704140294843795228e-02
2.139999999999999858e+01,3.121222655362950252e-02
2.144000000000000128e+01,2.017588106945271409e-02
2.148000000000000043e+01,8.211914556351743166e-03
2.151999999999999957e+01,1.868686057961590000e-02
2.155999999999999872e+01,5.794893657446177106e-03
2.160000000000000142e+01,1.905081176703418352e-02
2.164000000000000057e+01,3.675711831698669912e-02
2.167999999999999972e+01,1.329343650927705851e-02
2.171999999999999886e+01,2.506462346808841293e-02
2.176000000000000156e+01,2.886113528443461779e-02
2.180000000000000071e+01,2.672290688978406353e-02
2.183999999999999986e+01,5.668529830044675630e-03
2.187999999999999901e+01,1.317286656091204607e-02
2.192000000000000171e+01,2.679662575590386481e-02
2.196000000000000085e+01,2.855128449907418792e-02
2.200000000000000000e+01,3.049100664559889831e-02
2.203999999999999915e+01,1.796534558743441770e-02
2.207999999999999829e+01,2.324237171094329160e-02
2.212000000000000099e+01,2.592272921113922615e-02
2.216000000000000014e+01,2.915904512212478400e-02
2.219999999999999929e+01,3.536215174291310742e-02
2.223999999999999844e+01,4.045217744048527908e-02
2.228000000000000114e+01,2.625515061512294010e-02
2.232000000000000028e+01,4.117317714138352125e-02
2.235999999999999943e+01,4.069857232387445040e-02
2.239999999999999858e+01,1.277717112736524198e-02
2.244000000000000128e+01,2.658133200891700521e-02
2.248000000000000043e+01,2.350927030643821039e-02
2.251999999999999957e+01,3.174918536329954244e-02
2.255999999999999872e+01,1.124416089464479532e-02
2.260000000000000142e+01,3.969719481106347148e-02
2.264000000000000057e+01,3.124554593592799440e-02
2.267999999999999972e+01,2.761516752799057436e-02
2.271999999999999886e+01,2.046086822746801329e-02
2.276000000000000156e+01,1.627335137636547885e-02
2.280000000000000071e+01,3.025940845398872314e-02
2.283999999999999986e+01,1.512962450835964381e-02
2.287999999999999901e+01,2.336597645702778725e-02
2.292000000000000171e+01,1.658058616908788044e-02
2.296000000000000085e+01,2.463069114186195244e-02
2.300000000000000000e+01,3.082590924581057185e-02
2.303999999999999915e+01,1.532323072726453177e-02
2.307999999999999829e+01,1.929226279365928512e-02
2.312000000000000099e+01,2.975159699090251450e-02
2.316000000000000014e+01,1.888393016311369632e-02
2.319999999999999929e+01,2.785886951772828871e-02
2.323999999999999844e+01,9.387000102768274304e-03
2.328000000000000114e+01,3.579330799942510855e-02
2.332000000000000028e+01,3.456735726268032882e-02
2.335999999999999943e+01,5.225676692936776641e-02
2.339999999999999858e+01,3.693590495320061423e-02
2.344000000000000128e+01,2.754899433634614911e-02
2.348000000000000043e+01,1.964526607824045035e-02
2.351999999999999957e+01,2.453708929896989896e-02
2.355999999999999872e+01,2.405049239881629913e-02
2.360000000000000142e+01,2.523252477110191419e-02
2.364000000000000057e+01,3.179215950124622547e-02
2.367999999999999972e+01,4.651112625580738208e-02
2.371999999999999886e+01,2.710712454466098278e-02
2.376000000000000156e+01,4.034167993582761513e-02
2.380000000000000071e+01,2.650031566458158072e-02
2.383999999999999986e+01,4.325757179409796260e-02
2.387999999999999901e+01,2.459371631139077238e-02
2.392000000000000171e+01,3.856841557088733913e-02
2.396000000000000085e+01,3.065975595348776131e-02
2.400000000000000000e+01,4.036830651267614423e-02
2.403999999999999915e+01,5.137458248645822984e-02
2.407999999999999829e+01,4.402102280493664505e-02
2.412000000000000099e+01,2.127480581844203369e-02
2.416000000000000014e+01,4.025412553883223055e-02
2.419999999999999929e+01,3.104482759390211552e-02
2.423999999999999844e+01,4.353260732838788727e-02
2.428000000000000114e+01,1.930112876397010666e-02
2.432000000000000028e+01,2.641005825507602642e-02
2.435999999999999943e+01,2.183530057649175557e-02
2.439999999999999858e+01,2.115454457506779282e-02
2.444000000000000128e+01,1.286997126689074129e-02
2.448000000000000043e+01,4.797996809933105511e-02
2.451999999999999957e+01,3.394564127995610553e-02
2.455999999999999872e+01,4.123749005223333736e-02
2.460000000000000142e+01,3.313667443920922939e-02
2.464000000000000057e+01,2.967165169827074012e-02
2.467999999999999972e+01,3.733312517142304415e-02
2.471999999999999886e+01,3.015827854050887394e-02
2.476000000000000156e+01,2.799012037914309914e-02
2.480000000000000071e+01,2.563608695167221910e-02
2.483999999999999986e+01,3.125591975405258433e-02
2.487999999999999901e+01,3.891526031554159992e-02
2.492000000000000171e+01,4.063981464390048481e-02
2.496000000000000085e+01,2.418996902012651370e-02
2.500000000000000000e+01,2.684090829243577711e-02
2.503999999999999915e+01,2.800782797206947602e-02
2.507999999999999829e+01,7.847718305358070481e-03
2.512000000000000099e+01,3.200941275768821176e-02
2.516000000000000014e+01,2.501529644368374536e-02
2.519999999999999929e+01,2.154427263874790152e-02
2.523999999999999844e+01,2.382172495812148738e-02
2.528000000000000114e+01,4.297457383811863207e-02
2.532000000000000028e+01,2.818987933508653940e-02
2.535999999999999943e+01,2.230628681041193009e-02
2.539999999999999858e+01,2.736373119556335942e-02
2.544000000000000128e+01,3.260618824171677282e-02
2.548000000000000043e+01,3.914634946147913658e-02
2.551999999999999957e+01,2.695575641740857037e-02
2.555999999999999872e+01,3.534952947921718436e-02
2.560000000000000142e+01,3.632491680725187522e-02
2.564000000000000057e+01,3.878345463255824382e-02
2.567999999999999972e+01,1.360969901284950906e-02
2.571999999999999886e+01,1.365652423321914340e-02
2.576000000000000156e+01,2.186265079658337301e-02
2.580000000000000071e+01,2.877019524052474089e-02
2.583999999999999986e+01,2.751755567543864855e-02
2.587999999999999901e+01,5.686350641972011399e-02
2.592000000000000171e+01,3.595242075859467895e-02
2.596000000000000085e+01,2.950588873858708480e-02
2.600000000000000000e+01,3.103320583763771734e-02
2.603999999999999915e+01,3.107648859332879515e-02
2.607999999999999829e+01,1.572708513270649339e-02
2.612000000000000099e+01,1.873665531231220177e-02
2.616000000000000014e+01,2.118943279733814106e-02
2.619999999999999929e+01,4.682284852061861791e-02
2.623999999999999844e+01,2.572274810994827632e-02
2.628000000000000114e+01,2.149802950921742006e-02
2.632000000000000028e+01,4.026849869288679634e-02
2.635999999999999943e+01,2.231967889623037021e-02
2.639999999999999858e+01,1.327194573722022784e-02
2.644000000000000128e+01,4.205529329431663410e-02
2.648000000000000043e+01,1.038191857814366181e-02
2.651999999999999957e+01,3.137551809981093537e-02
2.655999999999999872e+01,2.992937434148704168e-02
2.660000000000000142e+01,4.276232610007099644e-02
2.664000000000000057e+01,4.205707021968226045e-02
2.667999999999999972e+01,3.319161793969159502e-02
2.671999999999999886e+01,2.061673708060831126e-02
2.676000000000000156e+01,2.232094937832360126e-02
2.680000000000000071e+01,1.456682271994847420e-02
2.683999999999999986e+01,2.424441566244710244e-02
2.687999999999999901e+01,3.429244870873554563e-02
2.692000000000000171e+01,2.394066868628267827e-02
2.696000000000000085e+01,3.417323411875153316e-02
2.700000000000000000e+01,1.751528137039193300e-02
2.703999999999999915e+01,7.903918981517436132e-03
2.707999999999999829e+01,2.648029631214925128e-02
2.712000000000000099e+01,2.651134446162645500e-02
2.716000000000000014e+01,2.153481675530377615e-02
2.719999999999999929e+01,1.989590337290965058e-02
2.723999999999999844e+01,3.012524317794518930e-02
2.728000000000000114e+01,2.829995537374923112e-02
2.732000000000000028e+01,1.367824463520481149e-02
2.735999999999999943e+01,1.574645109208928570e-02
2.739999999999999858e+01,3.153739521401758422e-02
2.744000000000000128e+01,1.951057124595473660e-02
2.748000000000000043e+01,2.510090612210032213e-02
2.751999999999999957e+01,3.087622297782573536e-02
2.755999999999999872e+01,2.014613968359162469e-02
2.760000000000000142e+01,3.241122529288235216e-02
2.764000000000000057e+01,2.112385958880923578e-02
2.767999999999999972e+01,1.614128006869422829e-02
2.771999999999999886e+01,2.321239533945315681e-02
2.776000000000000156e+01,2.972669431453821634e-02
2.780000000000000071e+01,2.251731985608499548e-02
2.783999999999999986e+01,2.179817790525278090e-02
2.787999999999999901e+01,2.423119156411183278e-02
2.792000000000000171e+01,8.675210292586429950e-03
2.796000000000000085e+01,2.037971234110381655e-02
2.800000000000000000e+01,3.134194587001104537e-02
2.803999999999999915e+01,4.434364054586593246e-02
2.807999999999999829e+01,2.173871297285303802e-02
2.812000000000000099e+01,2.491067688959489740e-02
2.816000000000000014e+01,2.938030544811293457e-02
2.819999999999999929e+01,2.568971518598977405e-02
2.823999999999999844e+01,3.368191467684020224e-02
2.828000000000000114e+01,3.703741915866944762e-02
2.832000000000000028e+01,2.555655043397063800e-02
2.835999999999999943e+01,2.742750784611445655e-02
2.839999999999999858e+01,3.226516451382168554e-02
2.844000000000000128e+01,3.524785406898366114e-02
2.848000000000000043e+01,3.359384566498780506e-02
2.851999999999999957e+01,3.490653474647330973e-02
2.855999999999999872e+01,4.345124045017698805e-02
2.860000000000000142e+01,3.641777408207165501e-02
2.864000000000000057e+01,3.439093895086147573e-02
2.867999999999999972e+01,4.367598971477928277e-02
2.871999999999999886e+01,4.331722451752153397e-02
2.876000000000000156e+01,4.407066642785734123e-02
2.880000000000000071e+01,6.373938849790564132e-02
2.883999999999999986e+01,4.798692579233891642e-02
2.887999999999999901e+01,5.838224073355172822e-02
2.892000000000000171e+01,4.782136705333848992e-02
2.896000000000000085e+01,6.785903825038673565e-02
2.900000000000000000e+01,6.935135253499478958e-02
2.903999999999999915e+01,7.232676716454985999e-02
2.907999999999999829e+01,9.273386835344696322e-02
2.912000000000000099e+01,9.144298323569191589e-02
2.916000000000000014e+01,1.153726282156631033e-01
2.919999999999999929e+01,1.248367843760493229e-01
2.923999999999999844e+01,1.415329471281887019e-01
2.928000000000000114e+01,1.396837488376964920e-01
2.932000000000000028e+01,1.676912953791301897e-01
2.935999999999999943e+01,1.877240546729017912e-01
2.939999999999999858e+01,2.218504194978943300e-01
2.944000000000000128e+01,2.481874445789424288e-01
2.948000000000000043e+01,2.787892937712219688e-01
2.951999999999999957e+01,3.118014796469820160e-01
2.955999999999999872e+01,3.607617555315771329e-01
2.960000000000000142e+01,4.013763432608012938e-01
2.964000000000000057e+01,4.651715184859277485e-01
2.967999999999999972e+01,5.360132451287341615e-01
2.971999999999999886e+01,6.587801040721033008e-01
2.976000000000000156e+01,7.720885803973578376e-01
2.980000000000000071e+01,8.924436063702104738e-01
2.983999999999999986e+01,9.766356380816746396e-01
2.987999999999999901e+01,1.000000000000000000e+00
2.992000000000000171e+01,8.772302969998755362e-01
2.996000000000000085e+01,7.937752122636296814e-01
3.000000000000000000e+01,6.075810534316100631e-01
3.003999999999999915e+01,4.651522800939507651e-01
3.007999999999999829e+01,3.438641522403970141e-01
3.012000000000000099e+01,2.750574968384494334e-01
3.016000000000000014e+01,1.923416845075773540e-01
3.019999999999999929e+01,1.583983697728096607e-01
3.023999999999999844e+01,1.363232639734202334e-01
3.028000000000000114e+01,9.588823106448780831e-02
3.032000000000000028e+01,9.606595189559406778e-02
3.035999999999999943e+01,8.474534573667971693e-02
3.039999999999999858e+01,7.175519223765230992e-02
3.044000000000000128e+01,6.710971973219162501e-02
3.048000000000000043e+01,5.393309740698599974e-02
3.051999999999999957e+01,6.078442197295080840e-02
3.055999999999999872e+01,7.245690077072562685e-02
3.060000000000000142e+01,1.076808502712908872e-01
3.064000000000000057e+01,1.462423633534326028e-01
3.067999999999999972e+01,1.577278552884570084e-01
3.071999999999999886e+01,1.245197005279630731e-01
3.076000000000000156e+01,9.131103127106109107e-02
3.080000000000000071e+01,5.698915482508957325e-02
3.083999999999999986e+01,3.620451661803723159e-02
3.087999999999999901e+01,3.229519236777916164e-02
3.092000000000000171e+01,3.487605519303607626e-02
3.096000000000000085e+01,2.095146771600852817e-02
3.100000000000000000e+01,4.003622791388807695e-02
3.103999999999999915e+01,2.110348931183523430e-02
3.107999999999999829e+01,2.071509987039111406e-02
3.112000000000000099e+01,2.180978009247161800e-02
3.116000000000000014e+01,2.958009253367532496e-02
3.119999999999999929e+01,3.623719188553599369e-02
3.123999999999999844e+01,2.583249075360366867e-02
3.128000000000000114e+01,2.673963716502144108e-02
3.132000000000000028e+01,2.875895292228235547e-02
3.135999999999999943e+01,3.745389794852973381e-02
3.139999999999999858e+01,2.500716908788290158e-02
3.144000000000000128e+01,2.683946435083433765e-02
3.148000000000000043e+01,4.332168051490158794e-02
3.151999999999999957e+01,3.754952891935842835e-02
3.155999999999999872e+01,2.936601813781955853e-02
3.160000000000000142e+01,2.915627387150951724e-02
3.164000000000000057e+01,2.727696397423847244e-02
3.167999999999999972e+01,2.984789442046684171e-02
3.171999999999999886e+01,3.427278304735426745e-02
3.176000000000000156e+01,2.627208061440203940e-02
3.180000000000000071e+01,4.015379302946856660e-02
3.183999999999999986e+01,2.269414745986044965e-02
3.187999999999999901e+01,2.711691555821640898e-02
3.192000000000000171e+01,4.767318753756605298e-02
3.196000000000000085e+01,7.601777203812594419e-02
3.200000000000000000e+01,1.368153434115922384e-01
3.203999999999999915e+01,1.523629025673203519e-01
3.207999999999999829e+01,1.022610937003240045e-01
3.211999999999999744e+01,9.165931991950136692e-02
3.215999999999999659e+01,4.934528606624059149e-02
3.220000000000000284e+01,3.484801904144044227e-02
3.224000000000000199e+01,2.925175251029330653e-02
3.228000000000000114e+01,3.589456219067416187e-02
3.232000000000000028e+01,2.807183702933657710e-02
3.235999999999999943e+01,2.136126587313092601e-02
3.239999999999999858e+01,3.115508888513549360e-02
3.243999999999999773e+01,3.390132263623375081e-02
3.247999999999999687e+01,3.609067046843070919e-02
3.252000000000000313e+01,2.325813445745541011e-02
3.256000000000000227e+01,2.266467052781664937e-02
3.260000000000000142e+01,2.188521627673932490e-02
3.264000000000000057e+01,2.611233425982201553e-02
3.267999999999999972e+01,3.849865151116740880e-02
3.271999999999999886e+01,3.363769776393550626e-02
3.275999999999999801e+01,3.248517369437500801e-02
3.279999999999999716e+01,4.913517867915769000e-02
3.284000000000000341e+01,3.685464381762255243e-02
3.288000000000000256e+01,3.440234342816456820e-02
3.292000000000000171e+01,5.216340321200831076e-02
3.296000000000000085e+01,4.433199768735457402e-02
3.300000000000000000e+01,5.912478404498849177e-02
3.303999999999999915e+01,4.980869338424910586e-02
3.307999999999999829e+01,6.701121578496202491e-02
3.311999999999999744e+01,8.217325335615729975e-02
3.315999999999999659e+01,1.021564068073846504e-01
3.320000000000000284e+01,1.523671452254294900e-01
3.324000000000000199e+01,2.400379666873862228e-01
3.328000000000000114e+01,3.297481720027077290e-01
3.332000000000000028e+01,3.604851436202615167e-01
3.335999999999999943e+01,3.235327928127196828e-01
3.339999999999999858e+01,2.880634780371434389e-01
3.343999999999999773e+01,1.980716962042541052e-01
3.347999999999999687e+01,1.485071728154702675e-01
3.352000000000000313e+01,9.152414686749689443e-02
3.356000000000000227e+01,8.182997948315151593e-02
3.360000000000000142e+01,7.361884518063488425e-02
3.364000000000000057e+01,5.724741181375733734e-02
3.367999999999999972e+01,4.903516296445866590e-02
3.371999999999999886e+01,3.729883096505314660e-02
3.375999999999999801e+01,4.763033358609856244e-02
3.379999999999999716e+01,4.238358743177927934e-02
3.384000000000000341e+01,5.994646945294564155e-02
3.388000000000000256e+01,6.415648572396089044e-02
3.392000000000000171e+01,6.428606984341550534e-02
3.396000000000000085e+01,5.792438833224144296e-02
3.400000000000000000e+01,5.656925899429748189e-02
3.403999999999999915e+01,5.020645231584899837e-02
3.407999999999999829e+01,3.846507033932398262e-02
3.411999999999999744e+01,3.414107165498762170e-02
3.415999999999999659e+01,3.704900698904016465e-02
3.420000000000000284e+01,3.365112183607231466e-02
3.424000000000000199e+01,3.952510504293461902e-02
3.428000000000000114e+01,3.390070343709590539e-02
3.432000000000000028e+01,2.586490193337416185e-02
3.435999999999999943e+01,3.340622226766056663e-02
3.439999999999999858e+01,2.889280996784680811e-02
3.443999999999999773e+01,1.139742102504379129e-02
3.447999999999999687e+01,2.227511133045943087e-02
3.452000000000000313e+01,1.979992644528634146e-02
3.456000000000000227e+01,3.253096308043991469e-02
3.460000000000000142e+01,2.541841941291761789e-02
3.464000000000000057e+01,1.533812507597653516e-02
3.467999999999999972e+01,2.714020310508486605e-02
3.471999999999999886e+01,8.342675402638678392e-03
3.475999999999999801e+01,2.385258069893499491e-02
3.479999999999999716e+01,2.378422246918286687e-02
3.484000000000000341e+01,1.648279089311106144e-02
3.488000000000000256e+01,2.104949980924461159e-02
3.492000000000000171e+01,3.080819601175152980e-02
3.496000000000000085e+01,2.480317764432827740e-02
3.500000000000000000e+01,4.888930954671025925e-03
3.503999999999999915e+01,1.798397234715836193e-02
3.507999999999999829e+01,1.383170792945461781e-02
3.511999999999999744e+01,1.654046600193865776e-02
3.515999999999999659e+01,1.739415783728236187e-02
3.520000000000000284e+01,1.101477101606010076e-02
3.524000000000000199e+01,2.317967199260195094e-02
3.528000000000000114e+01,2.180623788426314796e-02
3.532000000000000028e+01,1.876318386244690828e-02
3.535999999999999943e+01,9.970638294134153215e-03
3.539999999999999858e+01,1.527160975293962060e-02
3.543999999999999773e+01,3.021532923829935852e-02
3.547999999999999687e+01,1.585757256799137302e-02
3.552000000000000313e+01,2.505121402710967435e-02
3.556000000000000227e+01,1.903747811720448574e-02
3.560000000000000142e+01,3.286616548122383435e-02
3.564000000000000057e+01,1.609523354305947632e-02
3.567999999999999972e+01,2.120665922026078801e-02
3.571999999999999886e+01,4.782954455525568332e-02
3.575999999999999801e+01,3.495127199691186459e-02
3.579999999999999716e+01,4.117362502726630569e-02
3.584000000000000341e+01,5.017711888432432182e-02
3.588000000000000256e+01,3.303175830957110620e-02
3.592000000000000171e+01,4.277586627187311002e-02
3.596000000000000085e+01,3.879618043505700387e-02
3.600000000000000000e+01,3.667038964597332806e-02
3.603999999999999915e+01,3.306041700669234279e-02
3.607999999999999829e+01,3.612600401317032223e-02
3.611999999999999744e+01,3.103125537359150213e-02
3.615999999999999659e+01,4.225539675587942218e-02
3.620000000000000284e+01,3.141055002912918059e-02
3.624000000000000199e+01,2.965209347706906223e-02
3.628000000000000114e+01,3.883451334739537048e-02
3.632000000000000028e+01,2.279531571447144037e-02
3.635999999999999943e+01,2.882391435022047671e-02
3.639999999999999858e+01,4.041537580887555325e-02
3.643999999999999773e+01,5.293348240610040722e-02
3.647999999999999687e+01,4.171355861014443278e-02
3.652000000000000313e+01,3.828188007228067180e-02
3.656000000000000227e+01,5.506350801522962718e-02
3.660000000000000142e+01,5.941947350502940761e-02
3.664000000000000057e+01,4.708445622488835469e-02
3.667999999999999972e+01,3.882870816728307972e-02
3.671999999999999886e+01,5.189895633301527117e-02
3.675999999999999801e+01,4.494014365082221046e-02
3.679999999999999716e+01,5.114758392592824027e-02
3.684000000000000341e+01,6.421602132004593233e-02
3.688000000000000256e+01,6.838231712249770444e-02
3.692000000000000171e+01,7.903871149636165772e-02
3.696000000000000085e+01,9.136353807352931566e-02
3.700000000000000000e+01,1.068403857341520824e-01
3.703999999999999915e+01,1.154550249644954035e-01
3.707999999999999829e+01,1.190619420122555339e-01
3.711999999999999744e+01,1.454784388532584238e-01
3.715999999999999659e+01,1.629927899724039342e-01
3.720000000000000284e+01,1.502783961458438455e-01
3.724000000000000199e+01,1.338544185629975680e-01
3.728000000000000114e+01,1.011103461373176471e-01
3.732000000000000028e+01,9.673931106791437695e-02
3.735999999999999943e+01,7.178286024885860428e-02
3.739999999999999858e+01,6.277438379327697493e-02
3.743999999999999773e+01,5.005632063127242459e-02
3.747999999999999687e+01,4.123206620748423590e-02
3.752000000000000313e+01,2.925456994853550818e-02
3.756000000000000227e+01,3.953030094121157134e-02
3.760000000000000142e+01,2.625343370371337193e-02
3.764000000000000057e+01,2.521556361407803828e-02
3.767999999999999972e+01,2.621701247479868782e-02
3.771999999999999886e+01,3.185406126866104776e-02
3.775999999999999801e+01,2.376728971217446570e-02
3.779999999999999716e+01,3.329752477283972473e-02
3.784000000000000341e+01,2.354047778993073950e-02
3.788000000000000256e+01,2.435338626076932397e-02
3.792000000000000171e+01,2.256939304749094877e-02
3.796000000000000085e+01,2.338106070569419964e-02
3.800000000000000000e+01,1.510512156769330643e-02
3.803999999999999915e+01,2.110810919877774763e-02
3.807999999999999829e+01,1.301637439174974271e-02
3.811999999999999744e+01,2.105805201147591121e-02
3.815999999999999659e+01,1.370686522662844901e-02
3.820000000000000284e+01,1.748197522662690157e-02
3.824000000000000199e+01,2.719081827581788444e-02
3.828000000000000114e+01,1.983775699640200410e-02
3.832000000000000028e+01,2.806175914228643473e-02
3.835999999999999943e+01,1.718392025801343190e-02
3.839999999999999858e+01,9.458081806238211736e-03
3.843999999999999773e+01,2.509814972812022746e-02
3.847999999999999687e+01,1.662926038790908667e-02
3.852000000000000313e+01,0.000000000000000000e+00
3.856000000000000227e+01,1.916170602841394191e-02
3.860000000000000142e+01,1.792342670009978989e-02
3.864000000000000057e+01,1.241919691322512093e-02
3.867999999999999972e+01,1.266324500146981044e-02
3.871999999999999886e+01,1.420480196426993774e-02
3.875999999999999801e+01,1.463303432255752372e-02
3.879999999999999716e+01,3.193646381222375180e-02
3.884000000000000341e+01,2.642907151595716431e-02
3.888000000000000256e+01,2.240463441790891547e-02
3.892000000000000171e+01,1.096161510697872196e-02
3.896000000000000085e+01,1.416840636204946650e-02
3.900000000000000000e+01,1.978539446411825206e-02
3.903999999999999915e+01,2.855437355824732779e-02
3.907999999999999829e+01,1.581066811268595079e-02
3.911999999999999744e+01,1.456414324888600544e-02
3.915999999999999659e+01,1.721140234215368103e-02
3.920000000000000284e+01,2.263975269982737570e-02
3.924000000000000199e+01,2.602752795379858694e-02
3.928000000000000114e+01,1.569146043638155325e-02
3.932000000000000028e+01,1.369994292645915213e-02
3.935999999999999943e+01,2.190746167172769043e-02
3.939999999999999858e+01,1.917286613211123536e-02
3.943999999999999773e+01,1.606673069260666775e-02
3.947999999999999687e+01,1.703982317372326402e-02
3.952000000000000313e+01,2.190669430166118647e-02
3.956000000000000227e+01,1.471875668197059062e-02
3.960000000000000142e+01,1.772985177730677930e-02
3.964000000000000057e+01,1.758767376603284638e-02
3.967999999999999972e+01,2.375010493051148835e-02
3.971999999999999886e+01,2.465484234146681636e-03
3.975999999999999801e+01,1.474642804801607789e-02
3.979999999999999716e+01,2.201960955744232049e-02
3.984000000000000341e+01,1.631073477018679316e-02
3.988000000000000256e+01,2.580800302962018775e-02
3.992000000000000171e+01,9.156357264479823843e-03
3.996000000000000085e+01,1.939412044363212836e-02
4.000000000000000000e+01,2.907488677874108321e-02
4.003999999999999915e+01,1.668660836218604712e-02
4.007999999999999829e+01,1.764998320445964122e-02
4.011999999999999744e+01,2.769969098877032507e-02
4.015999999999999659e+01,2.124381276450563669e-02
4.020000000000000284e+01,1.793990842150793713e-02
4.024000000000000199e+01,1.852977210483935239e-02
4.028000000000000114e+01,2.486789006219601930e-02
4.032000000000000028e+01,2.601278936098163491e-02
4.035999999999999943e+01,2.882607071074596086e-02
4.039999999999999858e+01,2.125356907625860353e-02
4.043999999999999773e+01,1.850207593682530113e-02
4.047999999999999687e+01,2.224062885636994211e-02
4.052000000000000313e+01,1.448070491894666925e-02
4.056000000000000227e+01,1.246903112535723696e-02
4.060000000000000142e+01,1.861643977461487076e-02
4.064000000000000057e+01,1.790158689113144699e-02
4.067999999999999972e+01,2.145139291122092479e-02
4.071999999999999886e+01,1.146278360270982025e-02
4.075999999999999801e+01,1.000415174448109935e-02
4.079999999999999716e+01,1.373742043860502228e-02
4.084000000000000341e+01,1.839726936829001042e-02
4.088000000000000256e+01,2.212921110578520631e-02
4.092000000000000171e+01,2.511869374483561082e-02
4.096000000000000085e+01,1.642424435284492099e-02
4.100000000000000000e+01,2.367771622186668964e-02
4.103999999999999915e+01,2.889058643595513939e-02
4.107999999999999829e+01,2.260497153269273515e-02
4.111999999999999744e+01,1.928586825629587456e-02
4.115999999999999659e+01,1.819148128164780123e-02
4.120000000000000284e+01,3.100507709637960463e-02
4.124000000000000199e+01,2.323319992880570894e-02
4.128000000000000114e+01,2.603122806265448577e-02
4.132000000000000028e+01,9.727371504321858861e-03
4.135999999999999943e+01,2.791629927399100555e-02
4.139999999999999858e+01,1.884359908544037954e-02
4.143999999999999773e+01,2.108259657329245723e-02
4.147999999999999687e+01,1.998284512950381994e-02
4.152000000000000313e+01,8.497294180697617313e-03
4.156000000000000227e+01,2.167574436982171171e-02
4.160000000000000142e+01,2.613743202782470298e-02
4.164000000000000057e+01,1.427896053001277178e-02
4.167999999999999972e+01,2.875352655400018054e-02
4.171999999999999886e+01,2.023177962631318716e-02
4.175999999999999801e+01,2.506166117630591675e-02
4.179999999999999716e+01,2.154567461258560801e-02
4.184000000000000341e+01,2.210888115787264241e-02
4.188000000000000256e+01,3.027480521381442635e-02
4.192000000000000171e+01,2.582953965919686581e-02
4.196000000000000085e+01,2.898699043517937932e-02
4.200000000000000000e+01,2.787844119030381818e-02
4.203999999999999915e+01,1.749677687268926321e-02
4.207999999999999829e+01,2.250667183403162047e-02
4.211999999999999744e+01,2.083973211539328838e-02
4.215999999999999659e+01,1.156871370788504355e-02
4.220000000000000284e+01,1.713290675793464890e-02
4.224000000000000199e+01,2.028558308468567106e-02
4.228000000000000114e+01,1.082706449063114244e-02
4.232000000000000028e+01,2.306535688362954667e-02
4.235999999999999943e+01,2.287790185954010486e-02
4.239999999999999858e+01,2.250431195731086853e-02
4.243999999999999773e+01,1.526843397110977558e-02
4.247999999999999687e+01,2.064237910700673223e-02
4.252000000000000313e+01,2.712832838108839364e-02
4.256000000000000227e+01,3.342814041692090260e-02
4.260000000000000142e+01,2.396412518759905713e-02
4.264000000000000057e+01,1.116134391584327513e-02
4.267999999999999972e+01,2.098261173975610183e-02
4.271999999999999886e+01,1.392735842579829152e-02
4.275999999999999801e+01,1.670019384716176988e-02
4.279999999999999716e+01,3.022836083268099286e-02
4.284000000000000341e+01,2.205833913216636091e-02
4.288000000000000256e+01,2.074922545653323097e-02
4.292000000000000171e+01,2.815550605347789601e-02
4.296000000000000085e+01,1.831436460484318907e-02
4.300000000000000000e+01,2.126848729172330435e-02
4.303999999999999915e+01,1.476403147140826870e-02
4.307999999999999829e+01,1.901490308505752666e-02
4.311999999999999744e+01,1.751616868690402881e-02
4.315999999999999659e+01,2.083840266194468896e-02
4.320000000000000284e+01,2.360359259075387253e-02
4.324000000000000199e+01,3.044795497761311476e-02
4.328000000000000114e+01,1.670681429077170918e-02
4.332000000000000028e+01,2.781509746442951958e-02
4.335999999999999943e+01,2.557037505145389952e-02
4.339999999999999858e+01,1.015809514558982558e-02
4.343999999999999773e+01,2.590049257840296507e-02
4.347999999999999687e+01,1.456668005534629551e-02
4.352000000000000313e+01,2.993677528037562777e-02
4.356000000000000227e+01,4.878354137870848095e-03
4.360000000000000142e+01,2.636684872703930552e-02
4.364000000000000057e+01,1.632836258969208587e-02
4.367999999999999972e+01,2.168141213020771674e-02
4.371999999999999886e+01,2.517926916772982027e-02
4.375999999999999801e+01,2.997456073636102503e-02
4.379999999999999716e+01,2.327132706578155172e-02
4.384000000000000341e+01,3.251597276427253824e-02
4.388000000000000256e+01,4.454164069396945869e-02
4.392000000000000171e+01,4.135980793892653218e-02
4.396000000000000085e+01,3.836271466222183207e-02
4.400000000000000000e+01,3.017234844442966135e-02
4.403999999999999915e+01,3.310819286749004664e-02
4.407999999999999829e+01,1.953839345929468674e-02
4.411999999999999744e+01,1.894929034962062470e-02
4.415999999999999659e+01,1.780312903305870248e-02
4.420000000000000284e+01,2.982311151873577940e-02
4.424000000000000199e+01,2.441020439418580684e-02
4.428000000000000114e+01,3.364702936199907152e-02
4.432000000000000028e+01,2.915993721497774083e-02
4.435999999999999943e+01,1.484334972231393483e-02
4.439999999999999858e+01,2.685975962958960656e-02
4.443999999999999773e+01,3.090115984889172523e-02
4.447999999999999687e+01,2.937838267923350774e-02
4.452000000000000313e+01,2.229142753058755907e-02
4.456000000000000227e+01,2.262170167699147777e-02
4.460000000000000142e+01,2.072587297225536931e-02
4.464000000000000057e+01,3.069804079305090555e-02
4.467999999999999972e+01,3.195340065061937074e-02
4.471999999999999886e+01,2.820092563038038153e-02
4.475999999999999801e+01,2.741490854451796716e-02
4.479999999999999716e+01,2.125015803324872832e-02
4.484000000000000341e+01,2.843699056755328788e-02
4.488000000000000256e+01,6.974565813990808716e-02
4.492000000000000171e+01,6.098245772763627448e-02
4.496000000000000085e+01,4.813866231625478498e-02
4.500000000000000000e+01,5.216997258201239163e-02
4.503999999999999915e+01,4.414639326639429456e-02
4.507999999999999829e+01,2.870414087368203596e-02
4.511999999999999744e+01,2.550077529371790747e-02
4.515999999999999659e+01,2.025674728600320926e-02
4.520000000000000284e+01,1.556833783332360263e-02
4.524000000000000199e+01,1.421727660223704240e-02
4.528000000000000114e+01,2.770138139660215798e-02
4.532000000000000028e+01,1.244021093988815704e-02
4.535999999999999943e+01,1.850490926060362543e-02
4.539999999999999858e+01,2.178714687831494884e-02
4.543999999999999773e+01,1.931974426263717570e-02
4.547999999999999687e+01,1.907699422575418607e-02
4.552000000000000313e+01,1.790626855350859262e-02
4.556000000000000227e+01,2.322551400676724220e-02
4.560000000000000142e+01,3.522017867927523804e-02
4.564000000000000057e+01,1.791321732916812889e-02
4.567999999999999972e+01,2.452840160908466641e-02
4.571999999999999886e+01,2.224131390129057556e-02
4.575999999999999801e+01,1.772810623156325510e-02
4.579999999999999716e+01,1.339961089891603813e-02
4.584000000000000341e+01,1.797191545062223894e-02
4.588000000000000256e+01,1.605277854354901501e-02
4.592000000000000171e+01,1.858367193023800074e-02
4.596000000000000085e+01,1.573581478072693871e-02
4.600000000000000000e+01,1.399991043702100701e-02
4.603999999999999915e+01,2.264839249771058091e-02
4.607999999999999829e+01,1.293671438805322343e-02
4.611999999999999744e+01,2.362365042644388319e-02
4.615999999999999659e+01,1.761946326838404950e-02
4.620000000000000284e+01,1.977427594934212315e-02
4.624000000000000199e+01,2.471007604989233428e-02
4.628000000000000114e+01,2.055814721857663827e-02
4.632000000000000028e+01,2.920143355050562953e-02
4.635999999999999943e+01,2.133904241961974771e-02
4.639999999999999858e+01,1.588673898067195778e-02
4.643999999999999773e+01,1.729529105417137308e-02
4.647999999999999687e+01,2.519380068254600813e-02
4.652000000000000313e+01,2.177919363362233740e-02
4.656000000000000227e+01,1.854928771125903195e-02
4.660000000000000142e+01,2.236568362500595750e-02
4.664000000000000057e+01,2.692312553657559906e-02
4.667999999999999972e+01,3.018167733444474671e-02
4.671999999999999886e+01,3.028685159086250828e-02
4.675999999999999801e+01,2.315877667280963684e-02
4.679999999999999716e+01,2.826956378635617911e-02
4.684000000000000341e+01,1.835825582693847297e-02
4.688000000000000256e+01,2.476567976205731186e-02
4.692000000000000171e+01,2.338350611127905376e-02
4.696000000000000085e+01,2.385506584073888298e-02
4.700000000000000000e+01,3.007478071962894212e-02
4.703999999999999915e+01,3.406835675571048133e-02
4.707999999999999829e+01,3.453765257254975962e-02
4.711999999999999744e+01,2.851548863976173520e-02
4.715999999999999659e+01,4.122288536035931261e-02
4.720000000000000284e+01,3.723914354379535135e-02
4.724000000000000199e+01,3.065836256674148511e-02
4.728000000000000114e+01,3.576009048964164105e-02
4.732000000000000028e+01,4.197375174744438081e-02
4.735999999999999943e+01,4.596126944221978067e-02
4.739999999999999858e+01,4.623905351376175754e-02
4.743999999999999773e+01,4.484703889353883199e-02
4.747999999999999687e+01,5.142855654768611201e-02
4.752000000000000313e+01,5.430033880851789507e-02
4.756000000000000227e+01,5.401873113732390957e-02
4.760000000000000142e+01,5.929982108137743513e-02
4.764000000000000057e+01,6.662008305897643146e-02
4.767999999999999972e+01,6.948881254806107965e-02
4.771999999999999886e+01,7.773478919853887836e-02
4.775999999999999801e+01,6.984596510278924530e-02
4.779999999999999716e+01,7.586502644190640243e-02
4.784000000000000341e+01,7.112729768413973697e-02
4.788000000000000256e+01,8.641725974567282531e-02
4.792000000000000171e+01,7.240556215303189935e-02
4.796000000000000085e+01,7.916334893472545819e-02
4.800000000000000000e+01,5.680492356596258258e-02
4.803999999999999915e+01,6.040854453710554212e-02
4.807999999999999829e+01,6.308415211113539700e-02
4.811999999999999744e+01,4.851226152605746245e-02
4.815999999999999659e+01,4.080120108225067377e-02
4.820000000000000284e+01,4.607077675417538959e-02
4.824000000000000199e+01,4.095445379648748885e-02
4.828000000000000114e+01,3.491011449154967500e-02
4.832000000000000028e+01,3.572660296777362132e-02
4.835999999999999943e+01,3.913859890836771799e-02
4.839999999999999858e+01,3.105200175660564541e-02
4.843999999999999773e+01,3.557513981286627297e-02
4.847999999999999687e+01,3.750122041778904819e-02
4.852000000000000313e+01,2.180889959578585433e-02
4.856000000000000227e+01,2.447522140866631446e-02
4.860000000000000142e+01,2.306089452994803529e-02
4.864000000000000057e+01,3.128912096875803572e-02
4.867999999999999972e+01,3.061503175783331782e-02
4.871999999999999886e+01,2.400580524750430336e-02
4.875999999999999801e+01,2.629733554953205335e-02
4.879999999999999716e+01,2.283917605587308663e-02
4.884000000000000341e+01,1.381677486027248908e-02
4.888000000000000256e+01,3.168365103286503726e-02
4.892000000000000171e+01,3.415750408352639933e-02
4.896000000000000085e+01,3.273615181611518737e-02
4.900000000000000000e+01,3.020132389718944294e-02
4.903999999999999915e+01,2.840750657444538613e-02
4.907999999999999829e+01,2.624200715522143762e-02
4.911999999999999744e+01,3.742802764864466142e-02
4.915999999999999659e+01,2.821390701811894372e-02
4.920000000000000284e+01,2.938412617982793379e-02
4.924000000000000199e+01,2.888452009854122760e-02
4.928000000000000114e+01,2.671508818423143361e-02
4.932000000000000028e+01,3.140646930039956569e-02
4.935999999999999943e+01,3.257353656576637835e-02
4.939999999999999858e+01,3.151443017671095442e-02
4.943999999999999773e+01,2.915639296206777240e-02
4.947999999999999687e+01,3.365916641779308910e-02
4.952000000000000313e+01,2.981595788452644225e-02
4.956000000000000227e+01,2.523016280690704854e-02
4.960000000000000142e+01,2.935966346729763227e-02
4.964000000000000057e+01,2.681221852256541680e-02
4.967999999999999972e+01,2.945654314411372265e-02
4.971999999999999886e+01,3.321276569892344516e-02
4.975999999999999801e+01,2.825210535703234077e-02
4.979999999999999716e+01,3.367577595696567838e-02
4.984000000000000341e+01,3.297884405295653520e-02
4.988000000000000256e+01,3.339380772209929460e-02
4.992000000000000171e+01,2.193925851030183866e-02
4.996000000000000085e+01,3.904300888991031615e-02
5.000000000000000000e+01,4.075372021684900425e-02
5.003999999999999915e+01,4.116549186778967889e-02
5.007999999999999829e+01,4.046377193647728021e-02
5.011999999999999744e+01,4.458291771359988720e-02
5.015999999999999659e+01,4.814491677973183059e-02
5.020000000000000284e+01,4.132098830491083563e-02
5.024000000000000199e+01,5.471016452154833093e-02
5.028000000000000114e+01,5.326264360664167974e-02
5.032000000000000028e+01,4.662175652632605943e-02
5.035999999999999943e+01,6.037942105115916974e-02
5.039999999999999858e+01,5.299513142610604022e-02
5.043999999999999773e+01,6.897657116650460218e-02
5.047999999999999687e+01,7.067765687653938811e-02
5.052000000000000313e+01,8.090857607018274444e-02
5.056000000000000227e+01,9.429131632800900886e-02
5.060000000000000142e+01,1.089713902222672476e-01
5.064000000000000057e+01,1.292141168896943637e-01
5.067999999999999972e+01,1.370309734143444480e-01
5.071999999999999886e+01,1.563448394128240382e-01
5.075999999999999801e+01,1.547021946349435573e-01
5.079999999999999716e+01,1.423027160981552020e-01
5.084000000000000341e+01,1.185900571611146065e-01
5.088000000000000256e+01,1.078579948079729234e-01
5.092000000000000171e+01,1.019467863627191995e-01
5.096000000000000085e+01,7.971528128527755053e-02
5.100000000000000000e+01,6.527180787602679390e-02
5.103999999999999915e+01,5.379469976685839760e-02
5.107999999999999829e+01,6.976318262569589090e-02
5.111999999999999744e+01,4.752842180709813263e-02
5.115999999999999659e+01,4.680489289573618039e-02
5.120000000000000284e+01,4.515330456512769985e-02
5.124000000000000199e+01,4.257365622524530990e-02
5.128000000000000114e+01,4.221857491019175707e-02
5.132000000000000028e+01,4.872427712424852453e-02
5.135999999999999943e+01,3.761153601943734159e-02
5.139999999999999858e+01,3.799579435799068511e-02
5.143999999999999773e+01,3.726654105336101724e-02
5.147999999999999687e+01,4.154358208000877989e-02
5.152000000000000313e+01,3.024211294917505607e-02
5.156000000000000227e+01,3.247757642309236775e-02
5.160000000000000142e+01,4.064657587706681230e-02
5.164000000000000057e+01,3.453520418988422630e-02
5.167999999999999972e+01,3.194653441366339386e-02
5.171999999999999886e+01,3.621864226627945910e-02
5.175999999999999801e+01,3.399922192609531463e-02
5.179999999999999716e+01,4.680032012067697478e-02
5.184000000000000341e+01,3.067059820594881733e-02
5.188000000000000256e+01,4.031741730472827856e-02
5.192000000000000171e+01,3.624020718347636255e-02
5.196000000000000085e+01,3.401665668904355067e-02
5.200000000000000000e+01,2.381798499146769305e-02
5.203999999999999915e+01,2.789803355340400928e-02
5.207999999999999829e+01,3.234815050189858432e-02
5.211999999999999744e+01,3.383025893902164710e-02
5.215999999999999659e+01,2.789358986420920755e-02
5.220000000000000284e+01,3.771922815897847669e-02
5.224000000000000199e+01,3.474807593235934577e-02
5.228000000000000114e+01,3.492871939874699072e-02
5.232000000000000028e+01,2.657789089045563963e-02
5.235999999999999943e+01,3.269122660523006429e-02
5.239999999999999858e+01,3.416751152449034462e-02
5.243999999999999773e+01,2.507238717749365325e-02
5.247999999999999687e+01,3.581943711287900040e-02
5.252000000000000313e+01,2.245732268657077771e-02
5.256000000000000227e+01,2.485751031959803486e-02
5.260000000000000142e+01,3.263487313068152984e-02
5.264000000000000057e+01,2.798633688764783425e-02
5.267999999999999972e+01,3.335119173692450978e-02
5.271999999999999886e+01,2.666104371957394095e-02
5.275999999999999801e+01,3.220966981974739823e-02
5.279999999999999716e+01,3.256489317281612006e-02
5.284000000000000341e+01,2.383229082953318423e-02
5.288000000000000256e+01,2.900749898764336254e-02
5.292000000000000171e+01,2.565122632066436578e-02
5.296000000000000085e+01,2.451949589736537177e-02
5.300000000000000000e+01,2.227423081981663028e-02
5.303999999999999915e+01,3.189683836205575718e-02
5.307999999999999829e+01,1.963565748748663867e-02
5.311999999999999744e+01,3.222375591671546718e-02
5.315999999999999659e+01,2.904787131356915270e-02
5.320000000000000284e+01,2.679838462753222558e-02
5.324000000000000199e+01,2.788612815761801547e-02
5.328000000000000114e+01,2.730398685194555461e-02
5.332000000000000028e+01,3.117176668497526407e-02
5.335999999999999943e+01,1.927556053549298043e-02
5.339999999999999858e+01,1.943267037932468883e-02
5.343999999999999773e+01,3.442482588302839264e-02
5.347999999999999687e+01,2.178427787270731733e-02
5.352000000000000313e+01,2.805864538519532367e-02
5.356000000000000227e+01,2.617241999970124772e-02
5.360000000000000142e+01,2.651072741744952069e-02
5.364000000000000057e+01,2.443734995410397695e-02
5.367999999999999972e+01,2.217767122490550344e-02
5.371999999999999886e+01,2.344066431527387639e-02
5.375999999999999801e+01,3.193530231062887553e-02
5.379999999999999716e+01,3.894549648364239308e-02
5.384000000000000341e+01,1.943567393501910781e-02
5.388000000000000256e+01,2.662960631739767423e-02
5.392000000000000171e+01,2.955736285076737344e-02
5.396000000000000085e+01,3.229881398809275606e-02
5.400000000000000000e+01,3.003229336126511315e-02
5.403999999999999915e+01,2.034696749121652631e-02
5.407999999999999829e+01,2.364219100287875616e-02
5.411999999999999744e+01,3.083097780137899688e-02
5.415999999999999659e+01,2.021583129532433798e-02
5.420000000000000284e+01,2.221033503335373416e-02
5.424000000000000199e+01,2.253493977496849598e-02
5.428000000000000114e+01,2.193143966523056557e-02
5.432000000000000028e+01,2.818867883255158496e-02
5.435999999999999943e+01,2.739800540397760442e-02
5.439999999999999858e+01,1.826127800307468865e-02
5.443999999999999773e+01,1.876701836573402282e-02
5.447999999999999687e+01,2.613349564534288988e-02
5.452000000000000313e+01,2.070314877200438164e-02
5.456000000000000227e+01,3.029327972154425425e-02
5.460000000000000142e+01,2.449030376526900935e-02
5.464000000000000057e+01,2.276633210924863121e-02
5.467999999999999972e+01,2.122694180423621152e-02
5.471999999999999886e+01,2.617738750846452384e-02
5.475999999999999801e+01,3.094151601610142799e-02
5.479999999999999716e+01,2.884317412131473871e-02
5.484000000000000341e+01,2.544582174724785081e-02
5.488000000000000256e+01,2.928009775740168102e-02
5.492000000000000171e+01,2.792093974900108563e-02
5.496000000000000085e+01,2.526276949123819338e-02
5.500000000000000000e+01,1.759661271863853516e-02
5.503999999999999915e+01,2.383823458595504818e-02
5.507999999999999829e+01,2.043565166407116176e-02
5.511999999999999744e+01,2.426469358624392531e-02
5.515999999999999659e+01,3.792164133525895847e-02
5.520000000000000284e+01,2.431675756661783733e-02
5.524000000000000199e+01,2.035432976099186761e-02
5.528000000000000114e+01,2.659070337967086792e-02
5.532000000000000028e+01,3.838966073831850262e-02
5.535999999999999943e+01,3.108652630518419016e-02
5.539999999999999858e+01,3.583667836399630213e-02
5.543999999999999773e+01,3.131351769090667120e-02
5.547999999999999687e+01,3.309473313276565382e-02
5.552000000000000313e+01,3.209333859470057948e-02
5.556000000000000227e+01,3.609817820512308678e-02
5.560000000000000142e+01,1.859008959455882987e-02
5.564000000000000057e+01,2.463310232966296059e-02
5.567999999999999972e+01,2.548266983569303160e-02
5.571999999999999886e+01,3.189481518141817212e-02
5.575999999999999801e+01,3.014633517765686818e-02
5.579999999999999716e+01,3.062235552563359262e-02
5.584000000000000341e+01,2.609037696819924146e-02
5.588000000000000256e+01,2.100116732586286561e-02
5.592000000000000171e+01,1.535472600859713252e-02
5.596000000000000085e+01,2.639778001720385903e-02
5.600000000000000000e+01,2.520033409316812037e-02
5.603999999999999915e+01,2.288930867280394160e-02
5.607999999999999829e+01,2.614085578188878739e-02
5.611999999999999744e+01,2.178811828255800345e-02
5.615999999999999659e+01,2.411064423525565922e-02
5.620000000000000284e+01,2.735952385301143597e-02
5.624000000000000199e+01,3.042206444316371272e-02
5.628000000000000114e+01,2.068775491916504880e-02
5.632000000000000028e+01,2.671569199193083929e-02
5.635999999999999943e+01,3.088825011305995627e-02
5.639999999999999858e+01,3.079459580348439460e-02
5.643999999999999773e+01,2.161306269509557718e-02
5.647999999999999687e+01,3.023370934485776831e-02
5.652000000000000313e+01,2.550115628898776132e-02
5.656000000000000227e+01,2.855655288750682391e-02
5.660000000000000142e+01,2.920022094290807349e-02
5.664000000000000057e+01,2.057055856558691678e-02
5.667999999999999972e+01,2.529230458574343796e-02
5.671999999999999886e+01,3.316578080587066768e-02
5.675999999999999801e+01,2.898419456660821306e-02
5.679999999999999716e+01,2.813978603103411968e-02
5.684000000000000341e+01,4.027588616528354065e-02
5.688000000000000256e+01,2.941544972749224676e-02
5.692000000000000171e+01,4.284789048958342894e-02
5.696000000000000085e+01,5.164321319304231855e-02
5.700000000000000000e+01,4.244911201623201985e-02
5.703999999999999915e+01,4.252654288366135293e-02
5.707999999999999829e+01,4.427210917063641171e-02
5.711999999999999744e+01,5.417651421916233612e-02
5.715999999999999659e+01,5.758931142119565888e-02
5.720000000000000284e+01,6.934639488849746181e-02
5.724000000000000199e+01,6.571033250817889804e-02
5.728000000000000114e+01,8.618169333372435736e-02
5.732000000000000028e+01,8.996176634518822379e-02
5.735999999999999943e+01,9.763535485127460001e-02
5.739999999999999858e+01,1.125405345698586856e-01
5.743999999999999773e+01,1.059327589261978148e-01
5.747999999999999687e+01,1.052584325285733369e-01
5.752000000000000313e+01,1.023578127009743544e-01
5.756000000000000227e+01,8.907115676738967813e-02
5.760000000000000142e+01,8.783775487424715089e-02
5.764000000000000057e+01,8.474895514859270840e-02
5.767999999999999972e+01,6.886328465783000952e-02
5.771999999999999886e+01,7.226336510454914319e-02
5.775999999999999801e+01,5.118330652844692991e-02
5.779999999999999716e+01,4.660726745318659325e-02
5.784000000000000341e+01,4.091762233036693591e-02
5.788000000000000256e+01,4.153231792085491231e-02
5.792000000000000171e+01,3.843712471091595417e-02
5.796000000000000085e+01,3.367197763201859595e-02
5.800000000000000000e+01,3.409847739371262010e-02
5.803999999999999915e+01,3.823303393579186027e-02
5.807999999999999829e+01,2.919981644494465400e-02
5.811999999999999744e+01,2.980901243514330612e-02
5.815999999999999659e+01,2.299934240930378085e-02
5.820000000000000284e+01,3.102464783008144350e-02
5.824000000000000199e+01,2.347134396878251469e-02
5.828000000000000114e+01,2.760038674991600882e-02
5.832000000000000028e+01,1.763440853909714265e-02
5.835999999999999943e+01,1.897987842311121137e-02
5.839999999999999858e+01,2.700057871762205630e-02
5.843999999999999773e+01,2.945689570362679255e-02
5.847999999999999687e+01,1.744729197002504659e-02
5.852000000000000313e+01,3.102868262161826221e-02
5.856000000000000227e+01,2.439524217660721250e-02
5.860000000000000142e+01,2.499337524327327822e-02
5.864000000000000057e+01,1.928532731620703766e-02
5.867999999999999972e+01,1.821257014795017379e-02
5.871999999999999886e+01,2.121875709715826536e-02
5.875999999999999801e+01,1.791876128255201137e-02
5.879999999999999716e+01,2.222123339703077280e-02
5.884000000000000341e+01,2.429739261063231653e-02
5.888000000000000256e+01,2.025281597410989731e-02
5.892000000000000171e+01,2.529429496676922212e-02
5.896000000000000085e+01,1.883702509985150930e-02
5.900000000000000000e+01,2.035311757942681252e-02
5.903999999999999915e+01,2.335186788343521919e-02
5.907999999999999829e+01,2.022987938718285097e-02
5.911999999999999744e+01,1.840509885153663455e-02
5.915999999999999659e+01,1.917566647287562154e-02
5.920000000000000284e+01,1.771991588309118279e-02
5.924000000000000199e+01,1.385239780838377205e-02
5.928000000000000114e+01,2.259445504428669177e-02
5.932000000000000028e+01,1.408884891342338484e-02
5.935999999999999943e+01,8.920382724497992119e-03
5.939999999999999858e+01,2.433578347831225064e-02
5.943999999999999773e+01,1.953634015492047502e-02
5.947999999999999687e+01,1.195422843889685886e-02
5.952000000000000313e+01,2.365784110912430918e-02
5.956000000000000227e+01,1.013949347021012894e-02
5.960000000000000142e+01,8.303473002825753971e-03
5.964000000000000057e+01,1.573894622790320691e-02
5.967999999999999972e+01,1.909360732380547404e-02
5.971999999999999886e+01,1.688386623032641504e-02
5.975999999999999801e+01,1.170600393025167038e-02
5.979999999999999716e+01,1.913770927043173878e-02
5.984000000000000341e+01,1.507065277043300594e-02
5.988000000000000256e+01,1.396983117447193196e-02
5.992000000000000171e+01,1.620614126006585456e-02
5.996000000000000085e+01,1.250714824856956342e-02
