2.003999999999999915e+01,3.593363915745768911e-02
2.007999999999999829e+01,4.727211633092693460e-02
2.012000000000000099e+01,5.751320984762318261e-02
2.016000000000000014e+01,5.312137862330103960e-02
2.019999999999999929e+01,4.927837535097183419e-02
2.023999999999999844e+01,3.007079385655445428e-02
2.028000000000000114e+01,3.994641870796875743e-02
2.032000000000000028e+01,4.835882779367915718e-02
2.035999999999999943e+01,4.671112290833216718e-02
2.039999999999999858e+01,4.945340594806556939e-02
2.044000000000000128e+01,3.408741356694357932e-02
2.048000000000000043e+01,5.603569228597764934e-02
2.051999999999999957e+01,4.451102616563117759e-02
2.055999999999999872e+01,3.719342990275160965e-02
2.060000000000000142e+01,4.121649742474916417e-02
2.064000000000000057e+01,4.615420353408847959e-02
2.067999999999999972e+01,1.853352293174299198e-02
2.071999999999999886e+01,4.450633560737857208e-02
2.076000000000000156e+01,4.889552084022300016e-02
2.080000000000000071e+01,3.572515667097703879e-02
2.083999999999999986e+01,3.426127363245158597e-02
2.087999999999999901e+01,4.395513228489322799e-02
2.092000000000000171e+01,3.608943750894800379e-02
2.096000000000000085e+01,5.383158497800896725e-02
2.100000000000000000e+01,4.230776358452153357e-02
2.103999999999999915e+01,1.816302761524194939e-02
2.107999999999999829e+01,2.547933623965366323e-02
2.112000000000000099e+01,5.090406107273043324e-02
2.116000000000000014e+01,3.371018463193616727e-02
2.119999999999999929e+01,4.029501539137293059e-02
2.123999999999999844e+01,3.718552805201424255e-02
2.128000000000000114e+01,3.499065782641586769e-02
2.132000000000000028e+01,3.681991925918814967e-02
2.135999999999999943e+01,3.736884273090482211e-02
2.139999999999999858e+01,4.303937137210368802e-02
2.144000000000000128e+01,2.657751165717619699e-02
2.148000000000000043e+01,4.669823869306084091e-02
2.151999999999999957e+01,5.639298743858534718e-02
2.155999999999999872e+01,4.560155809465067656e-02
2.160000000000000142e+01,2.036006839335813279e-02
2.164000000000000057e+01,3.627397755493709519e-02
2.167999999999999972e+01,3.060422840545124964e-02
2.171999999999999886e+01,2.438578001289296027e-02
2.176000000000000156e+01,4.103145653509120833e-02
2.180000000000000071e+01,4.030046280194629627e-02
2.183999999999999986e+01,5.109300394783271304e-02
2.187999999999999901e+01,2.621760223236001622e-02
2.192000000000000171e+01,3.975389949679407342e-02
2.196000000000000085e+01,3.920594972341693435e-02
2.200000000000000000e+01,3.536560082400293237e-02
2.203999999999999915e+01,3.682974831970759616e-02
2.207999999999999829e+01,3.664770829814124886e-02
2.212000000000000099e+01,2.073520157740490685e-02
2.216000000000000014e+01,3.573496511603673625e-02
2.219999999999999929e+01,3.884542595488248845e-02
2.223999999999999844e+01,4.543124948617108250e-02
2.228000000000000114e+01,3.281125966474875144e-02
2.232000000000000028e+01,4.268955057026271871e-02
2.235999999999999943e+01,1.470493011861315376e-02
2.239999999999999858e+01,3.336306400650267817e-02
2.244000000000000128e+01,4.287557763028597424e-02
2.248000000000000043e+01,4.049877915959148450e-02
2.251999999999999957e+01,3.665869110775688000e-02
2.255999999999999872e+01,3.373317722251976958e-02
2.260000000000000142e+01,2.129621230634470841e-02
2.264000000000000057e+01,2.623596180220620633e-02
2.267999999999999972e+01,3.465105922742303668e-02
2.271999999999999886e+01,3.428635239227826453e-02
2.276000000000000156e+01,5.038379244678259372e-02
2.280000000000000071e+01,2.477713969745425071e-02
2.283999999999999986e+01,3.721632966132285003e-02
2.287999999999999901e+01,4.105862269565260791e-02
2.292000000000000171e+01,1.618362054434453051e-02
2.296000000000000085e+01,3.904883013850062728e-02
2.300000000000000000e+01,2.935557517923924678e-02
2.303999999999999915e+01,1.893066398842559520e-02
2.307999999999999829e+01,2.277293655985202295e-02
2.312000000000000099e+01,2.679811371161938682e-02
2.316000000000000014e+01,2.588463852351964925e-02
2.319999999999999929e+01,3.868960497370887291e-02
2.323999999999999844e+01,3.283746395846956490e-02
2.328000000000000114e+01,2.625365865908488305e-02
2.332000000000000028e+01,3.485159256543816919e-02
2.335999999999999943e+01,5.076601826904867526e-02
2.339999999999999858e+01,2.479341833812558765e-02
2.344000000000000128e+01,4.491479975451730805e-02
2.348000000000000043e+01,3.302643860995975456e-02
2.351999999999999957e+01,1.912601623413665367e-02
2.355999999999999872e+01,4.583219020278614386e-02
2.360000000000000142e+01,3.046841912718985940e-02
2.364000000000000057e+01,3.540793209864983443e-02
2.367999999999999972e+01,2.681187841970318619e-02
2.371999999999999886e+01,3.961658229892448674e-02
2.376000000000000156e+01,3.303251046855938677e-02
2.380000000000000071e+01,3.541112996532787965e-02
2.383999999999999986e+01,3.029029651749450686e-02
2.387999999999999901e+01,2.699855644308779903e-02
2.392000000000000171e+01,2.297513061095434947e-02
2.396000000000000085e+01,2.370739865554081713e-02
2.400000000000000000e+01,3.029283543005750062e-02
2.403999999999999915e+01,3.303706653384177322e-02
2.407999999999999829e+01,4.071990018726773242e-02
2.412000000000000099e+01,2.114869998583582614e-02
2.416000000000000014e+01,2.133202828652095220e-02
2.419999999999999929e+01,2.242987572775102800e-02
2.423999999999999844e+01,3.121001083850018926e-02
2.428000000000000114e+01,2.736912266345103983e-02
2.432000000000000028e+01,1.950410672375927149e-02
2.435999999999999943e+01,1.529729504449009285e-02
2.439999999999999858e+01,2.554053553741733595e-02
2.444000000000000128e+01,3.377168393080571401e-02
2.448000000000000043e+01,2.041908006621048419e-02
2.451999999999999957e+01,4.620973874197011055e-02
2.455999999999999872e+01,3.230828525294818232e-02
2.460000000000000142e+01,2.956444863970129899e-02
2.464000000000000057e+01,2.169899732971209208e-02
2.467999999999999972e+01,2.480824751208206280e-02
2.471999999999999886e+01,2.480792000491198121e-02
2.476000000000000156e+01,3.962345798948532088e-02
2.480000000000000071e+01,3.633057426442978799e-02
2.483999999999999986e+01,2.151412465950126168e-02
2.487999999999999901e+01,2.297683811376509053e-02
2.492000000000000171e+01,2.096414176955836359e-02
2.496000000000000085e+01,3.212108991363716443e-02
2.500000000000000000e+01,4.730204624299318844e-02
2.503999999999999915e+01,3.961884263045471061e-02
2.507999999999999829e+01,1.638798570265019225e-02
2.512000000000000099e+01,2.681299020717226728e-02
2.516000000000000014e+01,3.668918004812196654e-02
2.519999999999999929e+01,2.882276015689078097e-02
2.523999999999999844e+01,4.125957062876231540e-02
2.528000000000000114e+01,4.180697505923725715e-02
2.532000000000000028e+01,5.186575791474445224e-02
2.535999999999999943e+01,3.777998119703894486e-02
2.539999999999999858e+01,2.460868335691327943e-02
2.544000000000000128e+01,3.265517266548715464e-02
2.548000000000000043e+01,3.100720161278847781e-02
2.551999999999999957e+01,3.502943559104593901e-02
2.555999999999999872e+01,3.685662719177880409e-02
2.560000000000000142e+01,2.862352900650607865e-02
2.564000000000000057e+01,4.197403665787504540e-02
2.567999999999999972e+01,2.971667240549527231e-02
2.571999999999999886e+01,3.209222873526833969e-02
2.576000000000000156e+01,5.257604559024118412e-02
2.580000000000000071e+01,2.989236739022281542e-02
2.583999999999999986e+01,3.043850260931561802e-02
2.587999999999999901e+01,2.842375931565676098e-02
2.592000000000000171e+01,2.951842984291083022e-02
2.596000000000000085e+01,3.646620333725216628e-02
2.600000000000000000e+01,2.768337994883582343e-02
2.603999999999999915e+01,3.847210928467277580e-02
2.607999999999999829e+01,3.828596923322727386e-02
2.612000000000000099e+01,2.950282354223685358e-02
2.616000000000000014e+01,2.437782171722106817e-02
2.619999999999999929e+01,3.205659737699043804e-02
2.623999999999999844e+01,2.748010938655463462e-02
2.628000000000000114e+01,2.930545172406955057e-02
2.632000000000000028e+01,4.265417862554592154e-02
2.635999999999999943e+01,1.311891631901741144e-03
2.639999999999999858e+01,2.618388358425838280e-02
2.644000000000000128e+01,3.660565278529738509e-02
2.648000000000000043e+01,2.562651532262922791e-02
2.651999999999999957e+01,3.092648589310071153e-02
2.655999999999999872e+01,3.384846783435840889e-02
2.660000000000000142e+01,2.542973754261234481e-02
2.664000000000000057e+01,0.000000000000000000e+00
2.667999999999999972e+01,3.163889704778731493e-02
2.671999999999999886e+01,3.492619680898322726e-02
2.676000000000000156e+01,2.851899326174361579e-02
2.680000000000000071e+01,1.205145966553338756e-02
2.683999999999999986e+01,3.838536475230911599e-02
2.687999999999999901e+01,2.740494492240707486e-02
2.692000000000000171e+01,2.831371492341981655e-02
2.696000000000000085e+01,3.141730035468510984e-02
2.700000000000000000e+01,3.305744588974016129e-02
2.703999999999999915e+01,4.402599944035914120e-02
2.707999999999999829e+01,3.231323730126088589e-02
2.712000000000000099e+01,2.444149951698310758e-02
2.716000000000000014e+01,2.425195142900921780e-02
2.719999999999999929e+01,1.436788526951261746e-02
2.723999999999999844e+01,3.082310144237694616e-02
2.728000000000000114e+01,2.624320950799343896e-02
2.732000000000000028e+01,4.105191465148209234e-02
2.735999999999999943e+01,3.427677090587062658e-02
2.739999999999999858e+01,2.000205476886058459e-02
2.744000000000000128e+01,1.651903482017151939e-02
2.748000000000000043e+01,4.852092411215949003e-02
2.751999999999999957e+01,2.875836377565168731e-02
2.755999999999999872e+01,2.051914639804097718e-02
2.760000000000000142e+01,2.160831824661044176e-02
2.764000000000000057e+01,2.745306049880655297e-02
2.767999999999999972e+01,3.476094322660316926e-02
2.771999999999999886e+01,4.298322699024694632e-02
2.776000000000000156e+01,1.846397379149300466e-02
2.780000000000000071e+01,4.150185724502562096e-02
2.783999999999999986e+01,4.094383601287202024e-02
2.787999999999999901e+01,2.319185322556993611e-02
2.792000000000000171e+01,2.629174897840289363e-02
2.796000000000000085e+01,2.865982342152634949e-02
2.800000000000000000e+01,2.919859901753221396e-02
2.803999999999999915e+01,2.370108234230337146e-02
2.807999999999999829e+01,1.930086732325043963e-02
2.812000000000000099e+01,2.916766696198356407e-02
2.816000000000000014e+01,2.769370202585832649e-02
2.819999999999999929e+01,2.914616171179409618e-02
2.823999999999999844e+01,2.584271131052838164e-02
2.828000000000000114e+01,3.534296860490791781e-02
2.832000000000000028e+01,2.929546387401549962e-02
2.835999999999999943e+01,3.312506096707967113e-02
2.839999999999999858e+01,2.945505211627432590e-02
2.844000000000000128e+01,2.816272173728239306e-02
2.848000000000000043e+01,5.503875907776915877e-02
2.851999999999999957e+01,4.021051169428916522e-02
2.855999999999999872e+01,4.275878009221732029e-02
2.860000000000000142e+01,3.670995964047255034e-02
2.864000000000000057e+01,1.895453311024680038e-02
2.867999999999999972e+01,4.564669781942393145e-02
2.871999999999999886e+01,2.697631710977644454e-02
2.876000000000000156e+01,4.177876300224320216e-02
2.880000000000000071e+01,2.768080372132423680e-02
2.883999999999999986e+01,3.992207308881258465e-02
2.887999999999999901e+01,4.265168071584515830e-02
2.892000000000000171e+01,4.391778402592323022e-02
2.896000000000000085e+01,5.176854044254817350e-02
2.900000000000000000e+01,4.315694852212972193e-02
2.903999999999999915e+01,5.503137216464257242e-02
2.907999999999999829e+01,5.026053208669616079e-02
2.912000000000000099e+01,5.628133182891940922e-02
2.916000000000000014e+01,5.077842074459502919e-02
2.919999999999999929e+01,5.112850391735167949e-02
2.923999999999999844e+01,6.098983398945412998e-02
2.928000000000000114e+01,6.097366350167612165e-02
2.932000000000000028e+01,6.022562607282810204e-02
2.935999999999999943e+01,7.063504580999288573e-02
2.939999999999999858e+01,8.781201658983560365e-02
2.944000000000000128e+01,1.218167355272572472e-01
2.948000000000000043e+01,1.534433678622498520e-01
2.951999999999999957e+01,1.815944360574053562e-01
2.955999999999999872e+01,2.680944311063712671e-01
2.960000000000000142e+01,3.498384704367751841e-01
2.964000000000000057e+01,5.179170769171740352e-01
2.967999999999999972e+01,6.967873044283591222e-01
2.971999999999999886e+01,8.451108816049214267e-01
2.976000000000000156e+01,9.678264499836530810e-01
2.980000000000000071e+01,1.000000000000000000e+00
2.983999999999999986e+01,9.123654984369533594e-01
2.987999999999999901e+01,7.180926582961238980e-01
2.992000000000000171e+01,5.563780423404514064e-01
2.996000000000000085e+01,3.974068792552729046e-01
3.000000000000000000e+01,3.006257949443993938e-01
3.003999999999999915e+01,2.325617641088044696e-01
3.007999999999999829e+01,1.798621583634616994e-01
3.012000000000000099e+01,1.599036827919997628e-01
3.016000000000000014e+01,1.392133120953921444e-01
3.019999999999999929e+01,1.223638624119944424e-01
3.023999999999999844e+01,1.141110625793806954e-01
3.028000000000000114e+01,1.016510223101792787e-01
3.032000000000000028e+01,1.230295816996734987e-01
3.035999999999999943e+01,1.387375963746367569e-01
3.039999999999999858e+01,1.526162316765521942e-01
3.044000000000000128e+01,1.632021846695752565e-01
3.048000000000000043e+01,1.900671128279531330e-01
3.051999999999999957e+01,2.986937611296969219e-01
3.055999999999999872e+01,4.177461755376157826e-01
3.060000000000000142e+01,4.074790525069179048e-01
3.064000000000000057e+01,3.964800182458880218e-01
3.067999999999999972e+01,3.178030234985719238e-01
3.071999999999999886e+01,2.378453767390715234e-01
3.076000000000000156e+01,1.878851481915979893e-01
3.080000000000000071e+01,1.474361142016155368e-01
3.083999999999999986e+01,1.355211941457166169e-01
3.087999999999999901e+01,1.038514340882015496e-01
3.092000000000000171e+01,9.321636461262676476e-02
3.096000000000000085e+01,9.190957162692947602e-02
3.100000000000000000e+01,8.602968864842899799e-02
3.103999999999999915e+01,7.630836513189909187e-02
3.107999999999999829e+01,1.015230919694960765e-01
3.112000000000000099e+01,8.594801034279268837e-02
3.116000000000000014e+01,8.024993659312729122e-02
3.119999999999999929e+01,9.704984562445574670e-02
3.123999999999999844e+01,1.063500534228968425e-01
3.128000000000000114e+01,9.845618558778811147e-02
3.132000000000000028e+01,1.110482568159766037e-01
3.135999999999999943e+01,1.159577100857631243e-01
3.139999999999999858e+01,1.250738695042308557e-01
3.144000000000000128e+01,1.325435273542989179e-01
3.148000000000000043e+01,1.579383411102144308e-01
3.151999999999999957e+01,1.602858648050049795e-01
3.155999999999999872e+01,1.959232084557727682e-01
3.160000000000000142e+01,2.315602594627092503e-01
3.164000000000000057e+01,2.463449687728426207e-01
3.167999999999999972e+01,2.801523034736381756e-01
3.171999999999999886e+01,3.240195399613062244e-01
3.176000000000000156e+01,3.627649228586383168e-01
3.180000000000000071e+01,3.888890301555902873e-01
3.183999999999999986e+01,4.151957494553360495e-01
3.187999999999999901e+01,4.650979049157046297e-01
3.192000000000000171e+01,5.378638443977242778e-01
3.196000000000000085e+01,5.928869473328591821e-01
3.200000000000000000e+01,5.449298945433361796e-01
3.203999999999999915e+01,4.656944627805851833e-01
3.207999999999999829e+01,3.571926903939072750e-01
3.211999999999999744e+01,2.609457587637316611e-01
3.215999999999999659e+01,2.082317381142688717e-01
3.220000000000000284e+01,1.836859603690927378e-01
3.224000000000000199e+01,1.359099557057943941e-01
3.228000000000000114e+01,1.289231675086396633e-01
3.232000000000000028e+01,1.078517846700743771e-01
3.235999999999999943e+01,1.074492186994546877e-01
3.239999999999999858e+01,9.003545221573580615e-02
3.243999999999999773e+01,7.591379349003729571e-02
3.247999999999999687e+01,8.520463809426070956e-02
3.252000000000000313e+01,8.553243692468838477e-02
3.256000000000000227e+01,8.494534740482183321e-02
3.260000000000000142e+01,6.679831256370719061e-02
3.264000000000000057e+01,6.218648992633710876e-02
3.267999999999999972e+01,7.568269563106744258e-02
3.271999999999999886e+01,7.253351548434411322e-02
3.275999999999999801e+01,6.609157518699582123e-02
3.279999999999999716e+01,7.007532583828762762e-02
3.284000000000000341e+01,6.601058347508398372e-02
3.288000000000000256e+01,6.816453729430442532e-02
3.292000000000000171e+01,7.580553515697747990e-02
3.296000000000000085e+01,6.826444070934935271e-02
3.300000000000000000e+01,6.438126062879423461e-02
3.303999999999999915e+01,7.622823172161351246e-02
3.307999999999999829e+01,8.386786843092614019e-02
3.311999999999999744e+01,1.180295028832884230e-01
3.315999999999999659e+01,1.622509908069647844e-01
3.320000000000000284e+01,2.406768071566569300e-01
3.324000000000000199e+01,3.328207282778291587e-01
3.328000000000000114e+01,3.483238794145994688e-01
3.332000000000000028e+01,3.224884101739785569e-01
3.335999999999999943e+01,2.483636366435766629e-01
3.339999999999999858e+01,1.810062799459685456e-01
3.343999999999999773e+01,1.121852672742370410e-01
3.347999999999999687e+01,1.002497483368842424e-01
3.352000000000000313e+01,9.142338822166495849e-02
3.356000000000000227e+01,7.930424111384397345e-02
3.360000000000000142e+01,9.041464705795913825e-02
3.364000000000000057e+01,6.988079494645629830e-02
3.367999999999999972e+01,6.599163603083729734e-02
3.371999999999999886e+01,7.655221657838506832e-02
3.375999999999999801e+01,6.443125730570935239e-02
3.379999999999999716e+01,8.157596344867570903e-02
3.384000000000000341e+01,9.597661130200298152e-02
3.388000000000000256e+01,9.062231849630118796e-02
3.392000000000000171e+01,9.733989335343552762e-02
3.396000000000000085e+01,8.649747725796134989e-02
3.400000000000000000e+01,1.142492675277624742e-01
3.403999999999999915e+01,1.185878577857754357e-01
3.407999999999999829e+01,1.247551991820109590e-01
3.411999999999999744e+01,1.316538141790609961e-01
3.415999999999999659e+01,1.332475823606265874e-01
3.420000000000000284e+01,1.425233040291001285e-01
3.424000000000000199e+01,1.516157317760007950e-01
3.428000000000000114e+01,1.678413722279570863e-01
3.432000000000000028e+01,1.657753588515425425e-01
3.435999999999999943e+01,1.752324602772224182e-01
3.439999999999999858e+01,1.623738258075336505e-01
3.443999999999999773e+01,1.703668511158690224e-01
3.447999999999999687e+01,1.425085981024924453e-01
3.452000000000000313e+01,1.468425895344697696e-01
3.456000000000000227e+01,1.328849190854832774e-01
3.460000000000000142e+01,1.384985141515982510e-01
3.464000000000000057e+01,1.185039366838242514e-01
3.467999999999999972e+01,1.199097490391358989e-01
3.471999999999999886e+01,1.070479735278884043e-01
3.475999999999999801e+01,9.199084695638302944e-02
3.479999999999999716e+01,8.992012201763027734e-02
3.484000000000000341e+01,8.821482112347665827e-02
3.488000000000000256e+01,8.687494293182321248e-02
3.492000000000000171e+01,7.821815273340743113e-02
3.496000000000000085e+01,7.230464764313056236e-02
3.500000000000000000e+01,7.956045017433036048e-02
3.503999999999999915e+01,7.328030489905291989e-02
3.507999999999999829e+01,7.358460738919984923e-02
3.511999999999999744e+01,7.297393563472664990e-02
3.515999999999999659e+01,8.297178834428015071e-02
3.520000000000000284e+01,7.632417199225194349e-02
3.524000000000000199e+01,9.290605366610751870e-02
3.528000000000000114e+01,7.327080477783794177e-02
3.532000000000000028e+01,8.253534490701817938e-02
3.535999999999999943e+01,8.448295826634882877e-02
3.539999999999999858e+01,7.874781811529464604e-02
3.543999999999999773e+01,7.978002634999338538e-02
3.547999999999999687e+01,1.073341531439101632e-01
3.552000000000000313e+01,8.659890317470864129e-02
3.556000000000000227e+01,9.110518018600009815e-02
3.560000000000000142e+01,1.065857922966674670e-01
3.564000000000000057e+01,1.041405316881385545e-01
3.567999999999999972e+01,1.015119288424785465e-01
3.571999999999999886e+01,1.274172761948435262e-01
3.575999999999999801e+01,1.335676198095339939e-01
3.579999999999999716e+01,1.294744187037966954e-01
3.584000000000000341e+01,1.471473938987149788e-01
3.588000000000000256e+01,1.706731392202080477e-01
3.592000000000000171e+01,1.782850421192131163e-01
3.596000000000000085e+01,2.061998156988318343e-01
3.600000000000000000e+01,2.251514267420558213e-01
3.603999999999999915e+01,2.395297786880227209e-01
3.607999999999999829e+01,2.648824496281793617e-01
3.611999999999999744e+01,2.682851523611536337e-01
3.615999999999999659e+01,2.894299412751927814e-01
3.620000000000000284e+01,3.094768070087249301e-01
3.624000000000000199e+01,3.094028275009601536e-01
3.628000000000000114e+01,3.029264538511632909e-01
3.632000000000000028e+01,2.964496291898721103e-01
3.635999999999999943e+01,2.789975902218966297e-01
3.639999999999999858e+01,2.529482006949743678e-01
3.643999999999999773e+01,2.345806894974249157e-01
3.647999999999999687e+01,2.134690314317129745e-01
3.652000000000000313e+01,1.987588601166489222e-01
3.656000000000000227e+01,1.772804598664246001e-01
3.660000000000000142e+01,1.691542262529416030e-01
3.664000000000000057e+01,1.630395705825734287e-01
3.667999999999999972e+01,1.477788168609121544e-01
3.671999999999999886e+01,1.511746940270228268e-01
3.675999999999999801e+01,1.521922403287155334e-01
3.679999999999999716e+01,1.372959146817457343e-01
3.684000000000000341e+01,1.467265095720152457e-01
3.688000000000000256e+01,1.578028489543702451e-01
3.692000000000000171e+01,1.491241456781843000e-01
3.696000000000000085e+01,1.462981762919043915e-01
3.700000000000000000e+01,1.306678441331769192e-01
3.703999999999999915e+01,1.302187908402853145e-01
3.707999999999999829e+01,1.037956577470391523e-01
3.711999999999999744e+01,1.048089516830495171e-01
3.715999999999999659e+01,8.643302030636219879e-02
3.720000000000000284e+01,6.586165600138786658e-02
3.724000000000000199e+01,7.126341310562805953e-02
3.728000000000000114e+01,6.788487742552883064e-02
3.732000000000000028e+01,4.676332535730033657e-02
3.735999999999999943e+01,5.728518434775357882e-02
3.739999999999999858e+01,4.732033377760704734e-02
3.743999999999999773e+01,5.034179626168977517e-02
3.747999999999999687e+01,4.641208624312067460e-02
3.752000000000000313e+01,2.803178171185546214e-02
3.756000000000000227e+01,2.647895289210476857e-02
3.760000000000000142e+01,2.602310630900596389e-02
3.764000000000000057e+01,3.727317717511487855e-02
3.767999999999999972e+01,3.114604497264127775e-02
3.771999999999999886e+01,4.715085139061430536e-02
3.775999999999999801e+01,3.443786470427972340e-02
3.779999999999999716e+01,3.379661549719380209e-02
3.784000000000000341e+01,2.693583250543933952e-02
3.788000000000000256e+01,2.958600651968135847e-02
3.792000000000000171e+01,2.400460437365709021e-02
3.796000000000000085e+01,3.653105341268623324e-02
3.800000000000000000e+01,3.003407435337853218e-02
3.803999999999999915e+01,2.390241197076274637e-02
3.807999999999999829e+01,2.362344589928548969e-02
3.811999999999999744e+01,2.974591289450252696e-02
3.815999999999999659e+01,2.873427187216935977e-02
3.820000000000000284e+01,2.735629136125996771e-02
3.824000000000000199e+01,1.884420014860267029e-02
3.828000000000000114e+01,3.173237797013539474e-02
3.832000000000000028e+01,1.608565659719501245e-02
3.835999999999999943e+01,1.836386028910145726e-02
3.839999999999999858e+01,3.179921783268312846e-02
3.843999999999999773e+01,2.310161662813156602e-02
3.847999999999999687e+01,1.714718242702102310e-02
3.852000000000000313e+01,2.143533455519825229e-02
3.856000000000000227e+01,1.657732555343684536e-02
3.860000000000000142e+01,2.031568590380182504e-02
3.864000000000000057e+01,2.734594598686708108e-02
3.867999999999999972e+01,3.657062826522453070e-02
3.871999999999999886e+01,1.341923124453859445e-02
3.875999999999999801e+01,2.191119830907494598e-02
3.879999999999999716e+01,2.125699619107968008e-02
3.884000000000000341e+01,2.352886169685402401e-02
3.888000000000000256e+01,2.141028551557177390e-02
3.892000000000000171e+01,1.965699648480696837e-02
3.896000000000000085e+01,2.211015994604258184e-02
3.900000000000000000e+01,2.675773486577974827e-02
3.903999999999999915e+01,2.701486273006499517e-02
3.907999999999999829e+01,1.044347864996290551e-02
3.911999999999999744e+01,1.673563701372069237e-02
3.915999999999999659e+01,2.979501894803935139e-02
3.920000000000000284e+01,3.206200398587428363e-02
3.924000000000000199e+01,2.609736857418110470e-02
3.928000000000000114e+01,1.629101615209760379e-02
3.932000000000000028e+01,2.166586609621604445e-02
3.935999999999999943e+01,2.447938524027365448e-02
3.939999999999999858e+01,1.814671507031700645e-02
3.943999999999999773e+01,1.419135429499284243e-02
3.947999999999999687e+01,8.406309490184078054e-03
3.952000000000000313e+01,1.761954764186491468e-02
3.956000000000000227e+01,1.878406730644520753e-02
3.960000000000000142e+01,1.775307351680805584e-02
3.964000000000000057e+01,2.678171577847294343e-02
3.967999999999999972e+01,2.666415933143165967e-02
3.971999999999999886e+01,2.416817270465818068e-02
3.975999999999999801e+01,1.929375455605373407e-02
3.979999999999999716e+01,1.771119721928310353e-02
3.984000000000000341e+01,1.996923744990213023e-02
3.988000000000000256e+01,2.295835801910272450e-02
3.992000000000000171e+01,3.033681156914977070e-02
3.996000000000000085e+01,2.308167603925322803e-02
4.000000000000000000e+01,1.765509301695084715e-02
4.003999999999999915e+01,2.009318023434398387e-02
4.007999999999999829e+01,3.149341254464281536e-02
4.011999999999999744e+01,2.039480434022072214e-02
4.015999999999999659e+01,2.191659252887040096e-02
4.020000000000000284e+01,1.721876774901993923e-02
4.024000000000000199e+01,1.819065410775251926e-02
4.028000000000000114e+01,1.696700419658732015e-02
4.032000000000000028e+01,1.848645955231655036e-02
4.035999999999999943e+01,7.933090196168354410e-03
4.039999999999999858e+01,2.755972830544462307e-02
4.043999999999999773e+01,2.450460246399104036e-02
4.047999999999999687e+01,2.327801302494561866e-02
4.052000000000000313e+01,1.473432368530017654e-02
4.056000000000000227e+01,2.557878718881098981e-02
4.060000000000000142e+01,2.837449731065133998e-02
4.064000000000000057e+01,2.220688921263160032e-02
4.067999999999999972e+01,1.933111240027120606e-02
4.071999999999999886e+01,2.011299092990780080e-02
4.075999999999999801e+01,2.308922186569696902e-02
4.079999999999999716e+01,1.234639903355783802e-02
4.084000000000000341e+01,2.300375934128301783e-02
4.088000000000000256e+01,2.177119018906404496e-02
4.092000000000000171e+01,2.383044426991147435e-02
4.096000000000000085e+01,2.479161546048994427e-02
4.100000000000000000e+01,1.880149604371875866e-02
4.103999999999999915e+01,2.323679110322661792e-02
4.107999999999999829e+01,2.529361035164173072e-02
4.111999999999999744e+01,3.539797630230184095e-02
4.115999999999999659e+01,2.336929224210753178e-02
4.120000000000000284e+01,1.188873153201496120e-02
4.124000000000000199e+01,2.418620563063470300e-02
4.128000000000000114e+01,2.313043525457642718e-02
4.132000000000000028e+01,2.372026039763245123e-02
4.135999999999999943e+01,1.991956064350383637e-02
4.139999999999999858e+01,2.434931089614647548e-02
4.143999999999999773e+01,8.658041434642911940e-03
4.147999999999999687e+01,2.918286227609521652e-02
4.152000000000000313e+01,2.629423213327629349e-02
4.156000000000000227e+01,1.791759418746936838e-02
4.160000000000000142e+01,2.051509002621232022e-02
4.164000000000000057e+01,2.146574206135151708e-02
4.167999999999999972e+01,1.546508067346076716e-02
4.171999999999999886e+01,3.031583480160532709e-02
4.175999999999999801e+01,3.583740773268581647e-02
4.179999999999999716e+01,1.922590917933055324e-02
4.184000000000000341e+01,2.438038561180495487e-02
4.188000000000000256e+01,2.422975620371884201e-02
4.192000000000000171e+01,1.749363071844616674e-02
4.196000000000000085e+01,2.392657932945193439e-02
4.200000000000000000e+01,2.542024347203712675e-02
4.203999999999999915e+01,3.532724884703029172e-02
4.207999999999999829e+01,3.242972100302320138e-02
4.211999999999999744e+01,2.184921417602619584e-02
4.215999999999999659e+01,2.425486203559529264e-02
4.220000000000000284e+01,2.190413141546772649e-02
4.224000000000000199e+01,1.863818765712658976e-02
4.228000000000000114e+01,2.012732309423666266e-02
4.232000000000000028e+01,3.441969515029931481e-02
4.235999999999999943e+01,1.560421497945133941e-02
4.239999999999999858e+01,1.471352432146745895e-02
4.243999999999999773e+01,2.333363767021223723e-02
4.247999999999999687e+01,2.134415676958664049e-02
4.252000000000000313e+01,1.661032634387363260e-02
4.256000000000000227e+01,1.974108160562920711e-02
4.260000000000000142e+01,2.963894501744536447e-02
4.264000000000000057e+01,3.258546279585940175e-02
4.267999999999999972e+01,2.419072881753607865e-02
4.271999999999999886e+01,2.859921803717691002e-02
4.275999999999999801e+01,2.587344489790094695e-02
4.279999999999999716e+01,1.363554296777287449e-02
4.284000000000000341e+01,2.682183645536722824e-02
4.288000000000000256e+01,1.037560155391155023e-02
4.292000000000000171e+01,2.575550385861704802e-02
4.296000000000000085e+01,3.217201010172969500e-02
4.300000000000000000e+01,3.364919832395066313e-02
4.303999999999999915e+01,3.494279736285399451e-02
4.307999999999999829e+01,2.745590901308612303e-02
4.311999999999999744e+01,2.600446056922120150e-02
4.315999999999999659e+01,1.248009346656005041e-02
4.320000000000000284e+01,2.383117160507721571e-02
4.324000000000000199e+01,2.402389189669139682e-02
4.328000000000000114e+01,1.360699109695835338e-02
4.332000000000000028e+01,3.282126169177984609e-02
4.335999999999999943e+01,2.459794018298348123e-02
4.339999999999999858e+01,2.899490635725276988e-02
4.343999999999999773e+01,1.894107938819757087e-02
4.347999999999999687e+01,3.175064857422876113e-02
4.352000000000000313e+01,3.596262830771972813e-02
4.356000000000000227e+01,3.761313632077165070e-02
4.360000000000000142e+01,3.304391728692211011e-02
4.364000000000000057e+01,3.670507310230876341e-02
4.367999999999999972e+01,5.060864211623281039e-02
4.371999999999999886e+01,5.957286895148616174e-02
4.375999999999999801e+01,6.432940306284261334e-02
4.379999999999999716e+01,8.207203683471278599e-02
4.384000000000000341e+01,9.213163391334287800e-02
4.388000000000000256e+01,1.031050898198888205e-01
4.392000000000000171e+01,9.029918881779673556e-02
4.396000000000000085e+01,7.584636617036821793e-02
4.400000000000000000e+01,7.529419996905002688e-02
4.403999999999999915e+01,4.584111725468821563e-02
4.407999999999999829e+01,4.803122012640303334e-02
4.411999999999999744e+01,5.333012616405885531e-02
4.415999999999999659e+01,3.942248472093828199e-02
4.420000000000000284e+01,4.965860416965222485e-02
4.424000000000000199e+01,4.434642743775576296e-02
4.428000000000000114e+01,3.080246115187748601e-02
4.432000000000000028e+01,3.810982314560992096e-02
4.435999999999999943e+01,4.614811516285384496e-02
4.439999999999999858e+01,4.284509771311036108e-02
4.443999999999999773e+01,3.112737264177141069e-02
4.447999999999999687e+01,3.495650220432047067e-02
4.452000000000000313e+01,4.902801678133131280e-02
4.456000000000000227e+01,4.846578793703197607e-02
4.460000000000000142e+01,5.558516363394216259e-02
4.464000000000000057e+01,5.593603929172644845e-02
4.467999999999999972e+01,6.835842158775899680e-02
4.471999999999999886e+01,8.242628532450443912e-02
4.475999999999999801e+01,1.133213831949732991e-01
4.479999999999999716e+01,1.425695312360299727e-01
4.484000000000000341e+01,1.582814026563937881e-01
4.488000000000000256e+01,1.622861231061476506e-01
4.492000000000000171e+01,1.545836912431926835e-01
4.496000000000000085e+01,1.402956613035393207e-01
4.500000000000000000e+01,1.283847542067796110e-01
4.503999999999999915e+01,9.781600820072366975e-02
4.507999999999999829e+01,7.785545381818211041e-02
4.511999999999999744e+01,6.429609763503787989e-02
4.515999999999999659e+01,5.091890653577377940e-02
4.520000000000000284e+01,4.467456174858208673e-02
4.524000000000000199e+01,4.519723653292749554e-02
4.528000000000000114e+01,4.041469139831106727e-02
4.532000000000000028e+01,4.093586155728867748e-02
4.535999999999999943e+01,4.785822186307050335e-02
4.539999999999999858e+01,3.740312007519369653e-02
4.543999999999999773e+01,3.572707083975995568e-02
4.547999999999999687e+01,3.295278705688831772e-02
4.552000000000000313e+01,3.694551345086202754e-02
4.556000000000000227e+01,2.319494698434537011e-02
4.560000000000000142e+01,3.230770554167663317e-02
4.564000000000000057e+01,3.373736701131998389e-02
4.567999999999999972e+01,3.717830310974042790e-02
4.571999999999999886e+01,3.202157594018449627e-02
4.575999999999999801e+01,2.448621593397154461e-02
4.579999999999999716e+01,2.682737259662115042e-02
4.584000000000000341e+01,2.825319533216148760e-02
4.588000000000000256e+01,2.492251611491197449e-02
4.592000000000000171e+01,3.183417493866483317e-02
4.596000000000000085e+01,2.886777354732089976e-02
4.600000000000000000e+01,2.901011224327246923e-02
4.603999999999999915e+01,2.000603883680233952e-02
4.607999999999999829e+01,3.020702036463028886e-02
4.611999999999999744e+01,2.449381723476601672e-02
4.615999999999999659e+01,1.987730913240183528e-02
4.620000000000000284e+01,3.208798684820281244e-02
4.624000000000000199e+01,3.588389654796059897e-02
4.628000000000000114e+01,3.400872737784914335e-02
4.632000000000000028e+01,3.432772406215158639e-02
4.635999999999999943e+01,3.373136937205988700e-02
4.639999999999999858e+01,3.368296355922070079e-02
4.643999999999999773e+01,2.485395762140776843e-02
4.647999999999999687e+01,3.175465191175901036e-02
4.652000000000000313e+01,2.731396560388427153e-02
4.656000000000000227e+01,4.409035781652152070e-02
4.660000000000000142e+01,3.873351749286219753e-02
4.664000000000000057e+01,3.703413388057146677e-02
4.667999999999999972e+01,3.313899926256864276e-02
4.671999999999999886e+01,3.601083455844587139e-02
4.675999999999999801e+01,3.760147966050423479e-02
4.679999999999999716e+01,4.339831420319040234e-02
4.684000000000000341e+01,4.169492409444170572e-02
4.688000000000000256e+01,3.688121277339576065e-02
4.692000000000000171e+01,4.066359164791756575e-02
4.696000000000000085e+01,4.133564662594440414e-02
4.700000000000000000e+01,4.529932083801394699e-02
4.703999999999999915e+01,4.048237479362714469e-02
4.707999999999999829e+01,4.005452149439443776e-02
4.711999999999999744e+01,5.352721995756268281e-02
4.715999999999999659e+01,5.126861156768695860e-02
4.720000000000000284e+01,4.882627441621423953e-02
4.724000000000000199e+01,5.461419132508218283e-02
4.728000000000000114e+01,4.723157514366427973e-02
4.732000000000000028e+01,6.216348817818963257e-02
4.735999999999999943e+01,7.654584168428615887e-02
4.739999999999999858e+01,6.385629293321835875e-02
4.743999999999999773e+01,5.701912644216059617e-02
4.747999999999999687e+01,7.963007906815978976e-02
4.752000000000000313e+01,7.151087142633447136e-02
4.756000000000000227e+01,6.942695471744080027e-02
4.760000000000000142e+01,7.740240698218010806e-02
4.764000000000000057e+01,8.117003633943505048e-02
4.767999999999999972e+01,9.536285738456164174e-02
4.771999999999999886e+01,1.037016385450425515e-01
4.775999999999999801e+01,9.960152130692428996e-02
4.779999999999999716e+01,9.952464725774470833e-02
4.784000000000000341e+01,1.029222769577503027e-01
4.788000000000000256e+01,9.223478993989658870e-02
4.792000000000000171e+01,8.813131987373958032e-02
4.796000000000000085e+01,7.652758757738013784e-02
4.800000000000000000e+01,7.169078224773800523e-02
4.803999999999999915e+01,6.721895807007771673e-02
4.807999999999999829e+01,4.866201046406385539e-02
4.811999999999999744e+01,6.266267638823477815e-02
4.815999999999999659e+01,6.440734319203629543e-02
4.820000000000000284e+01,5.572513652555145108e-02
4.824000000000000199e+01,4.740790430055433907e-02
4.828000000000000114e+01,4.768671663976438435e-02
4.832000000000000028e+01,3.973360387300976099e-02
4.835999999999999943e+01,4.220565997844645534e-02
4.839999999999999858e+01,3.315335970779351854e-02
4.843999999999999773e+01,3.123379703920687450e-02
4.847999999999999687e+01,3.845901032198777852e-02
4.852000000000000313e+01,3.598899019456432841e-02
4.856000000000000227e+01,4.120044174056528008e-02
4.860000000000000142e+01,4.000908577809148686e-02
4.864000000000000057e+01,3.845104003924426639e-02
4.867999999999999972e+01,3.451426349052472142e-02
4.871999999999999886e+01,4.246594532885247103e-02
4.875999999999999801e+01,4.090529840360101338e-02
4.879999999999999716e+01,3.623426584530796413e-02
4.884000000000000341e+01,3.247692569467457852e-02
4.888000000000000256e+01,2.871871311351105460e-02
4.892000000000000171e+01,3.428817441984602366e-02
4.896000000000000085e+01,3.180860184585308781e-02
4.900000000000000000e+01,3.371805759626995275e-02
4.903999999999999915e+01,4.166275462196143697e-02
4.907999999999999829e+01,3.771724705744657763e-02
4.911999999999999744e+01,2.828347803326306323e-02
4.915999999999999659e+01,3.604262091036691817e-02
4.920000000000000284e+01,2.697291229207690599e-02
4.924000000000000199e+01,3.290116050025841676e-02
4.928000000000000114e+01,2.949997519679397120e-02
4.932000000000000028e+01,3.121945827782138250e-02
4.935999999999999943e+01,3.732795760436902199e-02
4.939999999999999858e+01,2.733924952190136537e-02
4.943999999999999773e+01,3.399470584837464837e-02
4.947999999999999687e+01,3.991761881596246619e-02
4.952000000000000313e+01,3.541361402400225455e-02
4.956000000000000227e+01,3.328657907566804491e-02
4.960000000000000142e+01,3.134156023824274939e-02
4.964000000000000057e+01,3.762671493522774802e-02
4.967999999999999972e+01,2.854630362537827898e-02
4.971999999999999886e+01,2.970810285714144475e-02
4.975999999999999801e+01,2.995443663610905180e-02
4.979999999999999716e+01,3.056569251470962409e-02
4.984000000000000341e+01,2.568866277586239616e-02
4.988000000000000256e+01,3.306587790163242890e-02
4.992000000000000171e+01,4.556374128041168481e-02
4.996000000000000085e+01,2.934340221473716662e-02
5.000000000000000000e+01,2.958429606940160897e-02
5.003999999999999915e+01,3.677496114296063823e-02
5.007999999999999829e+01,5.091539609331535016e-02
5.011999999999999744e+01,4.383704389876649093e-02
5.015999999999999659e+01,4.498884779134296880e-02
5.020000000000000284e+01,5.711449691721867672e-02
5.024000000000000199e+01,6.503223589918551151e-02
5.028000000000000114e+01,6.929080149279913392e-02
5.032000000000000028e+01,8.507194639107003298e-02
5.035999999999999943e+01,9.792556601366278479e-02
5.039999999999999858e+01,1.195580717684423672e-01
5.043999999999999773e+01,1.303978034969642263e-01
5.047999999999999687e+01,1.523942837633116276e-01
5.052000000000000313e+01,1.487820586825306102e-01
5.056000000000000227e+01,1.656551271155049243e-01
5.060000000000000142e+01,1.666138605757168933e-01
5.064000000000000057e+01,1.774489483108318277e-01
5.067999999999999972e+01,1.590170713460592189e-01
5.071999999999999886e+01,1.350968792376644190e-01
5.075999999999999801e+01,1.071516722372938546e-01
5.079999999999999716e+01,9.328980622544914836e-02
5.084000000000000341e+01,8.674350998895859199e-02
5.088000000000000256e+01,5.879548840846827995e-02
5.092000000000000171e+01,5.627139114173467654e-02
5.096000000000000085e+01,5.301470085845861463e-02
5.100000000000000000e+01,5.012289241185026445e-02
5.103999999999999915e+01,4.503518667075620541e-02
5.107999999999999829e+01,4.506809026180505495e-02
5.111999999999999744e+01,3.814936369449770104e-02
5.115999999999999659e+01,4.567979143526301050e-02
5.120000000000000284e+01,4.461237204051077265e-02
5.124000000000000199e+01,3.256923907830578530e-02
5.128000000000000114e+01,3.278030400725870375e-02
5.132000000000000028e+01,3.518536702827045753e-02
5.135999999999999943e+01,3.722364901018767464e-02
5.139999999999999858e+01,2.865203745469313210e-02
5.143999999999999773e+01,3.343209461727021659e-02
5.147999999999999687e+01,3.875993021054719573e-02
5.152000000000000313e+01,5.195205086115251697e-02
5.156000000000000227e+01,3.075562170758672914e-02
5.160000000000000142e+01,3.150775276695190474e-02
5.164000000000000057e+01,3.829503786516712249e-02
5.167999999999999972e+01,4.160601530078789079e-02
5.171999999999999886e+01,3.741660434891538184e-02
5.175999999999999801e+01,3.633574022210539489e-02
5.179999999999999716e+01,3.360769139858634652e-02
5.184000000000000341e+01,3.654896450498678478e-02
5.188000000000000256e+01,4.278169310937139647e-02
5.192000000000000171e+01,2.377149479160456380e-02
5.196000000000000085e+01,4.079412244767937484e-02
5.200000000000000000e+01,2.233070934118669415e-02
5.203999999999999915e+01,3.057157186421054912e-02
5.207999999999999829e+01,2.637339104196049361e-02
5.211999999999999744e+01,3.040530054399269780e-02
5.215999999999999659e+01,4.047234663758996626e-02
5.220000000000000284e+01,3.992947235179866022e-02
5.224000000000000199e+01,3.426405732106556357e-02
5.228000000000000114e+01,3.609707644934655874e-02
5.232000000000000028e+01,3.189298865239705710e-02
5.235999999999999943e+01,2.585878467013653925e-02
5.239999999999999858e+01,2.787174891824817716e-02
5.243999999999999773e+01,3.299323717574205450e-02
5.247999999999999687e+01,3.280926393648286865e-02
5.252000000000000313e+01,2.805147865524452652e-02
5.256000000000000227e+01,2.603638795865556230e-02
5.260000000000000142e+01,3.572671276630822595e-02
5.264000000000000057e+01,2.456399127526674372e-02
5.267999999999999972e+01,3.736183345188760080e-02
5.271999999999999886e+01,2.802623775108929738e-02
5.275999999999999801e+01,3.222517917831912992e-02
5.279999999999999716e+01,3.038699757513247529e-02
5.284000000000000341e+01,3.129150116190328179e-02
5.288000000000000256e+01,2.268353774891439245e-02
5.292000000000000171e+01,2.962214578695826842e-02
5.296000000000000085e+01,3.125527622306298325e-02
5.300000000000000000e+01,2.922914200809339710e-02
5.303999999999999915e+01,3.342102755773266459e-02
5.307999999999999829e+01,3.249034417835441196e-02
5.311999999999999744e+01,3.375359849658723932e-02
5.315999999999999659e+01,2.733350341255036051e-02
5.320000000000000284e+01,2.896054971690877403e-02
5.324000000000000199e+01,2.711123601681800221e-02
5.328000000000000114e+01,2.672420384907021884e-02
5.332000000000000028e+01,3.584761063716673801e-02
5.335999999999999943e+01,3.088571683986279445e-02
5.339999999999999858e+01,4.238494188449649230e-02
5.343999999999999773e+01,3.522604617907748592e-02
5.347999999999999687e+01,3.428515547518003886e-02
5.352000000000000313e+01,3.261158586041429386e-02
5.356000000000000227e+01,3.916805825437257027e-02
5.360000000000000142e+01,2.322523784630083077e-02
5.364000000000000057e+01,3.892528226268300584e-02
5.367999999999999972e+01,1.877340414991006054e-02
5.371999999999999886e+01,3.410555486097523875e-02
5.375999999999999801e+01,3.443782806956069420e-02
5.379999999999999716e+01,2.653799230464041342e-02
5.384000000000000341e+01,3.198974473186135675e-02
5.388000000000000256e+01,3.085559979434252670e-02
5.392000000000000171e+01,3.118371491558526165e-02
5.396000000000000085e+01,2.529175538632696951e-02
5.400000000000000000e+01,2.982477549332352221e-02
5.403999999999999915e+01,3.508840083591237280e-02
5.407999999999999829e+01,3.065660621655813198e-02
5.411999999999999744e+01,3.171114432827133039e-02
5.415999999999999659e+01,3.002094236413476586e-02
5.420000000000000284e+01,2.924425296641328109e-02
5.424000000000000199e+01,2.261330492193532396e-02
5.428000000000000114e+01,2.951684300572942482e-02
5.432000000000000028e+01,4.044340551635127595e-02
5.435999999999999943e+01,3.271181640864714163e-02
5.439999999999999858e+01,3.577101891464586764e-02
5.443999999999999773e+01,2.748857508684829365e-02
5.447999999999999687e+01,3.493556306744687034e-02
5.452000000000000313e+01,3.433333061597883956e-02
5.456000000000000227e+01,2.495022559347252061e-02
5.460000000000000142e+01,3.458897693899320308e-02
5.464000000000000057e+01,2.959364665429611504e-02
5.467999999999999972e+01,3.520618588939176258e-02
5.471999999999999886e+01,2.636755350929011893e-02
5.475999999999999801e+01,3.783116102334741632e-02
5.479999999999999716e+01,3.466068153879148239e-02
5.484000000000000341e+01,2.984291535801465028e-02
5.488000000000000256e+01,4.112039296308198782e-02
5.492000000000000171e+01,3.300804936356677849e-02
5.496000000000000085e+01,3.440608969384338633e-02
5.500000000000000000e+01,4.714363960399486214e-02
5.503999999999999915e+01,3.921097538874002142e-02
5.507999999999999829e+01,4.755646094805330432e-02
5.511999999999999744e+01,3.962163447899898910e-02
5.515999999999999659e+01,4.138009792846056301e-02
5.520000000000000284e+01,4.606408008326623449e-02
5.524000000000000199e+01,4.727163512868071127e-02
5.528000000000000114e+01,5.762373796865997988e-02
5.532000000000000028e+01,5.279299826508655757e-02
5.535999999999999943e+01,5.802136716797108573e-02
5.539999999999999858e+01,5.209097022590537807e-02
5.543999999999999773e+01,4.872025853815441232e-02
5.547999999999999687e+01,5.595738952821941586e-02
5.552000000000000313e+01,5.459652843609222317e-02
5.556000000000000227e+01,4.683262631029221773e-02
5.560000000000000142e+01,3.979927707822970839e-02
5.564000000000000057e+01,4.392250325324240090e-02
5.567999999999999972e+01,3.981355737610394602e-02
5.571999999999999886e+01,3.917885085467921052e-02
5.575999999999999801e+01,4.896906491716045834e-02
5.579999999999999716e+01,4.028399174497561408e-02
5.584000000000000341e+01,3.653645549595351677e-02
5.588000000000000256e+01,3.955558182017714086e-02
5.592000000000000171e+01,5.098758366851133955e-02
5.596000000000000085e+01,4.741963419892965964e-02
5.600000000000000000e+01,3.946066862398786568e-02
5.603999999999999915e+01,4.540195552340570151e-02
5.607999999999999829e+01,4.750096173092036717e-02
5.611999999999999744e+01,4.795263829505121145e-02
5.615999999999999659e+01,5.187853945180859183e-02
5.620000000000000284e+01,4.281652092945709837e-02
5.624000000000000199e+01,7.234796256542590231e-02
5.628000000000000114e+01,6.145457695536034326e-02
5.632000000000000028e+01,7.378998208508992518e-02
5.635999999999999943e+01,6.362600180796966487e-02
5.639999999999999858e+01,7.230090480521038365e-02
5.643999999999999773e+01,8.280380870742207189e-02
5.647999999999999687e+01,9.513471217250599188e-02
5.652000000000000313e+01,1.016112804911993711e-01
5.656000000000000227e+01,9.162457576674880311e-02
5.660000000000000142e+01,9.937927141085597937e-02
5.664000000000000057e+01,1.157297311205127133e-01
5.667999999999999972e+01,1.048250645068560805e-01
5.671999999999999886e+01,1.037965481690786562e-01
5.675999999999999801e+01,9.618203783544507224e-02
5.679999999999999716e+01,9.039551632789286084e-02
5.684000000000000341e+01,9.064397438634151649e-02
5.688000000000000256e+01,8.686721221169202423e-02
5.692000000000000171e+01,7.778483956731824245e-02
5.696000000000000085e+01,7.272540277124872610e-02
5.700000000000000000e+01,7.754210685636662992e-02
5.703999999999999915e+01,6.626134719159078312e-02
5.707999999999999829e+01,8.406255914171399668e-02
5.711999999999999744e+01,8.082766177885486458e-02
5.715999999999999659e+01,9.204171740924239897e-02
5.720000000000000284e+01,1.092907405267411619e-01
5.724000000000000199e+01,1.258069599181795561e-01
5.728000000000000114e+01,1.300668741907130832e-01
5.732000000000000028e+01,1.312161169631521351e-01
5.735999999999999943e+01,1.424244012371071733e-01
5.739999999999999858e+01,1.380839477799335191e-01
5.743999999999999773e+01,1.236821362260778212e-01
5.747999999999999687e+01,1.186077113505688424e-01
5.752000000000000313e+01,1.104226082644712698e-01
5.756000000000000227e+01,9.455400814523150232e-02
5.760000000000000142e+01,8.051337001009639671e-02
5.764000000000000057e+01,6.354496233729428623e-02
5.767999999999999972e+01,5.864762512061749700e-02
5.771999999999999886e+01,5.429785696722150973e-02
5.775999999999999801e+01,5.726342640608032830e-02
5.779999999999999716e+01,4.687519708344027591e-02
5.784000000000000341e+01,4.508269156338464562e-02
5.788000000000000256e+01,4.895930531632364940e-02
5.792000000000000171e+01,4.314037026583096568e-02
5.796000000000000085e+01,3.860064702289875416e-02
5.800000000000000000e+01,3.479139614777369827e-02
5.803999999999999915e+01,3.152970359913875864e-02
5.807999999999999829e+01,3.302256011691333260e-02
5.811999999999999744e+01,2.975850399965300486e-02
5.815999999999999659e+01,3.143190696382263533e-02
5.820000000000000284e+01,2.999460890172338592e-02
5.824000000000000199e+01,3.605554502591102467e-02
5.828000000000000114e+01,3.095761867403186429e-02
5.832000000000000028e+01,2.750471744926011666e-02
5.835999999999999943e+01,3.722034006024244057e-02
5.839999999999999858e+01,2.681437390717044886e-02
5.843999999999999773e+01,3.140605589783677931e-02
5.847999999999999687e+01,3.727693224877873246e-02
5.852000000000000313e+01,3.070854917653354638e-02
5.856000000000000227e+01,2.541935778036629942e-02
5.860000000000000142e+01,3.329868216736020514e-02
5.864000000000000057e+01,2.617796531581585359e-02
5.867999999999999972e+01,3.314032505932585498e-02
5.871999999999999886e+01,2.565137897775453257e-02
5.875999999999999801e+01,1.578336387740324198e-02
5.879999999999999716e+01,1.688890545910060742e-02
5.884000000000000341e+01,3.024839127527515978e-02
5.888000000000000256e+01,2.677870080813660181e-02
5.892000000000000171e+01,3.153887250847741547e-02
5.896000000000000085e+01,3.026171449518037446e-02
5.900000000000000000e+01,2.605674131285580508e-02
5.903999999999999915e+01,2.843541197875039395e-02
5.907999999999999829e+01,2.989830448281978817e-02
5.911999999999999744e+01,1.910483013143771808e-02
5.915999999999999659e+01,3.208878932848767407e-02
5.920000000000000284e+01,2.403656942341554983e-02
5.924000000000000199e+01,2.275089935528665577e-02
5.928000000000000114e+01,1.945196821952920388e-02
5.932000000000000028e+01,2.712657631853554116e-02
5.935999999999999943e+01,2.583723809542465277e-02
5.939999999999999858e+01,1.119404742686127587e-02
5.943999999999999773e+01,2.215740790421990777e-02
5.947999999999999687e+01,2.507138152925572974e-02
5.952000000000000313e+01,1.957014156143354125e-02
5.956000000000000227e+01,1.827466290470921434e-02
5.960000000000000142e+01,2.045329342011123833e-02
5.964000000000000057e+01,1.970408729290425154e-02
5.967999999999999972e+01,1.419791618880755085e-02
5.971999999999999886e+01,2.423808837894081414e-02
5.975999999999999801e+01,2.531430082596847209e-02
5.979999999999999716e+01,2.291393316433726346e-02
5.984000000000000341e+01,1.831737294647552833e-02
5.988000000000000256e+01,2.231646808415747169e-02
5.992000000000000171e+01,2.448519337984759667e-02
5.996000000000000085e+01,2.226276970239250697e-02
