theta,intensity
5.0000,4.621
5.0400,4.667
5.0800,4.648
5.1200,4.627
5.1600,4.635
5.2000,4.800
5.2400,4.572
5.2800,4.547
5.3200,4.480
5.3600,4.441
5.4000,4.530
5.4400,4.494
5.4800,4.480
5.5200,4.420
5.5600,4.594
5.6000,4.430
5.6400,4.419
5.6800,4.411
5.7200,4.272
5.7600,4.369
5.8000,4.279
5.8400,4.328
5.8800,4.279
5.9200,4.233
5.9600,4.222
6.0000,4.221
6.0400,4.174
6.0800,4.276
6.1200,4.176
6.1600,4.092
6.2000,4.004
6.2400,4.100
6.2800,4.025
6.3200,3.951
6.3600,3.899
6.4000,4.047
6.4400,4.009
6.4800,3.992
6.5200,3.975
6.5600,4.002
6.6000,3.942
6.6400,4.076
6.6800,4.028
6.7200,3.920
6.7600,3.963
6.8000,3.906
6.8400,3.885
6.8800,3.941
6.9200,3.878
6.9600,3.841
7.0000,3.717
7.0400,3.852
7.0800,3.705
7.1200,3.940
7.1600,3.857
7.2000,3.804
7.2400,3.785
7.2800,3.910
7.3200,3.772
7.3600,3.900
7.4000,3.771
7.4400,3.898
7.4800,3.751
7.5200,3.718
7.5600,3.711
7.6000,3.840
7.6400,3.757
7.6800,3.812
7.7200,3.870
7.7600,3.895
7.8000,3.756
7.8400,3.771
7.8800,3.761
7.9200,3.772
7.9600,3.758
8.0000,3.734
8.0400,3.748
8.0800,3.853
8.1200,3.739
8.1600,3.739
8.2000,3.663
8.2400,3.673
8.2800,3.711
8.3200,3.705
8.3600,3.774
8.4000,3.722
8.4400,3.737
8.4800,3.659
8.5200,3.689
8.5600,3.635
8.6000,3.675
8.6400,3.682
8.6800,3.712
8.7200,3.607
8.7600,3.590
8.8000,3.652
8.8400,3.622
8.8800,3.644
8.9200,3.573
8.9600,3.586
9.0000,3.653
9.0400,3.580
9.0800,3.589
9.1200,3.670
9.1600,3.732
9.2000,3.658
9.2400,3.553
9.2800,3.571
9.3200,3.639
9.3600,3.670
9.4000,3.621
9.4400,3.613
9.4800,3.632
9.5200,3.565
9.5600,3.621
9.6000,3.552
9.6400,3.580
9.6800,3.606
9.7200,3.581
9.7600,3.625
9.8000,3.531
9.8400,3.486
9.8800,3.562
9.9200,3.515
9.9600,3.514
10.0000,3.568
10.0400,3.501
10.0800,3.473
10.1200,3.488
10.1600,3.574
10.2000,3.403
10.2400,3.506
10.2800,3.482
10.3200,3.498
10.3600,3.549
10.4000,3.404
10.4400,3.460
10.4800,3.522
10.5200,3.461
10.5600,3.533
10.6000,3.385
10.6400,3.547
10.6800,3.367
10.7200,3.566
10.7600,3.438
10.8000,3.347
10.8400,3.423
10.8800,3.343
10.9200,3.408
10.9600,3.472
11.0000,3.382
11.0400,3.327
11.0800,3.439
11.1200,3.409
11.1600,3.342
11.2000,3.447
11.2400,3.506
11.2800,3.372
11.3200,3.364
11.3600,3.388
11.4000,3.368
11.4400,3.391
11.4800,3.347
11.5200,3.296
11.5600,3.355
11.6000,3.323
11.6400,3.451
11.6800,3.462
11.7200,3.454
11.7600,3.328
11.8000,3.295
11.8400,3.339
11.8800,3.371
11.9200,3.296
11.9600,3.440
12.0000,3.346
12.0400,3.381
12.0800,3.186
12.1200,3.338
12.1600,3.301
12.2000,3.400
12.2400,3.387
12.2800,3.339
12.3200,3.378
12.3600,3.268
12.4000,3.218
12.4400,3.272
12.4800,3.237
12.5200,3.276
12.5600,3.166
12.6000,3.241
12.6400,3.308
12.6800,3.229
12.7200,3.307
12.7600,3.297
12.8000,3.150
12.8400,3.207
12.8800,3.257
12.9200,3.229
12.9600,3.161
13.0000,3.237
13.0400,3.286
13.0800,3.232
13.1200,3.131
13.1600,3.316
13.2000,3.236
13.2400,3.274
13.2800,3.141
13.3200,3.309
13.3600,3.295
13.4000,3.181
13.4400,3.216
13.4800,3.088
13.5200,3.165
13.5600,3.163
13.6000,3.170
13.6400,3.190
13.6800,3.169
13.7200,3.257
13.7600,3.209
13.8000,3.288
13.8400,3.174
13.8800,3.161
13.9200,3.174
13.9600,3.154
14.0000,3.190
14.0400,3.127
14.0800,3.198
14.1200,3.196
14.1600,3.146
14.2000,3.077
14.2400,3.200
14.2800,3.141
14.3200,3.019
14.3600,3.154
14.4000,3.071
14.4400,3.220
14.4800,3.089
14.5200,3.069
14.5600,3.089
14.6000,3.019
14.6400,3.095
14.6800,3.117
14.7200,3.163
14.7600,3.079
14.8000,3.120
14.8400,3.180
14.8800,3.071
14.9200,3.013
14.9600,2.954
15.0000,3.032
15.0400,3.063
15.0800,3.122
15.1200,2.989
15.1600,3.150
15.2000,3.087
15.2400,2.964
15.2800,3.039
15.3200,2.983
15.3600,3.182
15.4000,3.115
15.4400,2.979
15.4800,3.067
15.5200,3.004
15.5600,3.013
15.6000,3.121
15.6400,2.988
15.6800,3.063
15.7200,2.922
15.7600,3.022
15.8000,2.896
15.8400,2.927
15.8800,2.989
15.9200,2.948
15.9600,3.026
16.0000,3.048
16.0400,3.076
16.0800,2.957
16.1200,2.909
16.1600,3.008
16.2000,2.904
16.2400,2.980
16.2800,2.850
16.3200,2.872
16.3600,2.934
16.4000,2.839
16.4400,2.955
16.4800,2.890
16.5200,2.997
16.5600,2.858
16.6000,2.952
16.6400,2.858
16.6800,2.946
16.7200,2.903
16.7600,2.913
16.8000,2.912
16.8400,2.856
16.8800,2.916
16.9200,2.916
16.9600,2.970
17.0000,2.910
17.0400,2.978
17.0800,2.914
17.1200,2.919
17.1600,2.855
17.2000,2.950
17.2400,2.824
17.2800,2.921
17.3200,2.903
17.3600,2.888
17.4000,2.824
17.4400,2.851
17.4800,2.931
17.5200,2.874
17.5600,2.845
17.6000,2.824
17.6400,2.911
17.6800,2.914
17.7200,2.821
17.7600,2.917
17.8000,2.891
17.8400,2.817
17.8800,2.790
17.9200,2.718
17.9600,2.823
18.0000,2.811
18.0400,2.879
18.0800,2.831
18.1200,2.823
18.1600,2.749
18.2000,2.788
18.2400,2.819
18.2800,2.860
18.3200,2.731
18.3600,2.717
18.4000,2.800
18.4400,2.855
18.4800,2.767
18.5200,2.816
18.5600,2.808
18.6000,2.644
18.6400,2.730
18.6800,2.735
18.7200,2.842
18.7600,2.742
18.8000,2.641
18.8400,2.749
18.8800,2.784
18.9200,2.829
18.9600,2.706
19.0000,2.705
19.0400,2.657
19.0800,2.630
19.1200,2.700
19.1600,2.648
19.2000,2.616
19.2400,2.654
19.2800,2.789
19.3200,2.603
19.3600,2.667
19.4000,2.656
19.4400,2.702
19.4800,2.747
19.5200,2.668
19.5600,2.707
19.6000,2.633
19.6400,2.575
19.6800,2.573
19.7200,2.642
19.7600,2.648
19.8000,2.550
19.8400,2.576
19.8800,2.719
19.9200,2.628
19.9600,2.620
20.0000,2.664
20.0400,2.663
20.0800,2.597
20.1200,2.634
20.1600,2.636
20.2000,2.574
20.2400,2.508
20.2800,2.577
20.3200,2.688
20.3600,2.592
20.4000,2.605
20.4400,2.668
20.4800,2.542
20.5200,2.593
20.5600,2.568
20.6000,2.627
20.6400,2.619
20.6800,2.589
20.7200,2.644
20.7600,2.552
20.8000,2.531
20.8400,2.539
20.8800,2.566
20.9200,2.515
20.9600,2.481
21.0000,2.475
21.0400,2.634
21.0800,2.683
21.1200,2.485
21.1600,2.522
21.2000,2.421
21.2400,2.528
21.2800,2.448
21.3200,2.489
21.3600,2.574
21.4000,2.455
21.4400,2.566
21.4800,2.519
21.5200,2.611
21.5600,2.435
21.6000,2.571
21.6400,2.460
21.6800,2.463
21.7200,2.533
21.7600,2.499
21.8000,2.427
21.8400,2.553
21.8800,2.497
21.9200,2.445
21.9600,2.502
22.0000,2.415
22.0400,2.563
22.0800,2.515
22.1200,2.433
22.1600,2.451
22.2000,2.491
22.2400,2.461
22.2800,2.462
22.3200,2.502
22.3600,2.444
22.4000,2.346
22.4400,2.426
22.4800,2.405
22.5200,2.410
22.5600,2.521
22.6000,2.396
22.6400,2.380
22.6800,2.441
22.7200,2.464
22.7600,2.347
22.8000,2.464
22.8400,2.436
22.8800,2.398
22.9200,2.427
22.9600,2.354
23.0000,2.408
23.0400,2.376
23.0800,2.405
23.1200,2.360
23.1600,2.250
23.2000,2.395
23.2400,2.406
23.2800,2.449
23.3200,2.445
23.3600,2.307
23.4000,2.441
23.4400,2.415
23.4800,2.380
23.5200,2.348
23.5600,2.385
23.6000,2.342
23.6400,2.288
23.6800,2.259
23.7200,2.287
23.7600,2.404
23.8000,2.391
23.8400,2.350
23.8800,2.387
23.9200,2.357
23.9600,2.347
24.0000,2.352
24.0400,2.318
24.0800,2.283
24.1200,2.302
24.1600,2.363
24.2000,2.289
24.2400,2.270
24.2800,2.283
24.3200,2.253
24.3600,2.281
24.4000,2.290
24.4400,2.263
24.4800,2.378
24.5200,2.271
24.5600,2.173
24.6000,2.258
24.6400,2.321
24.6800,2.355
24.7200,2.310
24.7600,2.290
24.8000,2.364
24.8400,2.290
24.8800,2.259
24.9200,2.310
24.9600,2.270
25.0000,2.292
25.0400,2.243
25.0800,2.218
25.1200,2.158
25.1600,2.274
25.2000,2.249
25.2400,2.234
25.2800,2.349
25.3200,2.255
25.3600,2.250
25.4000,2.174
25.4400,2.185
25.4800,2.114
25.5200,2.209
25.5600,2.301
25.6000,2.184
25.6400,2.153
25.6800,2.209
25.7200,2.273
25.7600,2.244
25.8000,2.176
25.8400,2.152
25.8800,2.106
25.9200,2.161
25.9600,2.224
26.0000,2.213
26.0400,2.221
26.0800,2.127
26.1200,2.235
26.1600,2.149
26.2000,2.164
26.2400,2.185
26.2800,2.251
26.3200,2.139
26.3600,2.208
26.4000,2.196
26.4400,2.173
26.4800,2.061
26.5200,2.099
26.5600,2.205
26.6000,2.098
26.6400,2.101
26.6800,2.072
26.7200,2.154
26.7600,2.138
26.8000,2.008
26.8400,2.016
26.8800,2.123
26.9200,2.095
26.9600,2.100
27.0000,2.048
27.0400,2.056
27.0800,2.016
27.1200,2.115
27.1600,2.096
27.2000,2.133
27.2400,2.016
27.2800,2.059
27.3200,2.082
27.3600,2.073
27.4000,2.035
27.4400,2.070
27.4800,2.084
27.5200,2.070
27.5600,2.092
27.6000,2.030
27.6400,2.101
27.6800,2.128
27.7200,2.067
27.7600,2.018
27.8000,2.113
27.8400,2.103
27.8800,2.094
27.9200,2.052
27.9600,2.034
28.0000,2.085
28.0400,2.038
28.0800,2.085
28.1200,2.002
28.1600,2.158
28.2000,2.102
28.2400,2.066
28.2800,2.156
28.3200,2.143
28.3600,2.061
28.4000,2.142
28.4400,2.074
28.4800,2.131
28.5200,2.136
28.5600,2.127
28.6000,2.104
28.6400,2.061
28.6800,2.132
28.7200,2.148
28.7600,2.053
28.8000,2.048
28.8400,2.047
28.8800,2.077
28.9200,2.015
28.9600,2.063
29.0000,2.007
29.0400,2.014
29.0800,1.973
29.1200,1.923
29.1600,2.010
29.2000,1.955
29.2400,1.929
29.2800,1.966
29.3200,1.974
29.3600,1.930
29.4000,1.975
29.4400,1.944
29.4800,1.916
29.5200,1.941
29.5600,1.950
29.6000,1.826
29.6400,1.937
29.6800,1.895
29.7200,1.940
29.7600,1.870
29.8000,1.843
29.8400,1.836
29.8800,1.844
29.9200,1.873
29.9600,1.861
30.0000,1.873
30.0400,1.790
30.0800,1.803
30.1200,1.778
30.1600,1.874
30.2000,1.797
30.2400,1.769
30.2800,1.814
30.3200,1.900
30.3600,1.851
30.4000,1.869
30.4400,1.808
30.4800,1.776
30.5200,1.836
30.5600,1.749
30.6000,1.808
30.6400,1.713
30.6800,1.821
30.7200,1.767
30.7600,1.795
30.8000,1.777
30.8400,1.712
30.8800,1.781
30.9200,1.778
30.9600,1.729
31.0000,1.726
31.0400,1.770
31.0800,1.736
31.1200,1.724
31.1600,1.750
31.2000,1.785
31.2400,1.734
31.2800,1.833
31.3200,1.758
31.3600,1.741
31.4000,1.719
31.4400,1.747
31.4800,1.723
31.5200,1.723
31.5600,1.661
31.6000,1.700
31.6400,1.656
31.6800,1.695
31.7200,1.752
31.7600,1.701
31.8000,1.630
31.8400,1.724
31.8800,1.684
31.9200,1.661
31.9600,1.631
32.0000,1.664
32.0400,1.687
32.0800,1.649
32.1200,1.654
32.1600,1.697
32.2000,1.620
32.2400,1.608
32.2800,1.630
32.3200,1.611
32.3600,1.562
32.4000,1.602
32.4400,1.609
32.4800,1.536
32.5200,1.659
32.5600,1.642
32.6000,1.679
32.6400,1.665
32.6800,1.588
32.7200,1.659
32.7600,1.644
32.8000,1.567
32.8400,1.613
32.8800,1.532
32.9200,1.512
32.9600,1.628
33.0000,1.605
33.0400,1.573
33.0800,1.571
33.1200,1.566
33.1600,1.624
33.2000,1.585
33.2400,1.525
33.2800,1.582
33.3200,1.564
33.3600,1.578
33.4000,1.565
33.4400,1.512
33.4800,1.542
33.5200,1.567
33.5600,1.539
33.6000,1.556
33.6400,1.514
33.6800,1.613
33.7200,1.524
33.7600,1.590
33.8000,1.522
33.8400,1.496
33.8800,1.525
33.9200,1.569
33.9600,1.528
34.0000,1.523
34.0400,1.523
34.0800,1.474
34.1200,1.427
34.1600,1.482
34.2000,1.462
34.2400,1.503
34.2800,1.490
34.3200,1.521
34.3600,1.514
34.4000,1.561
34.4400,1.570
34.4800,1.485
34.5200,1.487
34.5600,1.525
34.6000,1.484
34.6400,1.422
34.6800,1.495
34.7200,1.478
34.7600,1.522
34.8000,1.433
34.8400,1.412
34.8800,1.578
34.9200,1.446
34.9600,1.482
35.0000,1.487
35.0400,1.501
35.0800,1.522
35.1200,1.430
35.1600,1.485
35.2000,1.466
35.2400,1.433
35.2800,1.461
35.3200,1.440
35.3600,1.483
35.4000,1.444
35.4400,1.385
35.4800,1.492
35.5200,1.478
35.5600,1.488
35.6000,1.448
35.6400,1.447
35.6800,1.384
35.7200,1.453
35.7600,1.402
35.8000,1.421
35.8400,1.439
35.8800,1.437
35.9200,1.414
35.9600,1.405
36.0000,1.489
36.0400,1.484
36.0800,1.427
36.1200,1.436
36.1600,1.489
36.2000,1.408
36.2400,1.370
36.2800,1.438
36.3200,1.428
36.3600,1.413
36.4000,1.396
36.4400,1.483
36.4800,1.396
36.5200,1.367
36.5600,1.356
36.6000,1.402
36.6400,1.446
36.6800,1.427
36.7200,1.430
36.7600,1.466
36.8000,1.429
36.8400,1.392
36.8800,1.390
36.9200,1.304
36.9600,1.482
37.0000,1.450
37.0400,1.485
37.0800,1.435
37.1200,1.453
37.1600,1.450
37.2000,1.521
37.2400,1.517
37.2800,1.572
37.3200,1.574
37.3600,1.522
37.4000,1.573
37.4400,1.513
37.4800,1.566
37.5200,1.538
37.5600,1.517
37.6000,1.498
37.6400,1.566
37.6800,1.645
37.7200,1.599
37.7600,1.643
37.8000,1.536
37.8400,1.686
37.8800,1.625
37.9200,1.769
37.9600,1.758
38.0000,1.783
38.0400,1.866
38.0800,1.951
38.1200,2.114
38.1600,2.113
38.2000,2.324
38.2400,2.446
38.2800,2.593
38.3200,2.562
38.3600,2.788
38.4000,3.020
38.4400,3.238
38.4800,3.465
38.5200,3.637
38.5600,3.811
38.6000,4.090
38.6400,4.687
38.6800,5.200
38.7200,5.810
38.7600,6.609
38.8000,7.609
38.8400,8.537
38.8800,9.679
38.9200,11.280
38.9600,12.344
39.0000,13.541
39.0400,14.201
39.0800,14.427
39.1200,13.738
39.1600,13.055
39.2000,11.775
39.2400,10.495
39.2800,9.299
39.3200,8.056
39.3600,6.972
39.4000,6.174
39.4400,5.337
39.4800,4.619
39.5200,4.165
39.5600,3.636
39.6000,3.456
39.6400,3.254
39.6800,2.974
39.7200,2.838
39.7600,2.515
39.8000,2.471
39.8400,2.308
39.8800,2.141
39.9200,2.065
39.9600,2.065
40.0000,2.003
40.0400,1.889
40.0800,1.808
40.1200,1.804
40.1600,1.697
40.2000,1.762
40.2400,1.717
40.2800,1.691
40.3200,1.576
40.3600,1.573
40.4000,1.520
40.4400,1.479
40.4800,1.557
40.5200,1.423
40.5600,1.468
40.6000,1.380
40.6400,1.462
40.6800,1.393
40.7200,1.399
40.7600,1.393
40.8000,1.419
40.8400,1.420
40.8800,1.339
40.9200,1.333
40.9600,1.365
41.0000,1.376
41.0400,1.395
41.0800,1.319
41.1200,1.298
41.1600,1.239
41.2000,1.252
41.2400,1.254
41.2800,1.277
41.3200,1.272
41.3600,1.320
41.4000,1.282
41.4400,1.221
41.4800,1.237
41.5200,1.309
41.5600,1.242
41.6000,1.249
41.6400,1.196
41.6800,1.185
41.7200,1.193
41.7600,1.245
41.8000,1.214
41.8400,1.215
41.8800,1.211
41.9200,1.205
41.9600,1.211
42.0000,1.193
42.0400,1.191
42.0800,1.215
42.1200,1.181
42.1600,1.189
42.2000,1.225
42.2400,1.162
42.2800,1.194
42.3200,1.174
42.3600,1.171
42.4000,1.249
42.4400,1.224
42.4800,1.170
42.5200,1.263
42.5600,1.204
42.6000,1.186
42.6400,1.213
42.6800,1.163
42.7200,1.170
42.7600,1.170
42.8000,1.211
42.8400,1.158
42.8800,1.169
42.9200,1.140
42.9600,1.171
43.0000,1.148
43.0400,1.147
43.0800,1.125
43.1200,1.162
43.1600,1.210
43.2000,1.227
43.2400,1.122
43.2800,1.199
43.3200,1.163
43.3600,1.238
43.4000,1.159
43.4400,1.233
43.4800,1.238
43.5200,1.177
43.5600,1.250
43.6000,1.264
43.6400,1.223
43.6800,1.236
43.7200,1.269
43.7600,1.243
43.8000,1.236
43.8400,1.214
43.8800,1.247
43.9200,1.278
43.9600,1.260
44.0000,1.268
44.0400,1.253
44.0800,1.343
44.1200,1.339
44.1600,1.427
44.2000,1.322
44.2400,1.334
44.2800,1.415
44.3200,1.459
44.3600,1.495
44.4000,1.532
44.4400,1.587
44.4800,1.615
44.5200,1.706
44.5600,1.708
44.6000,1.764
44.6400,1.813
44.6800,1.916
44.7200,2.012
44.7600,1.989
44.8000,2.078
44.8400,2.246
44.8800,2.341
44.9200,2.475
44.9600,2.685
45.0000,2.850
45.0400,3.092
45.0800,3.179
45.1200,3.451
45.1600,3.604
45.2000,3.929
45.2400,4.109
45.2800,4.481
45.3200,4.712
45.3600,4.759
45.4000,4.783
45.4400,4.743
45.4800,4.652
45.5200,4.547
45.5600,4.289
45.6000,4.064
45.6400,3.774
45.6800,3.424
45.7200,3.260
45.7600,3.021
45.8000,2.799
45.8400,2.548
45.8800,2.301
45.9200,2.277
45.9600,1.989
46.0000,1.966
46.0400,1.823
46.0800,1.724
46.1200,1.682
46.1600,1.588
46.2000,1.519
46.2400,1.484
46.2800,1.380
46.3200,1.333
46.3600,1.327
46.4000,1.250
46.4400,1.190
46.4800,1.239
46.5200,1.175
46.5600,1.217
46.6000,1.200
46.6400,1.170
46.6800,1.041
46.7200,1.144
46.7600,1.124
46.8000,1.107
46.8400,1.093
46.8800,1.069
46.9200,0.992
46.9600,0.958
47.0000,0.963
47.0400,0.969
47.0800,1.077
47.1200,0.981
47.1600,1.023
47.2000,0.972
47.2400,0.923
47.2800,0.911
47.3200,0.908
47.3600,0.934
47.4000,0.934
47.4400,0.942
47.4800,0.916
47.5200,0.940
47.5600,0.925
47.6000,0.918
47.6400,0.900
47.6800,0.844
47.7200,0.845
47.7600,0.845
47.8000,0.859
47.8400,0.882
47.8800,0.884
47.9200,0.914
47.9600,0.922
48.0000,0.880
48.0400,0.938
48.0800,0.865
48.1200,0.880
48.1600,0.873
48.2000,0.904
48.2400,0.855
48.2800,0.807
48.3200,0.843
48.3600,0.873
48.4000,0.877
48.4400,0.826
48.4800,0.898
48.5200,0.856
48.5600,0.855
48.6000,0.873
48.6400,0.801
48.6800,0.791
48.7200,0.816
48.7600,0.815
48.8000,0.866
48.8400,0.845
48.8800,0.832
48.9200,0.853
48.9600,0.835
49.0000,0.853
49.0400,0.860
49.0800,0.828
49.1200,0.807
49.1600,0.806
49.2000,0.808
49.2400,0.775
49.2800,0.832
49.3200,0.801
49.3600,0.743
49.4000,0.773
49.4400,0.785
49.4800,0.772
49.5200,0.793
49.5600,0.786
49.6000,0.832
49.6400,0.802
49.6800,0.724
49.7200,0.769
49.7600,0.778
49.8000,0.788
49.8400,0.754
49.8800,0.777
49.9200,0.830
49.9600,0.758
50.0000,0.758
50.0400,0.759
50.0800,0.758
50.1200,0.774
50.1600,0.743
50.2000,0.787
50.2400,0.780
50.2800,0.778
50.3200,0.733
50.3600,0.751
50.4000,0.789
50.4400,0.777
50.4800,0.718
50.5200,0.725
50.5600,0.789
50.6000,0.769
50.6400,0.790
50.6800,0.765
50.7200,0.740
50.7600,0.793
50.8000,0.764
50.8400,0.769
50.8800,0.743
50.9200,0.742
50.9600,0.715
51.0000,0.755
51.0400,0.743
51.0800,0.762
51.1200,0.711
51.1600,0.724
51.2000,0.745
51.2400,0.741
51.2800,0.713
51.3200,0.678
51.3600,0.692
51.4000,0.735
51.4400,0.721
51.4800,0.748
51.5200,0.742
51.5600,0.725
51.6000,0.726
51.6400,0.726
51.6800,0.732
51.7200,0.750
51.7600,0.710
51.8000,0.756
51.8400,0.676
51.8800,0.694
51.9200,0.750
51.9600,0.734
52.0000,0.725
52.0400,0.702
52.0800,0.708
52.1200,0.723
52.1600,0.696
52.2000,0.705
52.2400,0.740
52.2800,0.747
52.3200,0.714
52.3600,0.703
52.4000,0.718
52.4400,0.719
52.4800,0.739
52.5200,0.664
52.5600,0.715
52.6000,0.711
52.6400,0.702
52.6800,0.721
52.7200,0.685
52.7600,0.688
52.8000,0.693
52.8400,0.700
52.8800,0.653
52.9200,0.695
52.9600,0.672
53.0000,0.696
53.0400,0.665
53.0800,0.696
53.1200,0.718
53.1600,0.703
53.2000,0.690
53.2400,0.715
53.2800,0.718
53.3200,0.650
53.3600,0.656
53.4000,0.653
53.4400,0.662
53.4800,0.699
53.5200,0.660
53.5600,0.659
53.6000,0.652
53.6400,0.676
53.6800,0.645
53.7200,0.654
53.7600,0.631
53.8000,0.670
53.8400,0.652
53.8800,0.682
53.9200,0.658
53.9600,0.711
54.0000,0.653
54.0400,0.669
54.0800,0.657
54.1200,0.645
54.1600,0.644
54.2000,0.682
54.2400,0.669
54.2800,0.641
54.3200,0.633
54.3600,0.657
54.4000,0.672
54.4400,0.656
54.4800,0.600
54.5200,0.642
54.5600,0.608
54.6000,0.653
54.6400,0.637
54.6800,0.641
54.7200,0.643
54.7600,0.729
54.8000,0.632
54.8400,0.620
54.8800,0.638
54.9200,0.568
54.9600,0.626
55.0000,0.592
55.0400,0.613
55.0800,0.656
55.1200,0.650
55.1600,0.621
55.2000,0.630
55.2400,0.608
55.2800,0.592
55.3200,0.617
55.3600,0.605
55.4000,0.649
55.4400,0.602
55.4800,0.637
55.5200,0.655
55.5600,0.659
55.6000,0.628
55.6400,0.632
55.6800,0.624
55.7200,0.551
55.7600,0.624
55.8000,0.642
55.8400,0.616
55.8800,0.632
55.9200,0.639
55.9600,0.605
56.0000,0.671
56.0400,0.596
56.0800,0.586
56.1200,0.584
56.1600,0.613
56.2000,0.647
56.2400,0.658
56.2800,0.588
56.3200,0.599
56.3600,0.556
56.4000,0.586
56.4400,0.577
56.4800,0.565
56.5200,0.578
56.5600,0.627
56.6000,0.600
56.6400,0.600
56.6800,0.613
56.7200,0.596
56.7600,0.546
56.8000,0.579
56.8400,0.593
56.8800,0.596
56.9200,0.608
56.9600,0.560
57.0000,0.599
57.0400,0.609
57.0800,0.600
57.1200,0.673
57.1600,0.650
57.2000,0.559
57.2400,0.565
57.2800,0.570
57.3200,0.591
57.3600,0.618
57.4000,0.592
57.4400,0.575
57.4800,0.551
57.5200,0.592
57.5600,0.584
57.6000,0.545
57.6400,0.532
57.6800,0.593
57.7200,0.607
57.7600,0.574
57.8000,0.621
57.8400,0.544
57.8800,0.560
57.9200,0.593
57.9600,0.622
58.0000,0.581
58.0400,0.572
58.0800,0.571
58.1200,0.575
58.1600,0.586
58.2000,0.576
58.2400,0.543
58.2800,0.573
58.3200,0.573
58.3600,0.619
58.4000,0.594
58.4400,0.541
58.4800,0.585
58.5200,0.581
58.5600,0.588
58.6000,0.578
58.6400,0.555
58.6800,0.594
58.7200,0.573
58.7600,0.526
58.8000,0.570
58.8400,0.567
58.8800,0.533
58.9200,0.484
58.9600,0.530
59.0000,0.566
59.0400,0.550
59.0800,0.544
59.1200,0.551
59.1600,0.552
59.2000,0.564
59.2400,0.553
59.2800,0.489
59.3200,0.534
59.3600,0.539
59.4000,0.556
59.4400,0.539
59.4800,0.567
59.5200,0.550
59.5600,0.568
59.6000,0.526
59.6400,0.501
59.6800,0.517
59.7200,0.516
59.7600,0.579
59.8000,0.534
59.8400,0.533
59.8800,0.493
59.9200,0.537
59.9600,0.542
60.0000,0.552
60.0400,0.532
60.0800,0.521
60.1200,0.516
60.1600,0.507
60.2000,0.540
60.2400,0.525
60.2800,0.547
60.3200,0.536
60.3600,0.508
60.4000,0.509
60.4400,0.516
60.4800,0.495
60.5200,0.478
60.5600,0.527
60.6000,0.523
60.6400,0.569
60.6800,0.522
60.7200,0.495
60.7600,0.505
60.8000,0.519
60.8400,0.496
60.8800,0.524
60.9200,0.540
60.9600,0.502
61.0000,0.505
61.0400,0.524
61.0800,0.547
61.1200,0.490
61.1600,0.496
61.2000,0.460
61.2400,0.523
61.2800,0.518
61.3200,0.482
61.3600,0.517
61.4000,0.482
61.4400,0.468
61.4800,0.509
61.5200,0.507
61.5600,0.504
61.6000,0.515
61.6400,0.501
61.6800,0.476
61.7200,0.490
61.7600,0.503
61.8000,0.479
61.8400,0.494
61.8800,0.466
61.9200,0.476
61.9600,0.460
62.0000,0.500
62.0400,0.488
62.0800,0.511
62.1200,0.477
62.1600,0.494
62.2000,0.522
62.2400,0.508
62.2800,0.492
62.3200,0.468
62.3600,0.462
62.4000,0.527
62.4400,0.474
62.4800,0.483
62.5200,0.484
62.5600,0.449
62.6000,0.486
62.6400,0.451
62.6800,0.445
62.7200,0.435
62.7600,0.474
62.8000,0.447
62.8400,0.456
62.8800,0.446
62.9200,0.480
62.9600,0.459
63.0000,0.461
63.0400,0.483
63.0800,0.483
63.1200,0.498
63.1600,0.491
63.2000,0.453
63.2400,0.442
63.2800,0.465
63.3200,0.458
63.3600,0.450
63.4000,0.465
63.4400,0.469
63.4800,0.488
63.5200,0.460
63.5600,0.504
63.6000,0.491
63.6400,0.478
63.6800,0.516
63.7200,0.451
63.7600,0.524
63.8000,0.464
63.8400,0.469
63.8800,0.497
63.9200,0.527
63.9600,0.492
64.0000,0.503
64.0400,0.511
64.0800,0.453
64.1200,0.471
64.1600,0.493
64.2000,0.514
64.2400,0.473
64.2800,0.480
64.3200,0.505
64.3600,0.516
64.4000,0.537
64.4400,0.553
64.4800,0.551
64.5200,0.532
64.5600,0.563
64.6000,0.584
64.6400,0.549
64.6800,0.520
64.7200,0.544
64.7600,0.590
64.8000,0.612
64.8400,0.583
64.8800,0.661
64.9200,0.623
64.9600,0.685
65.0000,0.672
65.0400,0.656
65.0800,0.641
65.1200,0.679
65.1600,0.690
65.2000,0.686
65.2400,0.698
65.2800,0.744
65.3200,0.724
65.3600,0.836
65.4000,0.783
65.4400,0.899
65.4800,0.886
65.5200,0.947
65.5600,1.002
65.6000,1.020
65.6400,1.037
65.6800,1.129
65.7200,1.249
65.7600,1.276
65.8000,1.384
65.8400,1.470
65.8800,1.587
65.9200,1.738
65.9600,1.729
66.0000,1.897
66.0400,2.042
66.0800,2.072
66.1200,2.089
66.1600,2.224
66.2000,2.266
66.2400,2.233
66.2800,2.109
66.3200,1.990
66.3600,1.962
66.4000,1.918
66.4400,1.786
66.4800,1.630
66.5200,1.549
66.5600,1.484
66.6000,1.302
66.6400,1.248
66.6800,1.187
66.7200,1.075
66.7600,0.990
66.8000,0.969
66.8400,0.907
66.8800,0.813
66.9200,0.807
66.9600,0.781
67.0000,0.728
67.0400,0.750
67.0800,0.690
67.1200,0.657
67.1600,0.637
67.2000,0.597
67.2400,0.603
67.2800,0.597
67.3200,0.570
67.3600,0.570
67.4000,0.529
67.4400,0.567
67.4800,0.548
67.5200,0.525
67.5600,0.491
67.6000,0.513
67.6400,0.514
67.6800,0.494
67.7200,0.445
67.7600,0.503
67.8000,0.484
67.8400,0.473
67.8800,0.477
67.9200,0.445
67.9600,0.491
68.0000,0.438
68.0400,0.448
68.0800,0.460
68.1200,0.475
68.1600,0.432
68.2000,0.465
68.2400,0.416
68.2800,0.467
68.3200,0.404
68.3600,0.435
68.4000,0.411
68.4400,0.415
68.4800,0.412
68.5200,0.415
68.5600,0.448
68.6000,0.412
68.6400,0.408
68.6800,0.391
68.7200,0.390
68.7600,0.411
68.8000,0.418
68.8400,0.396
68.8800,0.398
68.9200,0.381
68.9600,0.378
69.0000,0.375
69.0400,0.390
69.0800,0.410
69.1200,0.396
69.1600,0.422
69.2000,0.411
69.2400,0.437
69.2800,0.411
69.3200,0.397
69.3600,0.361
69.4000,0.357
69.4400,0.364
69.4800,0.374
69.5200,0.364
69.5600,0.399
69.6000,0.385
69.6400,0.372
69.6800,0.360
69.7200,0.357
69.7600,0.401
69.8000,0.357
69.8400,0.349
69.8800,0.386
69.9200,0.372
69.9600,0.365
70.0000,0.356
70.0400,0.397
70.0800,0.375
70.1200,0.400
70.1600,0.351
70.2000,0.364
70.2400,0.344
70.2800,0.375
70.3200,0.363
70.3600,0.361
70.4000,0.372
70.4400,0.356
70.4800,0.372
70.5200,0.376
70.5600,0.348
70.6000,0.347
70.6400,0.375
70.6800,0.317
70.7200,0.334
70.7600,0.362
70.8000,0.361
70.8400,0.364
70.8800,0.383
70.9200,0.354
70.9600,0.341
71.0000,0.311
71.0400,0.374
71.0800,0.376
71.1200,0.364
71.1600,0.352
71.2000,0.355
71.2400,0.329
71.2800,0.330
71.3200,0.361
71.3600,0.390
71.4000,0.339
71.4400,0.385
71.4800,0.364
71.5200,0.333
71.5600,0.327
71.6000,0.343
71.6400,0.339
71.6800,0.348
71.7200,0.353
71.7600,0.361
71.8000,0.370
71.8400,0.337
71.8800,0.360
71.9200,0.381
71.9600,0.291
72.0000,0.333
72.0400,0.311
72.0800,0.360
72.1200,0.334
72.1600,0.371
72.2000,0.343
72.2400,0.392
72.2800,0.358
72.3200,0.385
72.3600,0.351
72.4000,0.318
72.4400,0.325
72.4800,0.374
72.5200,0.341
72.5600,0.342
72.6000,0.325
72.6400,0.338
72.6800,0.332
72.7200,0.336
72.7600,0.334
72.8000,0.364
72.8400,0.325
72.8800,0.303
72.9200,0.317
72.9600,0.322
73.0000,0.338
73.0400,0.320
73.0800,0.365
73.1200,0.316
73.1600,0.341
73.2000,0.312
73.2400,0.328
73.2800,0.338
73.3200,0.339
73.3600,0.303
73.4000,0.315
73.4400,0.287
73.4800,0.332
73.5200,0.353
73.5600,0.306
73.6000,0.300
73.6400,0.330
73.6800,0.304
73.7200,0.326
73.7600,0.327
73.8000,0.313
73.8400,0.311
73.8800,0.318
73.9200,0.294
73.9600,0.364
74.0000,0.322
74.0400,0.340
74.0800,0.342
74.1200,0.320
74.1600,0.301
74.2000,0.344
74.2400,0.309
74.2800,0.343
74.3200,0.310
74.3600,0.358
74.4000,0.283
74.4400,0.301
74.4800,0.342
74.5200,0.325
74.5600,0.311
74.6000,0.299
74.6400,0.306
74.6800,0.332
74.7200,0.295
74.7600,0.280
74.8000,0.311
74.8400,0.313
74.8800,0.311
74.9200,0.348
74.9600,0.297
75.0000,0.301
75.0400,0.356
75.0800,0.317
75.1200,0.335
75.1600,0.334
75.2000,0.323
75.2400,0.314
75.2800,0.314
75.3200,0.316
75.3600,0.341
75.4000,0.352
75.4400,0.338
75.4800,0.311
75.5200,0.345
75.5600,0.338
75.6000,0.325
75.6400,0.321
75.6800,0.329
75.7200,0.308
75.7600,0.313
75.8000,0.316
75.8400,0.306
75.8800,0.328
75.9200,0.337
75.9600,0.310
76.0000,0.308
76.0400,0.327
76.0800,0.316
76.1200,0.350
76.1600,0.356
76.2000,0.268
76.2400,0.341
76.2800,0.330
76.3200,0.325
76.3600,0.322
76.4000,0.353
76.4400,0.319
76.4800,0.382
76.5200,0.333
76.5600,0.379
76.6000,0.322
76.6400,0.314
76.6800,0.332
76.7200,0.335
76.7600,0.333
76.8000,0.350
76.8400,0.349
76.8800,0.371
76.9200,0.337
76.9600,0.375
77.0000,0.376
77.0400,0.341
77.0800,0.325
77.1200,0.343
77.1600,0.365
77.2000,0.355
77.2400,0.360
77.2800,0.368
77.3200,0.340
77.3600,0.401
77.4000,0.385
77.4400,0.367
77.4800,0.398
77.5200,0.372
77.5600,0.402
77.6000,0.443
77.6400,0.426
77.6800,0.405
77.7200,0.450
77.7600,0.446
77.8000,0.406
77.8400,0.407
77.8800,0.429
77.9200,0.447
77.9600,0.464
78.0000,0.474
78.0400,0.446
78.0800,0.467
78.1200,0.495
78.1600,0.471
78.2000,0.490
78.2400,0.459
78.2800,0.534
78.3200,0.546
78.3600,0.500
78.4000,0.531
78.4400,0.565
78.4800,0.592
78.5200,0.579
78.5600,0.630
78.6000,0.626
78.6400,0.640
78.6800,0.654
78.7200,0.663
78.7600,0.720
78.8000,0.748
78.8400,0.796
78.8800,0.811
78.9200,0.840
78.9600,0.857
79.0000,0.915
79.0400,0.951
79.0800,0.988
79.1200,1.101
79.1600,1.179
79.2000,1.253
79.2400,1.250
79.2800,1.448
79.3200,1.511
79.3600,1.557
79.4000,1.548
79.4400,1.704
79.4800,1.697
79.5200,1.873
79.5600,1.917
79.6000,1.814
79.6400,1.828
79.6800,1.790
79.7200,1.736
79.7600,1.699
79.8000,1.676
79.8400,1.628
79.8800,1.497
79.9200,1.446
79.9600,1.457
80.0000,1.319
