theta,intensity
5.0000,5.068
5.0400,5.123
5.0800,5.128
5.1200,5.104
5.1600,4.960
5.2000,4.829
5.2400,4.976
5.2800,4.808
5.3200,4.948
5.3600,4.927
5.4000,5.048
5.4400,4.825
5.4800,5.004
5.5200,4.696
5.5600,4.884
5.6000,4.802
5.6400,4.860
5.6800,4.836
5.7200,4.903
5.7600,4.893
5.8000,4.903
5.8400,4.823
5.8800,4.607
5.9200,4.724
5.9600,4.556
6.0000,4.524
6.0400,4.553
6.0800,4.726
6.1200,4.538
6.1600,4.414
6.2000,4.338
6.2400,4.411
6.2800,4.307
6.3200,4.336
6.3600,4.182
6.4000,4.300
6.4400,4.072
6.4800,4.035
6.5200,4.170
6.5600,3.977
6.6000,4.161
6.6400,4.203
6.6800,4.090
6.7200,4.170
6.7600,4.037
6.8000,3.933
6.8400,4.121
6.8800,4.118
6.9200,3.981
6.9600,4.092
7.0000,3.973
7.0400,4.028
7.0800,4.016
7.1200,3.974
7.1600,4.022
7.2000,3.887
7.2400,4.085
7.2800,3.961
7.3200,4.215
7.3600,3.890
7.4000,3.965
7.4400,3.800
7.4800,4.012
7.5200,4.094
7.5600,3.983
7.6000,3.995
7.6400,3.920
7.6800,3.712
7.7200,3.821
7.7600,3.799
7.8000,3.881
7.8400,3.896
7.8800,4.064
7.9200,3.968
7.9600,3.802
8.0000,3.839
8.0400,3.885
8.0800,3.700
8.1200,3.732
8.1600,3.875
8.2000,3.798
8.2400,3.867
8.2800,3.799
8.3200,3.803
8.3600,3.911
8.4000,3.846
8.4400,3.864
8.4800,3.760
8.5200,3.927
8.5600,3.848
8.6000,3.762
8.6400,3.912
8.6800,3.842
8.7200,3.817
8.7600,3.822
8.8000,3.812
8.8400,3.798
8.8800,3.830
8.9200,3.917
8.9600,3.942
9.0000,3.825
9.0400,3.832
9.0800,3.807
9.1200,3.857
9.1600,3.679
9.2000,3.561
9.2400,3.756
9.2800,3.802
9.3200,3.670
9.3600,3.774
9.4000,3.893
9.4400,3.784
9.4800,3.720
9.5200,3.729
9.5600,3.678
9.6000,3.743
9.6400,3.587
9.6800,3.707
9.7200,3.634
9.7600,3.703
9.8000,3.761
9.8400,3.672
9.8800,3.723
9.9200,3.598
9.9600,3.857
10.0000,3.655
10.0400,3.685
10.0800,3.722
10.1200,3.740
10.1600,3.652
10.2000,3.660
10.2400,3.718
10.2800,3.746
10.3200,3.655
10.3600,3.447
10.4000,3.668
10.4400,3.650
10.4800,3.659
10.5200,3.625
10.5600,3.709
10.6000,3.766
10.6400,3.642
10.6800,3.637
10.7200,3.547
10.7600,3.611
10.8000,3.621
10.8400,3.564
10.8800,3.675
10.9200,3.628
10.9600,3.686
11.0000,3.578
11.0400,3.655
11.0800,3.762
11.1200,3.688
11.1600,3.589
11.2000,3.503
11.2400,3.512
11.2800,3.462
11.3200,3.506
11.3600,3.476
11.4000,3.432
11.4400,3.523
11.4800,3.607
11.5200,3.511
11.5600,3.624
11.6000,3.521
11.6400,3.410
11.6800,3.481
11.7200,3.530
11.7600,3.616
11.8000,3.569
11.8400,3.417
11.8800,3.531
11.9200,3.492
11.9600,3.446
12.0000,3.486
12.0400,3.561
12.0800,3.464
12.1200,3.484
12.1600,3.375
12.2000,3.404
12.2400,3.424
12.2800,3.349
12.3200,3.534
12.3600,3.487
12.4000,3.454
12.4400,3.375
12.4800,3.427
12.5200,3.466
12.5600,3.473
12.6000,3.370
12.6400,3.562
12.6800,3.567
12.7200,3.448
12.7600,3.367
12.8000,3.399
12.8400,3.513
12.8800,3.537
12.9200,3.455
12.9600,3.454
13.0000,3.367
13.0400,3.443
13.0800,3.450
13.1200,3.396
13.1600,3.341
13.2000,3.288
13.2400,3.289
13.2800,3.300
13.3200,3.331
13.3600,3.323
13.4000,3.409
13.4400,3.339
13.4800,3.352
13.5200,3.422
13.5600,3.209
13.6000,3.395
13.6400,3.345
13.6800,3.450
13.7200,3.238
13.7600,3.291
13.8000,3.327
13.8400,3.184
13.8800,3.367
13.9200,3.304
13.9600,3.269
14.0000,3.291
14.0400,3.271
14.0800,3.269
14.1200,3.225
14.1600,3.355
14.2000,3.159
14.2400,3.360
14.2800,3.276
14.3200,3.115
14.3600,3.322
14.4000,3.175
14.4400,3.135
14.4800,3.316
14.5200,3.138
14.5600,3.189
14.6000,3.241
14.6400,3.268
14.6800,3.236
14.7200,3.273
14.7600,3.223
14.8000,3.292
14.8400,3.248
14.8800,3.212
14.9200,3.253
14.9600,3.188
15.0000,3.214
15.0400,3.321
15.0800,3.291
15.1200,3.311
15.1600,3.201
15.2000,3.185
15.2400,3.254
15.2800,3.232
15.3200,3.220
15.3600,3.220
15.4000,3.209
15.4400,3.154
15.4800,3.203
15.5200,3.231
15.5600,3.193
15.6000,3.195
15.6400,3.092
15.6800,3.102
15.7200,3.067
15.7600,3.042
15.8000,3.146
15.8400,3.141
15.8800,3.109
15.9200,3.017
15.9600,3.193
16.0000,3.188
16.0400,3.100
16.0800,3.042
16.1200,3.020
16.1600,3.111
16.2000,3.122
16.2400,3.113
16.2800,3.075
16.3200,3.007
16.3600,2.976
16.4000,3.125
16.4400,3.006
16.4800,3.009
16.5200,3.289
16.5600,2.990
16.6000,3.165
16.6400,3.000
16.6800,3.059
16.7200,3.038
16.7600,3.161
16.8000,2.854
16.8400,3.071
16.8800,3.043
16.9200,2.971
16.9600,2.955
17.0000,2.971
17.0400,3.106
17.0800,2.934
17.1200,2.990
17.1600,3.009
17.2000,3.028
17.2400,2.961
17.2800,2.916
17.3200,2.962
17.3600,3.059
17.4000,2.975
17.4400,2.995
17.4800,3.089
17.5200,3.023
17.5600,2.946
17.6000,3.019
17.6400,2.955
17.6800,3.011
17.7200,2.917
17.7600,2.939
17.8000,2.929
17.8400,2.903
17.8800,2.924
17.9200,2.887
17.9600,2.970
18.0000,3.042
18.0400,2.960
18.0800,2.890
18.1200,2.872
18.1600,3.019
18.2000,2.903
18.2400,2.980
18.2800,3.062
18.3200,2.882
18.3600,2.887
18.4000,2.933
18.4400,2.885
18.4800,3.004
18.5200,2.910
18.5600,2.930
18.6000,2.920
18.6400,2.860
18.6800,2.761
18.7200,2.777
18.7600,2.775
18.8000,2.891
18.8400,2.863
18.8800,2.829
18.9200,2.886
18.9600,2.794
19.0000,2.840
19.0400,2.775
19.0800,2.805
19.1200,2.937
19.1600,2.848
19.2000,2.826
19.2400,2.829
19.2800,2.817
19.3200,2.714
19.3600,2.787
19.4000,2.766
19.4400,2.803
19.4800,2.673
19.5200,2.758
19.5600,2.838
19.6000,2.966
19.6400,2.781
19.6800,2.825
19.7200,2.705
19.7600,2.755
19.8000,2.812
19.8400,2.796
19.8800,2.758
19.9200,2.894
19.9600,2.726
20.0000,2.708
20.0400,2.752
20.0800,2.823
20.1200,2.811
20.1600,2.820
20.2000,2.672
20.2400,2.780
20.2800,2.645
20.3200,2.636
20.3600,2.742
20.4000,2.724
20.4400,2.720
20.4800,2.781
20.5200,2.797
20.5600,2.736
20.6000,2.695
20.6400,2.722
20.6800,2.801
20.7200,2.719
20.7600,2.623
20.8000,2.679
20.8400,2.647
20.8800,2.820
20.9200,2.604
20.9600,2.657
21.0000,2.686
21.0400,2.632
21.0800,2.703
21.1200,2.665
21.1600,2.681
21.2000,2.657
21.2400,2.573
21.2800,2.457
21.3200,2.611
21.3600,2.660
21.4000,2.635
21.4400,2.639
21.4800,2.571
21.5200,2.600
21.5600,2.615
21.6000,2.612
21.6400,2.541
21.6800,2.587
21.7200,2.576
21.7600,2.625
21.8000,2.863
21.8400,2.557
21.8800,2.644
21.9200,2.642
21.9600,2.562
22.0000,2.597
22.0400,2.554
22.0800,2.655
22.1200,2.621
22.1600,2.627
22.2000,2.548
22.2400,2.614
22.2800,2.556
22.3200,2.531
22.3600,2.589
22.4000,2.451
22.4400,2.506
22.4800,2.442
22.5200,2.585
22.5600,2.569
22.6000,2.449
22.6400,2.589
22.6800,2.601
22.7200,2.533
22.7600,2.643
22.8000,2.500
22.8400,2.584
22.8800,2.560
22.9200,2.493
22.9600,2.626
23.0000,2.507
23.0400,2.467
23.0800,2.464
23.1200,2.438
23.1600,2.558
23.2000,2.488
23.2400,2.500
23.2800,2.641
23.3200,2.457
23.3600,2.520
23.4000,2.484
23.4400,2.512
23.4800,2.523
23.5200,2.686
23.5600,2.613
23.6000,2.754
23.6400,2.902
23.6800,2.861
23.7200,2.864
23.7600,2.954
23.8000,2.755
23.8400,2.628
23.8800,2.687
23.9200,2.596
23.9600,2.536
24.0000,2.580
24.0400,2.494
24.0800,2.556
24.1200,2.470
24.1600,2.497
24.2000,2.375
24.2400,2.385
24.2800,2.477
24.3200,2.354
24.3600,2.411
24.4000,2.429
24.4400,2.460
24.4800,2.388
24.5200,2.444
24.5600,2.332
24.6000,2.363
24.6400,2.361
24.6800,2.347
24.7200,2.466
24.7600,2.450
24.8000,2.423
24.8400,2.325
24.8800,2.263
24.9200,2.440
24.9600,2.351
25.0000,2.369
25.0400,2.309
25.0800,2.349
25.1200,2.269
25.1600,2.294
25.2000,2.302
25.2400,2.277
25.2800,2.259
25.3200,2.294
25.3600,2.279
25.4000,2.372
25.4400,2.370
25.4800,2.228
25.5200,2.282
25.5600,2.454
25.6000,2.331
25.6400,2.246
25.6800,2.274
25.7200,2.245
25.7600,2.374
25.8000,2.280
25.8400,2.223
25.8800,2.203
25.9200,2.263
25.9600,2.180
26.0000,2.256
26.0400,2.144
26.0800,2.245
26.1200,2.257
26.1600,2.313
26.2000,2.403
26.2400,2.273
26.2800,2.251
26.3200,2.315
26.3600,2.347
26.4000,2.135
26.4400,2.175
26.4800,2.201
26.5200,2.225
26.5600,2.148
26.6000,2.214
26.6400,2.321
26.6800,2.208
26.7200,2.192
26.7600,2.097
26.8000,2.273
26.8400,2.260
26.8800,2.203
26.9200,2.250
26.9600,2.255
27.0000,2.208
27.0400,2.274
27.0800,2.193
27.1200,2.112
27.1600,2.219
27.2000,2.320
27.2400,2.191
27.2800,2.295
27.3200,2.090
27.3600,2.204
27.4000,2.228
27.4400,2.323
27.4800,2.189
27.5200,2.174
27.5600,2.108
27.6000,2.195
27.6400,2.277
27.6800,2.245
27.7200,2.182
27.7600,2.137
27.8000,2.270
27.8400,2.252
27.8800,2.325
27.9200,2.211
27.9600,2.292
28.0000,2.172
28.0400,2.257
28.0800,2.204
28.1200,2.298
28.1600,2.317
28.2000,2.434
28.2400,2.435
28.2800,2.540
28.3200,2.704
28.3600,2.848
28.4000,3.109
28.4400,3.265
28.4800,3.840
28.5200,4.529
28.5600,5.089
28.6000,5.307
28.6400,5.551
28.6800,5.509
28.7200,5.247
28.7600,4.637
28.8000,4.307
28.8400,3.924
28.8800,3.378
28.9200,3.139
28.9600,2.750
29.0000,2.696
29.0400,2.467
29.0800,2.263
29.1200,2.424
29.1600,2.195
29.2000,2.227
29.2400,2.151
29.2800,2.182
29.3200,2.245
29.3600,2.157
29.4000,2.131
29.4400,2.094
29.4800,1.989
29.5200,2.135
29.5600,2.093
29.6000,2.045
29.6400,2.037
29.6800,2.034
29.7200,2.007
29.7600,1.929
29.8000,2.021
29.8400,1.987
29.8800,1.922
29.9200,1.914
29.9600,1.991
30.0000,1.963
30.0400,2.041
30.0800,1.923
30.1200,1.893
30.1600,1.928
30.2000,1.857
30.2400,1.871
30.2800,1.925
30.3200,1.897
30.3600,1.902
30.4000,1.885
30.4400,1.943
30.4800,1.967
30.5200,1.947
30.5600,1.920
30.6000,1.937
30.6400,1.878
30.6800,1.944
30.7200,1.818
30.7600,1.901
30.8000,1.984
30.8400,1.962
30.8800,1.903
30.9200,1.927
30.9600,1.833
31.0000,1.962
31.0400,1.960
31.0800,1.893
31.1200,2.029
31.1600,1.976
31.2000,1.958
31.2400,2.027
31.2800,2.066
31.3200,1.954
31.3600,1.903
31.4000,1.915
31.4400,1.992
31.4800,2.044
31.5200,2.001
31.5600,2.081
31.6000,2.057
31.6400,1.997
31.6800,2.122
31.7200,2.116
31.7600,2.075
31.8000,2.046
31.8400,2.045
31.8800,2.085
31.9200,2.077
31.9600,2.042
32.0000,2.023
32.0400,2.111
32.0800,2.014
32.1200,1.961
32.1600,1.994
32.2000,1.963
32.2400,1.862
32.2800,1.902
32.3200,1.979
32.3600,1.870
32.4000,1.952
32.4400,1.953
32.4800,1.822
32.5200,1.878
32.5600,1.817
32.6000,1.834
32.6400,1.843
32.6800,1.833
32.7200,1.810
32.7600,1.829
32.8000,1.836
32.8400,1.755
32.8800,1.717
32.9200,1.807
32.9600,1.791
33.0000,1.841
33.0400,1.741
33.0800,1.792
33.1200,1.814
33.1600,1.791
33.2000,1.817
33.2400,1.817
33.2800,1.725
33.3200,1.713
33.3600,1.775
33.4000,1.670
33.4400,1.794
33.4800,1.871
33.5200,1.773
33.5600,1.765
33.6000,1.759
33.6400,1.798
33.6800,1.719
33.7200,1.739
33.7600,1.823
33.8000,1.802
33.8400,1.791
33.8800,1.709
33.9200,1.907
33.9600,1.847
34.0000,1.828
34.0400,1.848
34.0800,1.844
34.1200,1.832
34.1600,1.829
34.2000,1.793
34.2400,1.836
34.2800,1.787
34.3200,1.895
34.3600,1.854
34.4000,1.890
34.4400,1.801
34.4800,1.911
34.5200,1.910
34.5600,1.876
34.6000,1.847
34.6400,1.779
34.6800,1.905
34.7200,1.801
34.7600,1.728
34.8000,1.801
34.8400,1.819
34.8800,1.789
34.9200,1.751
34.9600,1.777
35.0000,1.816
35.0400,1.722
35.0800,1.725
35.1200,1.653
35.1600,1.722
35.2000,1.664
35.2400,1.746
35.2800,1.754
35.3200,1.743
35.3600,1.728
35.4000,1.813
35.4400,1.710
35.4800,1.659
35.5200,1.688
35.5600,1.708
35.6000,1.748
35.6400,1.834
35.6800,1.791
35.7200,1.692
35.7600,1.878
35.8000,1.819
35.8400,1.858
35.8800,1.774
35.9200,1.800
35.9600,1.882
36.0000,1.783
36.0400,1.912
36.0800,1.937
36.1200,1.949
36.1600,1.895
36.2000,1.866
36.2400,1.805
36.2800,1.910
36.3200,1.926
36.3600,1.783
36.4000,1.880
36.4400,1.966
36.4800,1.815
36.5200,1.840
36.5600,1.829
36.6000,1.797
36.6400,1.796
36.6800,1.869
36.7200,1.833
36.7600,1.721
36.8000,1.809
36.8400,1.837
36.8800,1.748
36.9200,1.670
36.9600,1.727
37.0000,1.691
37.0400,1.609
37.0800,1.584
37.1200,1.588
37.1600,1.606
37.2000,1.626
37.2400,1.575
37.2800,1.674
37.3200,1.593
37.3600,1.478
37.4000,1.552
37.4400,1.554
37.4800,1.567
37.5200,1.631
37.5600,1.612
37.6000,1.549
37.6400,1.491
37.6800,1.450
37.7200,1.530
37.7600,1.462
37.8000,1.474
37.8400,1.513
37.8800,1.363
37.9200,1.461
37.9600,1.495
38.0000,1.511
38.0400,1.506
38.0800,1.477
38.1200,1.557
38.1600,1.568
38.2000,1.504
38.2400,1.477
38.2800,1.503
38.3200,1.471
38.3600,1.446
38.4000,1.427
38.4400,1.412
38.4800,1.470
38.5200,1.450
38.5600,1.495
38.6000,1.494
38.6400,1.504
38.6800,1.450
38.7200,1.410
38.7600,1.426
38.8000,1.409
38.8400,1.404
38.8800,1.427
38.9200,1.403
38.9600,1.552
39.0000,1.446
39.0400,1.523
39.0800,1.395
39.1200,1.443
39.1600,1.403
39.2000,1.381
39.2400,1.501
39.2800,1.563
39.3200,1.561
39.3600,1.470
39.4000,1.531
39.4400,1.453
39.4800,1.565
39.5200,1.539
39.5600,1.514
39.6000,1.481
39.6400,1.523
39.6800,1.498
39.7200,1.466
39.7600,1.506
39.8000,1.516
39.8400,1.552
39.8800,1.580
39.9200,1.628
39.9600,1.696
40.0000,1.694
40.0400,1.662
40.0800,1.821
40.1200,1.763
40.1600,1.747
40.2000,1.848
40.2400,1.912
40.2800,1.961
40.3200,2.100
40.3600,2.158
40.4000,2.324
40.4400,2.570
40.4800,2.784
40.5200,3.159
40.5600,3.474
40.6000,4.219
40.6400,5.290
40.6800,6.608
40.7200,8.306
40.7600,9.792
40.8000,11.532
40.8400,12.920
40.8800,13.616
40.9200,13.479
40.9600,12.418
41.0000,10.751
41.0400,9.095
41.0800,7.291
41.1200,5.788
41.1600,4.878
41.2000,4.180
41.2400,3.471
41.2800,3.282
41.3200,2.812
41.3600,2.861
41.4000,2.788
41.4400,2.875
41.4800,2.875
41.5200,3.036
41.5600,3.368
41.6000,3.481
41.6400,3.726
41.6800,3.571
41.7200,3.533
41.7600,3.270
41.8000,2.986
41.8400,2.784
41.8800,2.353
41.9200,2.177
41.9600,1.975
42.0000,1.927
42.0400,1.688
42.0800,1.587
42.1200,1.595
42.1600,1.495
42.2000,1.425
42.2400,1.464
42.2800,1.456
42.3200,1.439
42.3600,1.354
42.4000,1.285
42.4400,1.275
42.4800,1.337
42.5200,1.250
42.5600,1.275
42.6000,1.334
42.6400,1.291
42.6800,1.242
42.7200,1.246
42.7600,1.193
42.8000,1.202
42.8400,1.210
42.8800,1.313
42.9200,1.234
42.9600,1.220
43.0000,1.219
43.0400,1.199
43.0800,1.290
43.1200,1.194
43.1600,1.159
43.2000,1.173
43.2400,1.236
43.2800,1.111
43.3200,1.176
43.3600,1.187
43.4000,1.144
43.4400,1.151
43.4800,1.169
43.5200,1.108
43.5600,1.139
43.6000,1.157
43.6400,1.104
43.6800,1.167
43.7200,1.122
43.7600,1.175
43.8000,1.079
43.8400,1.082
43.8800,1.112
43.9200,1.070
43.9600,1.139
44.0000,1.204
44.0400,1.077
44.0800,1.122
44.1200,1.070
44.1600,1.074
44.2000,1.031
44.2400,1.162
44.2800,1.140
44.3200,1.080
44.3600,1.069
44.4000,1.120
44.4400,1.098
44.4800,1.138
44.5200,1.048
44.5600,0.998
44.6000,1.084
44.6400,1.052
44.6800,1.077
44.7200,1.064
44.7600,1.125
44.8000,1.039
44.8400,1.029
44.8800,1.030
44.9200,1.029
44.9600,1.049
45.0000,1.036
45.0400,1.017
45.0800,1.062
45.1200,1.079
45.1600,1.064
45.2000,1.079
45.2400,1.056
45.2800,1.029
45.3200,1.024
45.3600,0.947
45.4000,1.044
45.4400,1.049
45.4800,1.003
45.5200,1.050
45.5600,0.988
45.6000,1.013
45.6400,1.022
45.6800,1.032
45.7200,0.990
45.7600,0.976
45.8000,1.013
45.8400,1.056
45.8800,1.069
45.9200,0.968
45.9600,1.014
46.0000,0.975
46.0400,1.006
46.0800,1.024
46.1200,1.036
46.1600,1.074
46.2000,1.003
46.2400,1.066
46.2800,1.074
46.3200,1.059
46.3600,1.003
46.4000,0.944
46.4400,1.010
46.4800,1.041
46.5200,1.049
46.5600,0.988
46.6000,0.974
46.6400,0.989
46.6800,1.040
46.7200,0.999
46.7600,0.974
46.8000,0.992
46.8400,1.003
46.8800,0.937
46.9200,0.942
46.9600,0.999
47.0000,0.987
47.0400,0.885
47.0800,1.018
47.1200,0.948
47.1600,0.956
47.2000,1.022
47.2400,0.979
47.2800,0.982
47.3200,0.956
47.3600,0.934
47.4000,0.959
47.4400,0.988
47.4800,0.963
47.5200,0.970
47.5600,0.952
47.6000,0.915
47.6400,0.945
47.6800,0.990
47.7200,0.971
47.7600,0.991
47.8000,0.924
47.8400,0.966
47.8800,0.962
47.9200,0.949
47.9600,0.899
48.0000,0.938
48.0400,0.883
48.0800,0.894
48.1200,0.943
48.1600,0.910
48.2000,0.954
48.2400,1.006
48.2800,1.001
48.3200,0.928
48.3600,0.962
48.4000,0.902
48.4400,1.052
48.4800,0.936
48.5200,0.914
48.5600,0.961
48.6000,0.955
48.6400,0.978
48.6800,1.002
48.7200,0.912
48.7600,0.949
48.8000,0.897
48.8400,0.931
48.8800,0.947
48.9200,0.891
48.9600,0.962
49.0000,0.938
49.0400,0.912
49.0800,0.882
49.1200,0.917
49.1600,0.847
49.2000,0.916
49.2400,0.927
49.2800,0.921
49.3200,0.870
49.3600,0.884
49.4000,0.888
49.4400,0.901
49.4800,0.931
49.5200,0.896
49.5600,0.895
49.6000,0.937
49.6400,0.925
49.6800,0.900
49.7200,0.822
49.7600,0.822
49.8000,0.893
49.8400,0.852
49.8800,0.951
49.9200,0.880
49.9600,0.982
50.0000,0.900
50.0400,0.864
50.0800,0.864
50.1200,0.911
50.1600,0.965
50.2000,0.921
50.2400,0.920
50.2800,0.991
50.3200,1.032
50.3600,1.090
50.4000,1.192
50.4400,1.257
50.4800,1.399
50.5200,1.508
50.5600,1.625
50.6000,1.641
50.6400,1.628
50.6800,1.463
50.7200,1.391
50.7600,1.315
50.8000,1.265
50.8400,1.170
50.8800,1.144
50.9200,0.985
50.9600,0.978
51.0000,0.955
51.0400,0.943
51.0800,0.898
51.1200,0.888
51.1600,0.884
51.2000,0.913
51.2400,0.858
51.2800,0.842
51.3200,0.848
51.3600,0.903
51.4000,0.787
51.4400,0.818
51.4800,0.813
51.5200,0.902
51.5600,0.825
51.6000,0.839
51.6400,0.900
51.6800,0.842
51.7200,0.808
51.7600,0.798
51.8000,0.858
51.8400,0.866
51.8800,0.788
51.9200,0.786
51.9600,0.822
52.0000,0.801
52.0400,0.813
52.0800,0.809
52.1200,0.824
52.1600,0.758
52.2000,0.849
52.2400,0.777
52.2800,0.805
52.3200,0.867
52.3600,0.804
52.4000,0.768
52.4400,0.811
52.4800,0.769
52.5200,0.811
52.5600,0.799
52.6000,0.745
52.6400,0.811
52.6800,0.746
52.7200,0.807
52.7600,0.764
52.8000,0.780
52.8400,0.800
52.8800,0.737
52.9200,0.767
52.9600,0.729
53.0000,0.770
53.0400,0.738
53.0800,0.759
53.1200,0.739
53.1600,0.737
53.2000,0.764
53.2400,0.757
53.2800,0.725
53.3200,0.746
53.3600,0.774
53.4000,0.733
53.4400,0.784
53.4800,0.748
53.5200,0.731
53.5600,0.748
53.6000,0.810
53.6400,0.713
53.6800,0.718
53.7200,0.726
53.7600,0.737
53.8000,0.722
53.8400,0.720
53.8800,0.703
53.9200,0.709
53.9600,0.706
54.0000,0.718
54.0400,0.739
54.0800,0.699
54.1200,0.723
54.1600,0.788
54.2000,0.686
54.2400,0.695
54.2800,0.711
54.3200,0.695
54.3600,0.731
54.4000,0.727
54.4400,0.706
54.4800,0.799
54.5200,0.762
54.5600,0.719
54.6000,0.741
54.6400,0.774
54.6800,0.712
54.7200,0.663
54.7600,0.696
54.8000,0.753
54.8400,0.733
54.8800,0.705
54.9200,0.827
54.9600,0.699
55.0000,0.714
55.0400,0.690
55.0800,0.759
55.1200,0.729
55.1600,0.716
55.2000,0.721
55.2400,0.745
55.2800,0.722
55.3200,0.716
55.3600,0.753
55.4000,0.717
55.4400,0.727
55.4800,0.714
55.5200,0.729
55.5600,0.717
55.6000,0.702
55.6400,0.782
55.6800,0.773
55.7200,0.733
55.7600,0.694
55.8000,0.725
55.8400,0.769
55.8800,0.693
55.9200,0.719
55.9600,0.748
56.0000,0.719
56.0400,0.689
56.0800,0.678
56.1200,0.701
56.1600,0.764
56.2000,0.741
56.2400,0.756
56.2800,0.722
56.3200,0.732
56.3600,0.767
56.4000,0.833
56.4400,0.764
56.4800,0.753
56.5200,0.781
56.5600,0.789
56.6000,0.745
56.6400,0.718
56.6800,0.783
56.7200,0.771
56.7600,0.768
56.8000,0.785
56.8400,0.767
56.8800,0.792
56.9200,0.777
56.9600,0.776
57.0000,0.784
57.0400,0.801
57.0800,0.770
57.1200,0.837
57.1600,0.809
57.2000,0.737
57.2400,0.724
57.2800,0.714
57.3200,0.696
57.3600,0.707
57.4000,0.731
57.4400,0.737
57.4800,0.709
57.5200,0.719
57.5600,0.692
57.6000,0.714
57.6400,0.712
57.6800,0.784
57.7200,0.683
57.7600,0.691
57.8000,0.751
57.8400,0.741
57.8800,0.671
57.9200,0.707
57.9600,0.672
58.0000,0.716
58.0400,0.725
58.0800,0.722
58.1200,0.712
58.1600,0.736
58.2000,0.731
58.2400,0.711
58.2800,0.750
58.3200,0.752
58.3600,0.694
58.4000,0.715
58.4400,0.735
58.4800,0.701
58.5200,0.737
58.5600,0.728
58.6000,0.763
58.6400,0.764
58.6800,0.744
58.7200,0.800
58.7600,0.840
58.8000,0.843
58.8400,0.877
58.8800,0.917
58.9200,0.937
58.9600,1.003
59.0000,1.060
59.0400,1.084
59.0800,1.133
59.1200,1.193
59.1600,1.235
59.2000,1.254
59.2400,1.297
59.2800,1.470
59.3200,1.402
59.3600,1.345
59.4000,1.328
59.4400,1.351
59.4800,1.255
59.5200,1.297
59.5600,1.138
59.6000,1.152
59.6400,1.124
59.6800,0.989
59.7200,1.033
59.7600,0.921
59.8000,0.928
59.8400,0.914
59.8800,0.818
59.9200,0.865
59.9600,0.842
60.0000,0.766
60.0400,0.706
60.0800,0.705
60.1200,0.741
60.1600,0.712
60.2000,0.694
60.2400,0.696
60.2800,0.711
60.3200,0.775
60.3600,0.688
60.4000,0.723
60.4400,0.676
60.4800,0.743
60.5200,0.673
60.5600,0.639
60.6000,0.694
60.6400,0.711
60.6800,0.680
60.7200,0.678
60.7600,0.625
60.8000,0.646
60.8400,0.679
60.8800,0.639
60.9200,0.687
60.9600,0.638
61.0000,0.563
61.0400,0.597
61.0800,0.602
61.1200,0.588
61.1600,0.591
61.2000,0.677
61.2400,0.608
61.2800,0.623
61.3200,0.606
61.3600,0.594
61.4000,0.593
61.4400,0.563
61.4800,0.604
61.5200,0.583
61.5600,0.609
61.6000,0.609
61.6400,0.684
61.6800,0.678
61.7200,0.680
61.7600,0.679
61.8000,0.594
61.8400,0.678
61.8800,0.590
61.9200,0.608
61.9600,0.631
62.0000,0.627
62.0400,0.619
62.0800,0.640
62.1200,0.667
62.1600,0.651
62.2000,0.686
62.2400,0.583
62.2800,0.564
62.3200,0.655
62.3600,0.608
62.4000,0.714
62.4400,0.584
62.4800,0.619
62.5200,0.667
62.5600,0.617
62.6000,0.613
62.6400,0.590
62.6800,0.601
62.7200,0.611
62.7600,0.596
62.8000,0.624
62.8400,0.588
62.8800,0.617
62.9200,0.645
62.9600,0.617
63.0000,0.611
63.0400,0.604
63.0800,0.599
63.1200,0.598
63.1600,0.581
63.2000,0.652
63.2400,0.597
63.2800,0.621
63.3200,0.638
63.3600,0.632
63.4000,0.599
63.4400,0.595
63.4800,0.645
63.5200,0.617
63.5600,0.642
63.6000,0.593
63.6400,0.644
63.6800,0.639
63.7200,0.593
63.7600,0.586
63.8000,0.594
63.8400,0.554
63.8800,0.656
63.9200,0.592
63.9600,0.626
64.0000,0.627
64.0400,0.559
64.0800,0.677
64.1200,0.572
64.1600,0.643
64.2000,0.599
64.2400,0.610
64.2800,0.554
64.3200,0.620
64.3600,0.611
64.4000,0.665
64.4400,0.548
64.4800,0.586
64.5200,0.617
64.5600,0.600
64.6000,0.572
64.6400,0.617
64.6800,0.639
64.7200,0.636
64.7600,0.645
64.8000,0.617
64.8400,0.647
64.8800,0.608
64.9200,0.640
64.9600,0.643
65.0000,0.654
65.0400,0.585
65.0800,0.629
65.1200,0.628
65.1600,0.655
65.2000,0.606
65.2400,0.624
65.2800,0.683
65.3200,0.579
65.3600,0.649
65.4000,0.704
65.4400,0.715
65.4800,0.704
65.5200,0.723
65.5600,0.685
65.6000,0.632
65.6400,0.715
65.6800,0.683
65.7200,0.683
65.7600,0.714
65.8000,0.717
65.8400,0.787
65.8800,0.705
65.9200,0.735
65.9600,0.755
66.0000,0.789
66.0400,0.812
66.0800,0.721
66.1200,0.775
66.1600,0.852
66.2000,0.825
66.2400,0.795
66.2800,0.901
66.3200,0.818
66.3600,0.857
66.4000,0.869
66.4400,0.933
66.4800,0.970
66.5200,0.895
66.5600,0.972
66.6000,1.024
66.6400,1.019
66.6800,1.126
66.7200,1.004
66.7600,1.163
66.8000,1.136
66.8400,1.226
66.8800,1.195
66.9200,1.355
66.9600,1.357
67.0000,1.363
67.0400,1.372
67.0800,1.475
67.1200,1.476
67.1600,1.555
67.2000,1.477
67.2400,1.463
67.2800,1.463
67.3200,1.412
67.3600,1.463
67.4000,1.428
67.4400,1.421
67.4800,1.434
67.5200,1.439
67.5600,1.431
67.6000,1.427
67.6400,1.429
67.6800,1.404
67.7200,1.495
67.7600,1.465
67.8000,1.501
67.8400,1.436
67.8800,1.504
67.9200,1.568
67.9600,1.629
68.0000,1.670
68.0400,1.595
68.0800,1.733
68.1200,1.781
68.1600,1.856
68.2000,1.768
68.2400,1.909
68.2800,1.893
68.3200,1.959
68.3600,2.063
68.4000,2.104
68.4400,2.269
68.4800,2.322
68.5200,2.463
68.5600,2.439
68.6000,2.782
68.6400,2.981
68.6800,3.243
68.7200,3.779
68.7600,4.684
68.8000,5.954
68.8400,7.020
68.8800,7.161
68.9200,7.373
68.9600,8.602
69.0000,11.508
69.0400,18.272
69.0800,40.758
69.1200,185.213
69.1600,472.803
69.2000,375.608
69.2400,105.790
69.2800,48.416
69.3200,117.000
69.3600,245.318
69.4000,183.159
69.4400,52.035
69.4800,17.893
69.5200,10.867
69.5600,8.017
69.6000,6.343
69.6400,5.366
69.6800,4.789
69.7200,4.095
69.7600,3.816
69.8000,3.432
69.8400,3.355
69.8800,2.831
69.9200,2.666
69.9600,2.690
70.0000,2.488
70.0400,2.496
70.0800,2.374
70.1200,2.301
70.1600,2.226
70.2000,2.127
70.2400,2.109
70.2800,1.999
70.3200,1.924
70.3600,1.849
70.4000,1.716
70.4400,1.816
70.4800,1.621
70.5200,1.671
70.5600,1.462
70.6000,1.511
70.6400,1.536
70.6800,1.466
70.7200,1.423
70.7600,1.445
70.8000,1.332
70.8400,1.397
70.8800,1.291
70.9200,1.244
70.9600,1.243
71.0000,1.130
71.0400,1.206
71.0800,1.112
71.1200,1.072
71.1600,1.100
71.2000,1.095
71.2400,1.068
71.2800,0.996
71.3200,1.000
71.3600,1.003
71.4000,0.938
71.4400,0.941
71.4800,0.930
71.5200,0.910
71.5600,0.929
71.6000,0.904
71.6400,0.878
71.6800,0.871
71.7200,0.842
71.7600,0.864
71.8000,0.797
71.8400,0.776
71.8800,0.757
71.9200,0.780
71.9600,0.753
72.0000,0.723
72.0400,0.726
72.0800,0.733
72.1200,0.758
72.1600,0.745
72.2000,0.744
72.2400,0.745
72.2800,0.672
72.3200,0.727
72.3600,0.719
72.4000,0.714
72.4400,0.695
72.4800,0.720
72.5200,0.624
72.5600,0.646
72.6000,0.696
72.6400,0.632
72.6800,0.656
72.7200,0.635
72.7600,0.631
72.8000,0.584
72.8400,0.626
72.8800,0.655
72.9200,0.637
72.9600,0.559
73.0000,0.590
73.0400,0.580
73.0800,0.606
73.1200,0.627
73.1600,0.651
73.2000,0.656
73.2400,0.573
73.2800,0.635
73.3200,0.631
73.3600,0.627
73.4000,0.596
73.4400,0.664
73.4800,0.596
73.5200,0.559
73.5600,0.604
73.6000,0.654
73.6400,0.590
73.6800,0.613
73.7200,0.628
73.7600,0.616
73.8000,0.664
73.8400,0.705
73.8800,0.758
73.9200,0.759
73.9600,0.781
74.0000,0.869
74.0400,0.943
74.0800,1.008
74.1200,1.102
74.1600,1.219
74.2000,1.314
74.2400,1.497
74.2800,1.554
74.3200,1.688
74.3600,1.654
74.4000,1.742
74.4400,1.768
74.4800,1.713
74.5200,1.666
74.5600,1.700
74.6000,1.505
74.6400,1.387
74.6800,1.330
74.7200,1.282
74.7600,1.170
74.8000,1.083
74.8400,0.943
74.8800,0.877
74.9200,0.839
74.9600,0.830
75.0000,0.725
75.0400,0.746
75.0800,0.609
75.1200,0.594
75.1600,0.549
75.2000,0.552
75.2400,0.528
75.2800,0.525
75.3200,0.531
75.3600,0.482
75.4000,0.474
75.4400,0.477
75.4800,0.462
75.5200,0.472
75.5600,0.525
75.6000,0.454
75.6400,0.414
75.6800,0.482
75.7200,0.464
75.7600,0.470
75.8000,0.472
75.8400,0.442
75.8800,0.469
75.9200,0.445
75.9600,0.460
76.0000,0.417
76.0400,0.448
76.0800,0.440
76.1200,0.441
76.1600,0.469
76.2000,0.413
76.2400,0.395
76.2800,0.426
76.3200,0.400
76.3600,0.406
76.4000,0.420
76.4400,0.436
76.4800,0.456
76.5200,0.445
76.5600,0.389
76.6000,0.421
76.6400,0.416
76.6800,0.384
76.7200,0.398
76.7600,0.394
76.8000,0.360
76.8400,0.383
76.8800,0.408
76.9200,0.401
76.9600,0.406
77.0000,0.385
77.0400,0.407
77.0800,0.368
77.1200,0.363
77.1600,0.356
77.2000,0.397
77.2400,0.381
77.2800,0.390
77.3200,0.367
77.3600,0.418
77.4000,0.404
77.4400,0.367
77.4800,0.345
77.5200,0.387
77.5600,0.377
77.6000,0.341
77.6400,0.361
77.6800,0.359
77.7200,0.327
77.7600,0.386
77.8000,0.352
77.8400,0.355
77.8800,0.364
77.9200,0.362
77.9600,0.386
78.0000,0.339
78.0400,0.363
78.0800,0.382
78.1200,0.374
78.1600,0.349
78.2000,0.357
78.2400,0.368
78.2800,0.314
78.3200,0.352
78.3600,0.328
78.4000,0.347
78.4400,0.340
78.4800,0.352
78.5200,0.353
78.5600,0.322
78.6000,0.331
78.6400,0.341
78.6800,0.335
78.7200,0.327
78.7600,0.341
78.8000,0.330
78.8400,0.344
78.8800,0.337
78.9200,0.349
78.9600,0.351
79.0000,0.307
79.0400,0.342
79.0800,0.349
79.1200,0.333
79.1600,0.335
79.2000,0.341
79.2400,0.313
79.2800,0.370
79.3200,0.351
79.3600,0.325
79.4000,0.299
79.4400,0.358
79.4800,0.330
79.5200,0.323
79.5600,0.322
79.6000,0.357
79.6400,0.325
79.6800,0.313
79.7200,0.319
79.7600,0.355
79.8000,0.339
79.8400,0.302
79.8800,0.329
79.9200,0.304
79.9600,0.285
80.0000,0.327
