theta,intensity
5.0000,5.682
5.0400,5.529
5.0800,5.510
5.1200,5.656
5.1600,5.611
5.2000,5.559
5.2400,5.463
5.2800,5.474
5.3200,5.575
5.3600,5.472
5.4000,5.421
5.4400,5.344
5.4800,5.468
5.5200,5.363
5.5600,5.423
5.6000,5.237
5.6400,5.310
5.6800,5.288
5.7200,5.153
5.7600,5.211
5.8000,5.262
5.8400,5.161
5.8800,5.130
5.9200,4.942
5.9600,4.895
6.0000,4.962
6.0400,4.956
6.0800,4.711
6.1200,4.595
6.1600,4.612
6.2000,4.683
6.2400,4.530
6.2800,4.467
6.3200,4.527
6.3600,4.475
6.4000,4.389
6.4400,4.350
6.4800,4.405
6.5200,4.270
6.5600,4.337
6.6000,4.405
6.6400,4.172
6.6800,4.232
6.7200,4.250
6.7600,4.259
6.8000,4.115
6.8400,4.213
6.8800,4.100
6.9200,4.130
6.9600,4.114
7.0000,4.091
7.0400,4.045
7.0800,4.019
7.1200,4.012
7.1600,3.979
7.2000,3.928
7.2400,4.066
7.2800,4.037
7.3200,3.992
7.3600,3.909
7.4000,3.918
7.4400,4.016
7.4800,3.836
7.5200,3.934
7.5600,3.853
7.6000,3.873
7.6400,3.932
7.6800,3.836
7.7200,3.943
7.7600,3.825
7.8000,3.860
7.8400,3.809
7.8800,3.778
7.9200,3.854
7.9600,3.767
8.0000,3.804
8.0400,3.811
8.0800,3.785
8.1200,3.806
8.1600,3.760
8.2000,3.785
8.2400,3.661
8.2800,3.671
8.3200,3.691
8.3600,3.694
8.4000,3.629
8.4400,3.837
8.4800,3.806
8.5200,3.659
8.5600,3.655
8.6000,3.735
8.6400,3.695
8.6800,3.617
8.7200,3.694
8.7600,3.649
8.8000,3.682
8.8400,3.708
8.8800,3.610
8.9200,3.597
8.9600,3.602
9.0000,3.705
9.0400,3.563
9.0800,3.674
9.1200,3.601
9.1600,3.681
9.2000,3.629
9.2400,3.619
9.2800,3.559
9.3200,3.662
9.3600,3.560
9.4000,3.571
9.4400,3.540
9.4800,3.620
9.5200,3.600
9.5600,3.541
9.6000,3.591
9.6400,3.547
9.6800,3.523
9.7200,3.531
9.7600,3.537
9.8000,3.582
9.8400,3.542
9.8800,3.495
9.9200,3.508
9.9600,3.563
10.0000,3.494
10.0400,3.480
10.0800,3.514
10.1200,3.614
10.1600,3.474
10.2000,3.582
10.2400,3.483
10.2800,3.456
10.3200,3.501
10.3600,3.499
10.4000,3.544
10.4400,3.545
10.4800,3.517
10.5200,3.451
10.5600,3.513
10.6000,3.435
10.6400,3.420
10.6800,3.431
10.7200,3.479
10.7600,3.434
10.8000,3.446
10.8400,3.437
10.8800,3.405
10.9200,3.506
10.9600,3.363
11.0000,3.422
11.0400,3.454
11.0800,3.451
11.1200,3.350
11.1600,3.306
11.2000,3.368
11.2400,3.365
11.2800,3.412
11.3200,3.397
11.3600,3.312
11.4000,3.458
11.4400,3.460
11.4800,3.424
11.5200,3.293
11.5600,3.259
11.6000,3.392
11.6400,3.351
11.6800,3.431
11.7200,3.389
11.7600,3.277
11.8000,3.411
11.8400,3.359
11.8800,3.352
11.9200,3.369
11.9600,3.295
12.0000,3.305
12.0400,3.387
12.0800,3.303
12.1200,3.284
12.1600,3.278
12.2000,3.471
12.2400,3.227
12.2800,3.366
12.3200,3.338
12.3600,3.151
12.4000,3.205
12.4400,3.218
12.4800,3.270
12.5200,3.385
12.5600,3.234
12.6000,3.271
12.6400,3.229
12.6800,3.323
12.7200,3.308
12.7600,3.269
12.8000,3.215
12.8400,3.343
12.8800,3.329
12.9200,3.254
12.9600,3.298
13.0000,3.234
13.0400,3.207
13.0800,3.222
13.1200,3.284
13.1600,3.211
13.2000,3.241
13.2400,3.235
13.2800,3.269
13.3200,3.234
13.3600,3.167
13.4000,3.176
13.4400,3.201
13.4800,3.262
13.5200,3.236
13.5600,3.185
13.6000,3.172
13.6400,3.239
13.6800,3.199
13.7200,3.086
13.7600,3.186
13.8000,3.175
13.8400,3.246
13.8800,3.188
13.9200,3.106
13.9600,3.163
14.0000,3.138
14.0400,3.157
14.0800,3.136
14.1200,3.064
14.1600,3.151
14.2000,3.168
14.2400,3.204
14.2800,3.159
14.3200,3.119
14.3600,3.063
14.4000,3.107
14.4400,3.172
14.4800,3.081
14.5200,3.153
14.5600,3.198
14.6000,3.092
14.6400,3.022
14.6800,3.055
14.7200,3.110
14.7600,3.121
14.8000,3.016
14.8400,3.053
14.8800,3.117
14.9200,3.119
14.9600,3.073
15.0000,3.017
15.0400,3.056
15.0800,3.007
15.1200,3.057
15.1600,3.021
15.2000,3.010
15.2400,3.024
15.2800,3.100
15.3200,3.122
15.3600,3.137
15.4000,3.069
15.4400,3.008
15.4800,2.983
15.5200,3.022
15.5600,2.993
15.6000,2.974
15.6400,2.967
15.6800,3.041
15.7200,3.144
15.7600,3.025
15.8000,2.954
15.8400,3.035
15.8800,3.069
15.9200,3.078
15.9600,3.066
16.0000,3.060
16.0400,2.980
16.0800,3.090
16.1200,2.994
16.1600,3.012
16.2000,2.952
16.2400,2.920
16.2800,3.061
16.3200,2.992
16.3600,2.905
16.4000,2.912
16.4400,2.889
16.4800,2.898
16.5200,2.886
16.5600,2.924
16.6000,2.980
16.6400,2.905
16.6800,3.006
16.7200,2.858
16.7600,2.960
16.8000,2.853
16.8400,2.931
16.8800,2.970
16.9200,2.879
16.9600,2.907
17.0000,2.888
17.0400,2.884
17.0800,2.922
17.1200,2.844
17.1600,2.800
17.2000,2.873
17.2400,2.928
17.2800,2.885
17.3200,2.864
17.3600,2.903
17.4000,2.908
17.4400,2.877
17.4800,2.875
17.5200,2.869
17.5600,2.885
17.6000,2.868
17.6400,2.862
17.6800,2.811
17.7200,2.855
17.7600,2.816
17.8000,2.826
17.8400,2.898
17.8800,2.786
17.9200,2.745
17.9600,2.800
18.0000,2.750
18.0400,2.843
18.0800,2.762
18.1200,2.711
18.1600,2.881
18.2000,2.771
18.2400,2.770
18.2800,2.832
18.3200,2.854
18.3600,2.873
18.4000,2.810
18.4400,2.743
18.4800,2.786
18.5200,2.890
18.5600,2.798
18.6000,2.747
18.6400,2.774
18.6800,2.821
18.7200,2.799
18.7600,2.763
18.8000,2.720
18.8400,2.760
18.8800,2.724
18.9200,2.719
18.9600,2.642
19.0000,2.703
19.0400,2.658
19.0800,2.695
19.1200,2.716
19.1600,2.721
19.2000,2.636
19.2400,2.574
19.2800,2.682
19.3200,2.790
19.3600,2.676
19.4000,2.690
19.4400,2.693
19.4800,2.670
19.5200,2.673
19.5600,2.686
19.6000,2.580
19.6400,2.682
19.6800,2.720
19.7200,2.673
19.7600,2.727
19.8000,2.636
19.8400,2.669
19.8800,2.568
19.9200,2.682
19.9600,2.595
20.0000,2.558
20.0400,2.652
20.0800,2.608
20.1200,2.645
20.1600,2.670
20.2000,2.626
20.2400,2.663
20.2800,2.637
20.3200,2.574
20.3600,2.646
20.4000,2.613
20.4400,2.675
20.4800,2.575
20.5200,2.548
20.5600,2.570
20.6000,2.506
20.6400,2.628
20.6800,2.520
20.7200,2.534
20.7600,2.652
20.8000,2.530
20.8400,2.661
20.8800,2.603
20.9200,2.554
20.9600,2.513
21.0000,2.546
21.0400,2.614
21.0800,2.622
21.1200,2.587
21.1600,2.565
21.2000,2.482
21.2400,2.562
21.2800,2.530
21.3200,2.537
21.3600,2.622
21.4000,2.599
21.4400,2.624
21.4800,2.671
21.5200,2.513
21.5600,2.567
21.6000,2.467
21.6400,2.535
21.6800,2.557
21.7200,2.404
21.7600,2.483
21.8000,2.457
21.8400,2.494
21.8800,2.534
21.9200,2.471
21.9600,2.504
22.0000,2.545
22.0400,2.581
22.0800,2.454
22.1200,2.458
22.1600,2.526
22.2000,2.458
22.2400,2.505
22.2800,2.558
22.3200,2.542
22.3600,2.514
22.4000,2.451
22.4400,2.436
22.4800,2.365
22.5200,2.452
22.5600,2.396
22.6000,2.520
22.6400,2.412
22.6800,2.494
22.7200,2.497
22.7600,2.409
22.8000,2.459
22.8400,2.435
22.8800,2.483
22.9200,2.473
22.9600,2.550
23.0000,2.417
23.0400,2.361
23.0800,2.390
23.1200,2.435
23.1600,2.329
23.2000,2.407
23.2400,2.375
23.2800,2.487
23.3200,2.430
23.3600,2.471
23.4000,2.382
23.4400,2.396
23.4800,2.546
23.5200,2.505
23.5600,2.460
23.6000,2.454
23.6400,2.438
23.6800,2.497
23.7200,2.533
23.7600,2.520
23.8000,2.550
23.8400,2.462
23.8800,2.591
23.9200,2.561
23.9600,2.418
24.0000,2.540
24.0400,2.553
24.0800,2.628
24.1200,2.613
24.1600,2.626
24.2000,2.581
24.2400,2.616
24.2800,2.629
24.3200,2.689
24.3600,2.661
24.4000,2.576
24.4400,2.668
24.4800,2.524
24.5200,2.505
24.5600,2.567
24.6000,2.552
24.6400,2.417
24.6800,2.489
24.7200,2.397
24.7600,2.465
24.8000,2.483
24.8400,2.438
24.8800,2.312
24.9200,2.376
24.9600,2.324
25.0000,2.329
25.0400,2.352
25.0800,2.386
25.1200,2.404
25.1600,2.210
25.2000,2.272
25.2400,2.314
25.2800,2.259
25.3200,2.321
25.3600,2.377
25.4000,2.259
25.4400,2.285
25.4800,2.182
25.5200,2.226
25.5600,2.214
25.6000,2.237
25.6400,2.222
25.6800,2.197
25.7200,2.226
25.7600,2.211
25.8000,2.143
25.8400,2.260
25.8800,2.244
25.9200,2.148
25.9600,2.176
26.0000,2.190
26.0400,2.102
26.0800,2.038
26.1200,2.105
26.1600,2.113
26.2000,2.086
26.2400,2.215
26.2800,2.153
26.3200,2.108
26.3600,2.223
26.4000,2.129
26.4400,2.063
26.4800,2.151
26.5200,2.140
26.5600,2.125
26.6000,2.149
26.6400,2.092
26.6800,2.108
26.7200,2.125
26.7600,2.063
26.8000,2.082
26.8400,2.076
26.8800,2.060
26.9200,2.028
26.9600,2.073
27.0000,2.018
27.0400,2.027
27.0800,2.010
27.1200,2.104
27.1600,2.036
27.2000,2.061
27.2400,2.042
27.2800,2.034
27.3200,2.035
27.3600,2.022
27.4000,2.022
27.4400,2.010
27.4800,2.037
27.5200,2.015
27.5600,2.045
27.6000,2.006
27.6400,2.017
27.6800,2.006
27.7200,1.968
27.7600,2.008
27.8000,2.019
27.8400,2.036
27.8800,1.994
27.9200,1.992
27.9600,2.014
28.0000,1.988
28.0400,1.974
28.0800,2.064
28.1200,2.006
28.1600,2.035
28.2000,1.949
28.2400,1.920
28.2800,1.954
28.3200,1.955
28.3600,1.928
28.4000,1.949
28.4400,1.943
28.4800,1.932
28.5200,1.865
28.5600,1.947
28.6000,1.959
28.6400,1.930
28.6800,1.918
28.7200,1.947
28.7600,1.898
28.8000,1.915
28.8400,1.933
28.8800,1.928
28.9200,1.948
28.9600,1.854
29.0000,1.917
29.0400,1.839
29.0800,1.936
29.1200,1.905
29.1600,1.964
29.2000,1.927
29.2400,1.887
29.2800,1.876
29.3200,1.880
29.3600,1.934
29.4000,1.873
29.4400,1.890
29.4800,1.907
29.5200,1.862
29.5600,1.909
29.6000,1.859
29.6400,1.854
29.6800,1.820
29.7200,1.844
29.7600,1.853
29.8000,1.844
29.8400,1.854
29.8800,1.859
29.9200,1.877
29.9600,1.845
30.0000,1.832
30.0400,1.789
30.0800,1.814
30.1200,1.813
30.1600,1.856
30.2000,1.820
30.2400,1.830
30.2800,1.820
30.3200,1.904
30.3600,1.873
30.4000,1.886
30.4400,1.826
30.4800,1.835
30.5200,1.863
30.5600,1.768
30.6000,1.865
30.6400,1.833
30.6800,1.720
30.7200,1.804
30.7600,1.757
30.8000,1.796
30.8400,1.740
30.8800,1.789
30.9200,1.782
30.9600,1.832
31.0000,1.706
31.0400,1.787
31.0800,1.894
31.1200,1.889
31.1600,1.763
31.2000,1.881
31.2400,1.832
31.2800,1.772
31.3200,1.868
31.3600,1.851
31.4000,1.867
31.4400,1.808
31.4800,1.922
31.5200,1.915
31.5600,1.888
31.6000,1.915
31.6400,1.988
31.6800,1.927
31.7200,1.973
31.7600,1.990
31.8000,1.893
31.8400,1.950
31.8800,2.021
31.9200,1.978
31.9600,2.042
32.0000,2.027
32.0400,1.924
32.0800,1.951
32.1200,1.887
32.1600,1.860
32.2000,1.831
32.2400,1.914
32.2800,1.801
32.3200,1.832
32.3600,1.829
32.4000,1.764
32.4400,1.845
32.4800,1.768
32.5200,1.811
32.5600,1.755
32.6000,1.777
32.6400,1.765
32.6800,1.647
32.7200,1.670
32.7600,1.709
32.8000,1.701
32.8400,1.678
32.8800,1.721
32.9200,1.746
32.9600,1.664
33.0000,1.608
33.0400,1.875
33.0800,1.766
33.1200,1.734
33.1600,1.670
33.2000,1.583
33.2400,1.572
33.2800,1.601
33.3200,1.595
33.3600,1.678
33.4000,1.660
33.4400,1.674
33.4800,1.595
33.5200,1.626
33.5600,1.623
33.6000,1.516
33.6400,1.577
33.6800,1.582
33.7200,1.683
33.7600,1.577
33.8000,1.585
33.8400,1.584
33.8800,1.569
33.9200,1.591
33.9600,1.550
34.0000,1.544
34.0400,1.559
34.0800,1.541
34.1200,1.530
34.1600,1.515
34.2000,1.542
34.2400,1.534
34.2800,1.528
34.3200,1.532
34.3600,1.529
34.4000,1.557
34.4400,1.506
34.4800,1.517
34.5200,1.551
34.5600,1.554
34.6000,1.499
34.6400,1.457
34.6800,1.514
34.7200,1.509
34.7600,1.566
34.8000,1.509
34.8400,1.473
34.8800,1.501
34.9200,1.486
34.9600,1.481
35.0000,1.530
35.0400,1.523
35.0800,1.557
35.1200,1.469
35.1600,1.498
35.2000,1.460
35.2400,1.407
35.2800,1.401
35.3200,1.475
35.3600,1.416
35.4000,1.482
35.4400,1.520
35.4800,1.529
35.5200,1.469
35.5600,1.419
35.6000,1.458
35.6400,1.409
35.6800,1.495
35.7200,1.502
35.7600,1.498
35.8000,1.458
35.8400,1.520
35.8800,1.501
35.9200,1.517
35.9600,1.486
36.0000,1.528
36.0400,1.479
36.0800,1.505
36.1200,1.484
36.1600,1.522
36.2000,1.470
36.2400,1.411
36.2800,1.405
36.3200,1.436
36.3600,1.502
36.4000,1.495
36.4400,1.437
36.4800,1.463
36.5200,1.430
36.5600,1.504
36.6000,1.471
36.6400,1.468
36.6800,1.411
36.7200,1.403
36.7600,1.372
36.8000,1.473
36.8400,1.489
36.8800,1.514
36.9200,1.428
36.9600,1.447
37.0000,1.435
37.0400,1.451
37.0800,1.432
37.1200,1.475
37.1600,1.499
37.2000,1.415
37.2400,1.530
37.2800,1.458
37.3200,1.541
37.3600,1.550
37.4000,1.523
37.4400,1.454
37.4800,1.531
37.5200,1.500
37.5600,1.561
37.6000,1.569
37.6400,1.568
37.6800,1.607
37.7200,1.679
37.7600,1.571
37.8000,1.705
37.8400,1.751
37.8800,1.673
37.9200,1.768
37.9600,1.795
38.0000,1.881
38.0400,1.901
38.0800,1.978
38.1200,2.102
38.1600,2.190
38.2000,2.320
38.2400,2.505
38.2800,2.769
38.3200,3.026
38.3600,3.422
38.4000,3.894
38.4400,4.322
38.4800,5.012
38.5200,5.809
38.5600,6.179
38.6000,6.560
38.6400,6.945
38.6800,6.848
38.7200,6.497
38.7600,6.229
38.8000,5.843
38.8400,5.274
38.8800,4.958
38.9200,4.408
38.9600,4.046
39.0000,3.817
39.0400,3.425
39.0800,3.248
39.1200,3.130
39.1600,3.067
39.2000,2.985
39.2400,2.830
39.2800,2.736
39.3200,2.816
39.3600,2.756
39.4000,2.701
39.4400,2.668
39.4800,2.664
39.5200,2.679
39.5600,2.662
39.6000,2.733
39.6400,2.845
39.6800,2.807
39.7200,2.919
39.7600,2.960
39.8000,3.034
39.8400,3.063
39.8800,2.961
39.9200,3.000
39.9600,2.988
40.0000,2.933
40.0400,2.831
40.0800,2.917
40.1200,3.020
40.1600,3.164
40.2000,3.124
40.2400,3.265
40.2800,3.221
40.3200,3.398
40.3600,3.348
40.4000,3.411
40.4400,3.315
40.4800,3.208
40.5200,3.041
40.5600,2.888
40.6000,2.761
40.6400,2.589
40.6800,2.382
40.7200,2.179
40.7600,2.058
40.8000,1.986
40.8400,1.861
40.8800,1.789
40.9200,1.744
40.9600,1.649
41.0000,1.628
41.0400,1.498
41.0800,1.553
41.1200,1.480
41.1600,1.514
41.2000,1.387
41.2400,1.405
41.2800,1.415
41.3200,1.405
41.3600,1.305
41.4000,1.331
41.4400,1.311
41.4800,1.344
41.5200,1.320
41.5600,1.271
41.6000,1.248
41.6400,1.279
41.6800,1.245
41.7200,1.291
41.7600,1.234
41.8000,1.188
41.8400,1.179
41.8800,1.216
41.9200,1.255
41.9600,1.183
42.0000,1.161
42.0400,1.165
42.0800,1.219
42.1200,1.249
42.1600,1.175
42.2000,1.169
42.2400,1.137
42.2800,1.150
42.3200,1.218
42.3600,1.153
42.4000,1.174
42.4400,1.135
42.4800,1.196
42.5200,1.207
42.5600,1.185
42.6000,1.195
42.6400,1.150
42.6800,1.187
42.7200,1.117
42.7600,1.147
42.8000,1.072
42.8400,1.165
42.8800,1.150
42.9200,1.146
42.9600,1.154
43.0000,1.111
43.0400,1.139
43.0800,1.149
43.1200,1.119
43.1600,1.116
43.2000,1.090
43.2400,1.199
43.2800,1.165
43.3200,1.133
43.3600,1.124
43.4000,1.176
43.4400,1.156
43.4800,1.181
43.5200,1.133
43.5600,1.100
43.6000,1.130
43.6400,1.072
43.6800,1.149
43.7200,1.146
43.7600,1.189
43.8000,1.239
43.8400,1.191
43.8800,1.212
43.9200,1.226
43.9600,1.181
44.0000,1.194
44.0400,1.233
44.0800,1.269
44.1200,1.268
44.1600,1.284
44.2000,1.285
44.2400,1.264
44.2800,1.363
44.3200,1.328
44.3600,1.381
44.4000,1.393
44.4400,1.505
44.4800,1.481
44.5200,1.536
44.5600,1.706
44.6000,1.662
44.6400,1.755
44.6800,1.959
44.7200,2.003
44.7600,2.142
44.8000,2.142
44.8400,2.318
44.8800,2.349
44.9200,2.442
44.9600,2.388
45.0000,2.561
45.0400,2.561
45.0800,2.569
45.1200,2.405
45.1600,2.293
45.2000,2.267
45.2400,2.196
45.2800,2.127
45.3200,2.000
45.3600,2.062
45.4000,1.921
45.4400,1.953
45.4800,1.909
45.5200,1.888
45.5600,1.815
45.6000,1.828
45.6400,1.813
45.6800,1.814
45.7200,1.692
45.7600,1.756
45.8000,1.663
45.8400,1.678
45.8800,1.714
45.9200,1.606
45.9600,1.607
46.0000,1.521
46.0400,1.537
46.0800,1.476
46.1200,1.359
46.1600,1.401
46.2000,1.394
46.2400,1.337
46.2800,1.255
46.3200,1.250
46.3600,1.213
46.4000,1.165
46.4400,1.181
46.4800,1.102
46.5200,1.137
46.5600,1.163
46.6000,1.050
46.6400,1.091
46.6800,1.037
46.7200,0.994
46.7600,1.041
46.8000,0.961
46.8400,1.014
46.8800,1.011
46.9200,0.975
46.9600,1.006
47.0000,0.982
47.0400,0.972
47.0800,0.998
47.1200,0.949
47.1600,0.931
47.2000,0.948
47.2400,0.955
47.2800,0.942
47.3200,0.912
47.3600,0.957
47.4000,0.946
47.4400,0.971
47.4800,0.944
47.5200,0.947
47.5600,0.909
47.6000,0.976
47.6400,0.862
47.6800,0.896
47.7200,0.973
47.7600,0.918
47.8000,0.909
47.8400,0.885
47.8800,0.869
47.9200,0.870
47.9600,0.918
48.0000,0.865
48.0400,0.901
48.0800,0.912
48.1200,0.923
48.1600,0.873
48.2000,0.900
48.2400,0.861
48.2800,0.848
48.3200,0.835
48.3600,0.925
48.4000,0.873
48.4400,0.858
48.4800,0.922
48.5200,0.882
48.5600,0.855
48.6000,0.867
48.6400,0.869
48.6800,0.834
48.7200,0.855
48.7600,0.890
48.8000,0.881
48.8400,0.876
48.8800,0.867
48.9200,0.921
48.9600,0.895
49.0000,0.871
49.0400,0.894
49.0800,0.900
49.1200,0.877
49.1600,0.893
49.2000,0.872
49.2400,0.889
49.2800,0.895
49.3200,0.881
49.3600,0.876
49.4000,0.877
49.4400,0.926
49.4800,0.920
49.5200,0.864
49.5600,0.871
49.6000,0.912
49.6400,0.942
49.6800,0.863
49.7200,0.932
49.7600,0.900
49.8000,0.863
49.8400,0.902
49.8800,0.936
49.9200,0.940
49.9600,0.888
50.0000,0.835
50.0400,0.876
50.0800,0.842
50.1200,0.859
50.1600,0.870
50.2000,0.865
50.2400,0.792
50.2800,0.833
50.3200,0.845
50.3600,0.820
50.4000,0.847
50.4400,0.763
50.4800,0.809
50.5200,0.789
50.5600,0.813
50.6000,0.794
50.6400,0.813
50.6800,0.803
50.7200,0.838
50.7600,0.790
50.8000,0.805
50.8400,0.795
50.8800,0.826
50.9200,0.796
50.9600,0.813
51.0000,0.849
51.0400,0.785
51.0800,0.772
51.1200,0.766
51.1600,0.777
51.2000,0.757
51.2400,0.788
51.2800,0.758
51.3200,0.765
51.3600,0.783
51.4000,0.738
51.4400,0.811
51.4800,0.761
51.5200,0.741
51.5600,0.835
51.6000,0.757
51.6400,0.774
51.6800,0.797
51.7200,0.789
51.7600,0.773
51.8000,0.744
51.8400,0.736
51.8800,0.790
51.9200,0.706
51.9600,0.821
52.0000,0.776
52.0400,0.848
52.0800,0.791
52.1200,0.797
52.1600,0.800
52.2000,0.855
52.2400,0.832
52.2800,0.822
52.3200,0.787
52.3600,0.855
52.4000,0.860
52.4400,0.907
52.4800,0.833
52.5200,0.858
52.5600,0.819
52.6000,0.817
52.6400,0.750
52.6800,0.781
52.7200,0.745
52.7600,0.783
52.8000,0.791
52.8400,0.765
52.8800,0.782
52.9200,0.783
52.9600,0.732
53.0000,0.734
53.0400,0.744
53.0800,0.752
53.1200,0.755
53.1600,0.781
53.2000,0.763
53.2400,0.737
53.2800,0.737
53.3200,0.713
53.3600,0.705
53.4000,0.735
53.4400,0.734
53.4800,0.713
53.5200,0.678
53.5600,0.682
53.6000,0.652
53.6400,0.686
53.6800,0.703
53.7200,0.697
53.7600,0.699
53.8000,0.663
53.8400,0.675
53.8800,0.666
53.9200,0.657
53.9600,0.676
54.0000,0.676
54.0400,0.646
54.0800,0.666
54.1200,0.724
54.1600,0.691
54.2000,0.691
54.2400,0.714
54.2800,0.654
54.3200,0.703
54.3600,0.671
54.4000,0.688
54.4400,0.661
54.4800,0.721
54.5200,0.643
54.5600,0.719
54.6000,0.690
54.6400,0.654
54.6800,0.674
54.7200,0.633
54.7600,0.638
54.8000,0.696
54.8400,0.648
54.8800,0.649
54.9200,0.666
54.9600,0.665
55.0000,0.636
55.0400,0.638
55.0800,0.665
55.1200,0.642
55.1600,0.651
55.2000,0.672
55.2400,0.671
55.2800,0.674
55.3200,0.661
55.3600,0.615
55.4000,0.652
55.4400,0.616
55.4800,0.660
55.5200,0.613
55.5600,0.591
55.6000,0.639
55.6400,0.654
55.6800,0.602
55.7200,0.582
55.7600,0.650
55.8000,0.639
55.8400,0.649
55.8800,0.696
55.9200,0.650
55.9600,0.648
56.0000,0.616
56.0400,0.616
56.0800,0.658
56.1200,0.608
56.1600,0.622
56.2000,0.643
56.2400,0.590
56.2800,0.661
56.3200,0.675
56.3600,0.634
56.4000,0.631
56.4400,0.621
56.4800,0.674
56.5200,0.624
56.5600,0.614
56.6000,0.643
56.6400,0.606
56.6800,0.625
56.7200,0.629
56.7600,0.560
56.8000,0.613
56.8400,0.632
56.8800,0.616
56.9200,0.567
56.9600,0.568
57.0000,0.619
57.0400,0.606
57.0800,0.601
57.1200,0.610
57.1600,0.575
57.2000,0.573
57.2400,0.608
57.2800,0.594
57.3200,0.613
57.3600,0.622
57.4000,0.618
57.4400,0.558
57.4800,0.637
57.5200,0.579
57.5600,0.582
57.6000,0.621
57.6400,0.619
57.6800,0.575
57.7200,0.624
57.7600,0.616
57.8000,0.557
57.8400,0.584
57.8800,0.547
57.9200,0.632
57.9600,0.635
58.0000,0.551
58.0400,0.608
58.0800,0.625
58.1200,0.590
58.1600,0.593
58.2000,0.610
58.2400,0.601
58.2800,0.651
58.3200,0.614
58.3600,0.624
58.4000,0.603
58.4400,0.590
58.4800,0.607
58.5200,0.614
58.5600,0.634
58.6000,0.608
58.6400,0.579
58.6800,0.536
58.7200,0.570
58.7600,0.612
58.8000,0.585
58.8400,0.605
58.8800,0.621
58.9200,0.583
58.9600,0.607
59.0000,0.600
59.0400,0.588
59.0800,0.579
59.1200,0.610
59.1600,0.589
59.2000,0.599
59.2400,0.603
59.2800,0.583
59.3200,0.563
59.3600,0.587
59.4000,0.581
59.4400,0.621
59.4800,0.640
59.5200,0.573
59.5600,0.593
59.6000,0.587
59.6400,0.596
59.6800,0.629
59.7200,0.587
59.7600,0.576
59.8000,0.613
59.8400,0.625
59.8800,0.586
59.9200,0.606
59.9600,0.596
60.0000,0.615
60.0400,0.649
60.0800,0.646
60.1200,0.616
60.1600,0.565
60.2000,0.634
60.2400,0.607
60.2800,0.611
60.3200,0.634
60.3600,0.664
60.4000,0.598
60.4400,0.609
60.4800,0.623
60.5200,0.650
60.5600,0.584
60.6000,0.624
60.6400,0.604
60.6800,0.576
60.7200,0.566
60.7600,0.597
60.8000,0.608
60.8400,0.573
60.8800,0.590
60.9200,0.579
60.9600,0.578
61.0000,0.597
61.0400,0.584
61.0800,0.569
61.1200,0.535
61.1600,0.553
61.2000,0.586
61.2400,0.555
61.2800,0.539
61.3200,0.571
61.3600,0.578
61.4000,0.584
61.4400,0.544
61.4800,0.565
61.5200,0.547
61.5600,0.548
61.6000,0.575
61.6400,0.599
61.6800,0.636
61.7200,0.604
61.7600,0.613
61.8000,0.549
61.8400,0.570
61.8800,0.560
61.9200,0.594
61.9600,0.535
62.0000,0.570
62.0400,0.536
62.0800,0.575
62.1200,0.583
62.1600,0.564
62.2000,0.540
62.2400,0.536
62.2800,0.524
62.3200,0.513
62.3600,0.538
62.4000,0.542
62.4400,0.515
62.4800,0.565
62.5200,0.531
62.5600,0.529
62.6000,0.554
62.6400,0.535
62.6800,0.544
62.7200,0.540
62.7600,0.553
62.8000,0.543
62.8400,0.503
62.8800,0.563
62.9200,0.555
62.9600,0.532
63.0000,0.532
63.0400,0.533
63.0800,0.533
63.1200,0.524
63.1600,0.555
63.2000,0.547
63.2400,0.543
63.2800,0.540
63.3200,0.566
63.3600,0.504
63.4000,0.537
63.4400,0.553
63.4800,0.539
63.5200,0.518
63.5600,0.541
63.6000,0.576
63.6400,0.522
63.6800,0.604
63.7200,0.550
63.7600,0.541
63.8000,0.615
63.8400,0.583
63.8800,0.548
63.9200,0.645
63.9600,0.588
64.0000,0.610
64.0400,0.592
64.0800,0.622
64.1200,0.599
64.1600,0.601
64.2000,0.589
64.2400,0.587
64.2800,0.568
64.3200,0.632
64.3600,0.634
64.4000,0.642
64.4400,0.633
64.4800,0.656
64.5200,0.641
64.5600,0.679
64.6000,0.700
64.6400,0.698
64.6800,0.690
64.7200,0.697
64.7600,0.771
64.8000,0.767
64.8400,0.816
64.8800,0.807
64.9200,0.821
64.9600,0.843
65.0000,0.870
65.0400,0.930
65.0800,1.017
65.1200,1.058
65.1600,1.083
65.2000,1.130
65.2400,1.177
65.2800,1.217
65.3200,1.239
65.3600,1.231
65.4000,1.283
65.4400,1.257
65.4800,1.218
65.5200,1.200
65.5600,1.201
65.6000,1.144
65.6400,1.161
65.6800,1.134
65.7200,1.097
65.7600,0.978
65.8000,1.008
65.8400,1.025
65.8800,0.973
65.9200,0.971
65.9600,0.975
66.0000,0.950
66.0400,0.930
66.0800,0.962
66.1200,0.886
66.1600,0.960
66.2000,0.929
66.2400,0.892
66.2800,0.902
66.3200,0.913
66.3600,0.943
66.4000,0.916
66.4400,0.935
66.4800,0.957
66.5200,1.005
66.5600,1.000
66.6000,0.960
66.6400,0.958
66.6800,1.044
66.7200,1.008
66.7600,1.023
66.8000,1.017
66.8400,1.078
66.8800,1.054
66.9200,1.012
66.9600,1.033
67.0000,1.084
67.0400,1.110
67.0800,1.106
67.1200,1.126
67.1600,1.151
67.2000,1.072
67.2400,1.145
67.2800,1.129
67.3200,1.110
67.3600,1.128
67.4000,1.202
67.4400,1.189
67.4800,1.250
67.5200,1.225
67.5600,1.239
67.6000,1.305
67.6400,1.385
67.6800,1.333
67.7200,1.305
67.7600,1.399
67.8000,1.323
67.8400,1.397
67.8800,1.466
67.9200,1.493
67.9600,1.417
68.0000,1.533
68.0400,1.524
68.0800,1.552
68.1200,1.624
68.1600,1.701
68.2000,1.781
68.2400,1.825
68.2800,1.841
68.3200,1.889
68.3600,1.982
68.4000,2.013
68.4400,2.197
68.4800,2.198
68.5200,2.358
68.5600,2.505
68.6000,2.535
68.6400,2.800
68.6800,3.072
68.7200,3.624
68.7600,4.686
68.8000,6.011
68.8400,6.726
68.8800,7.010
68.9200,7.200
68.9600,8.548
69.0000,11.748
69.0400,20.046
69.0800,49.901
69.1200,243.744
69.1600,474.828
69.2000,291.918
69.2400,74.649
69.2800,48.563
69.3200,144.517
69.3600,245.600
69.4000,144.356
69.4400,37.752
69.4800,14.866
69.5200,9.330
69.5600,7.176
69.6000,5.788
69.6400,5.168
69.6800,4.491
69.7200,3.835
69.7600,3.606
69.8000,3.297
69.8400,3.174
69.8800,2.941
69.9200,2.767
69.9600,2.647
70.0000,2.545
70.0400,2.453
70.0800,2.302
70.1200,2.122
70.1600,2.124
70.2000,2.209
70.2400,1.880
70.2800,1.987
70.3200,1.806
70.3600,1.790
70.4000,1.781
70.4400,1.662
70.4800,1.675
70.5200,1.573
70.5600,1.527
70.6000,1.485
70.6400,1.445
70.6800,1.441
70.7200,1.342
70.7600,1.321
70.8000,1.282
70.8400,1.278
70.8800,1.257
70.9200,1.202
70.9600,1.150
71.0000,1.187
71.0400,1.062
71.0800,1.102
71.1200,1.035
71.1600,1.092
71.2000,0.985
71.2400,1.009
71.2800,1.026
71.3200,0.987
71.3600,0.988
71.4000,0.981
71.4400,0.945
71.4800,0.881
71.5200,0.832
71.5600,0.867
71.6000,0.865
71.6400,0.831
71.6800,0.812
71.7200,0.819
71.7600,0.785
71.8000,0.785
71.8400,0.739
71.8800,0.760
71.9200,0.798
71.9600,0.785
72.0000,0.683
72.0400,0.718
72.0800,0.755
72.1200,0.758
72.1600,0.701
72.2000,0.656
72.2400,0.678
72.2800,0.613
72.3200,0.630
72.3600,0.656
72.4000,0.664
72.4400,0.659
72.4800,0.580
72.5200,0.626
72.5600,0.619
72.6000,0.557
72.6400,0.585
72.6800,0.566
72.7200,0.567
72.7600,0.557
72.8000,0.593
72.8400,0.562
72.8800,0.556
72.9200,0.511
72.9600,0.496
73.0000,0.526
73.0400,0.546
73.0800,0.509
73.1200,0.520
73.1600,0.504
73.2000,0.476
73.2400,0.521
73.2800,0.492
73.3200,0.501
73.3600,0.518
73.4000,0.470
73.4400,0.482
73.4800,0.507
73.5200,0.490
73.5600,0.460
73.6000,0.468
73.6400,0.466
73.6800,0.458
73.7200,0.438
73.7600,0.480
73.8000,0.502
73.8400,0.485
73.8800,0.469
73.9200,0.482
73.9600,0.474
74.0000,0.487
74.0400,0.422
74.0800,0.442
74.1200,0.440
74.1600,0.440
74.2000,0.428
74.2400,0.418
74.2800,0.384
74.3200,0.432
74.3600,0.412
74.4000,0.435
74.4400,0.464
74.4800,0.417
74.5200,0.406
74.5600,0.418
74.6000,0.405
74.6400,0.406
74.6800,0.418
74.7200,0.433
74.7600,0.378
74.8000,0.438
74.8400,0.416
74.8800,0.432
74.9200,0.412
74.9600,0.421
75.0000,0.422
75.0400,0.398
75.0800,0.389
75.1200,0.431
75.1600,0.413
75.2000,0.429
75.2400,0.410
75.2800,0.386
75.3200,0.395
75.3600,0.362
75.4000,0.394
75.4400,0.403
75.4800,0.386
75.5200,0.386
75.5600,0.404
75.6000,0.388
75.6400,0.421
75.6800,0.425
75.7200,0.401
75.7600,0.410
75.8000,0.384
75.8400,0.392
75.8800,0.398
75.9200,0.417
75.9600,0.384
76.0000,0.425
76.0400,0.388
76.0800,0.414
76.1200,0.369
76.1600,0.418
76.2000,0.412
76.2400,0.379
76.2800,0.382
76.3200,0.390
76.3600,0.388
76.4000,0.405
76.4400,0.378
76.4800,0.355
76.5200,0.366
76.5600,0.388
76.6000,0.375
76.6400,0.384
76.6800,0.373
76.7200,0.362
76.7600,0.374
76.8000,0.364
76.8400,0.371
76.8800,0.376
76.9200,0.389
76.9600,0.395
77.0000,0.374
77.0400,0.376
77.0800,0.401
77.1200,0.361
77.1600,0.380
77.2000,0.393
77.2400,0.357
77.2800,0.390
77.3200,0.425
77.3600,0.401
77.4000,0.400
77.4400,0.404
77.4800,0.401
77.5200,0.395
77.5600,0.406
77.6000,0.431
77.6400,0.451
77.6800,0.463
77.7200,0.419
77.7600,0.447
77.8000,0.454
77.8400,0.436
77.8800,0.454
77.9200,0.486
77.9600,0.540
78.0000,0.538
78.0400,0.531
78.0800,0.539
78.1200,0.590
78.1600,0.599
78.2000,0.650
78.2400,0.674
78.2800,0.672
78.3200,0.640
78.3600,0.716
78.4000,0.725
78.4400,0.731
78.4800,0.735
78.5200,0.784
78.5600,0.850
78.6000,0.806
78.6400,0.781
78.6800,0.784
78.7200,0.750
78.7600,0.761
78.8000,0.732
78.8400,0.774
78.8800,0.710
78.9200,0.655
78.9600,0.666
79.0000,0.682
79.0400,0.660
79.0800,0.570
79.1200,0.611
79.1600,0.579
79.2000,0.571
79.2400,0.558
79.2800,0.509
79.3200,0.442
79.3600,0.513
79.4000,0.531
79.4400,0.528
79.4800,0.533
79.5200,0.470
79.5600,0.461
79.6000,0.447
79.6400,0.449
79.6800,0.421
79.7200,0.402
79.7600,0.461
79.8000,0.417
79.8400,0.443
79.8800,0.404
79.9200,0.364
79.9600,0.379
80.0000,0.417
