theta,intensity
5.0000,4.536
5.0400,4.511
5.0800,4.431
5.1200,4.490
5.1600,4.571
5.2000,4.508
5.2400,4.417
5.2800,4.532
5.3200,4.425
5.3600,4.486
5.4000,4.355
5.4400,4.427
5.4800,4.454
5.5200,4.308
5.5600,4.336
5.6000,4.380
5.6400,4.309
5.6800,4.374
5.7200,4.186
5.7600,4.210
5.8000,4.276
5.8400,4.241
5.8800,4.304
5.9200,4.249
5.9600,4.275
6.0000,4.211
6.0400,4.085
6.0800,4.137
6.1200,4.113
6.1600,3.978
6.2000,4.032
6.2400,3.956
6.2800,3.831
6.3200,3.918
6.3600,3.882
6.4000,3.874
6.4400,3.979
6.4800,4.010
6.5200,3.919
6.5600,3.930
6.6000,3.855
6.6400,3.913
6.6800,3.921
6.7200,3.876
6.7600,3.859
6.8000,3.757
6.8400,3.914
6.8800,3.851
6.9200,3.901
6.9600,3.766
7.0000,3.822
7.0400,3.760
7.0800,3.735
7.1200,3.816
7.1600,3.801
7.2000,3.781
7.2400,3.833
7.2800,3.802
7.3200,3.864
7.3600,3.767
7.4000,3.759
7.4400,3.774
7.4800,3.841
7.5200,3.810
7.5600,3.757
7.6000,3.659
7.6400,3.758
7.6800,3.733
7.7200,3.689
7.7600,3.721
7.8000,3.674
7.8400,3.737
7.8800,3.721
7.9200,3.712
7.9600,3.656
8.0000,3.587
8.0400,3.617
8.0800,3.639
8.1200,3.678
8.1600,3.699
8.2000,3.588
8.2400,3.626
8.2800,3.632
8.3200,3.654
8.3600,3.591
8.4000,3.708
8.4400,3.659
8.4800,3.650
8.5200,3.593
8.5600,3.651
8.6000,3.658
8.6400,3.615
8.6800,3.644
8.7200,3.697
8.7600,3.575
8.8000,3.623
8.8400,3.545
8.8800,3.671
8.9200,3.592
8.9600,3.638
9.0000,3.554
9.0400,3.531
9.0800,3.608
9.1200,3.558
9.1600,3.677
9.2000,3.522
9.2400,3.366
9.2800,3.534
9.3200,3.608
9.3600,3.545
9.4000,3.541
9.4400,3.584
9.4800,3.577
9.5200,3.486
9.5600,3.574
9.6000,3.497
9.6400,3.528
9.6800,3.520
9.7200,3.576
9.7600,3.533
9.8000,3.537
9.8400,3.574
9.8800,3.412
9.9200,3.480
9.9600,3.384
10.0000,3.480
10.0400,3.538
10.0800,3.458
10.1200,3.448
10.1600,3.475
10.2000,3.453
10.2400,3.437
10.2800,3.513
10.3200,3.365
10.3600,3.468
10.4000,3.448
10.4400,3.480
10.4800,3.403
10.5200,3.543
10.5600,3.473
10.6000,3.574
10.6400,3.507
10.6800,3.560
10.7200,3.367
10.7600,3.452
10.8000,3.421
10.8400,3.496
10.8800,3.434
10.9200,3.407
10.9600,3.490
11.0000,3.414
11.0400,3.339
11.0800,3.407
11.1200,3.375
11.1600,3.427
11.2000,3.286
11.2400,3.477
11.2800,3.384
11.3200,3.321
11.3600,3.399
11.4000,3.322
11.4400,3.406
11.4800,3.312
11.5200,3.417
11.5600,3.305
11.6000,3.315
11.6400,3.305
11.6800,3.351
11.7200,3.447
11.7600,3.226
11.8000,3.266
11.8400,3.358
11.8800,3.242
11.9200,3.255
11.9600,3.285
12.0000,3.200
12.0400,3.293
12.0800,3.307
12.1200,3.366
12.1600,3.290
12.2000,3.276
12.2400,3.272
12.2800,3.319
12.3200,3.272
12.3600,3.321
12.4000,3.331
12.4400,3.354
12.4800,3.256
12.5200,3.237
12.5600,3.240
12.6000,3.219
12.6400,3.144
12.6800,3.236
12.7200,3.207
12.7600,3.268
12.8000,3.272
12.8400,3.298
12.8800,3.120
12.9200,3.303
12.9600,3.164
13.0000,3.180
13.0400,3.206
13.0800,3.240
13.1200,3.151
13.1600,3.183
13.2000,3.251
13.2400,3.278
13.2800,3.222
13.3200,3.075
13.3600,3.222
13.4000,3.153
13.4400,3.125
13.4800,3.127
13.5200,3.141
13.5600,3.140
13.6000,3.220
13.6400,3.125
13.6800,3.128
13.7200,3.148
13.7600,3.107
13.8000,3.190
13.8400,3.267
13.8800,3.151
13.9200,3.104
13.9600,3.051
14.0000,3.121
14.0400,3.159
14.0800,3.148
14.1200,3.142
14.1600,3.206
14.2000,3.160
14.2400,3.176
14.2800,3.182
14.3200,3.144
14.3600,3.209
14.4000,3.134
14.4400,3.055
14.4800,3.098
14.5200,3.123
14.5600,3.028
14.6000,3.046
14.6400,3.021
14.6800,3.024
14.7200,3.083
14.7600,3.002
14.8000,3.085
14.8400,2.975
14.8800,3.095
14.9200,3.053
14.9600,3.069
15.0000,3.156
15.0400,2.940
15.0800,3.029
15.1200,3.057
15.1600,3.021
15.2000,3.036
15.2400,3.118
15.2800,3.004
15.3200,3.074
15.3600,2.954
15.4000,2.958
15.4400,2.881
15.4800,2.993
15.5200,3.000
15.5600,2.972
15.6000,2.921
15.6400,2.988
15.6800,2.960
15.7200,2.956
15.7600,3.030
15.8000,2.994
15.8400,2.949
15.8800,2.907
15.9200,2.977
15.9600,2.975
16.0000,2.924
16.0400,2.946
16.0800,3.006
16.1200,2.916
16.1600,2.992
16.2000,3.000
16.2400,2.956
16.2800,2.915
16.3200,2.983
16.3600,2.967
16.4000,2.923
16.4400,2.802
16.4800,2.931
16.5200,2.837
16.5600,3.052
16.6000,2.860
16.6400,2.922
16.6800,2.955
16.7200,2.838
16.7600,2.894
16.8000,3.002
16.8400,2.923
16.8800,2.932
16.9200,2.941
16.9600,2.876
17.0000,2.806
17.0400,2.817
17.0800,2.881
17.1200,2.846
17.1600,2.805
17.2000,2.872
17.2400,2.866
17.2800,2.839
17.3200,2.995
17.3600,2.957
17.4000,2.815
17.4400,2.753
17.4800,2.899
17.5200,2.755
17.5600,2.913
17.6000,2.880
17.6400,2.770
17.6800,2.744
17.7200,2.837
17.7600,2.882
17.8000,2.831
17.8400,2.750
17.8800,2.870
17.9200,2.799
17.9600,2.836
18.0000,2.783
18.0400,2.725
18.0800,2.762
18.1200,2.737
18.1600,2.865
18.2000,2.753
18.2400,2.793
18.2800,2.765
18.3200,2.732
18.3600,2.826
18.4000,2.849
18.4400,2.782
18.4800,2.740
18.5200,2.771
18.5600,2.773
18.6000,2.737
18.6400,2.776
18.6800,2.787
18.7200,2.763
18.7600,2.671
18.8000,2.765
18.8400,2.836
18.8800,2.784
18.9200,2.672
18.9600,2.706
19.0000,2.713
19.0400,2.645
19.0800,2.689
19.1200,2.659
19.1600,2.672
19.2000,2.750
19.2400,2.672
19.2800,2.608
19.3200,2.665
19.3600,2.724
19.4000,2.683
19.4400,2.668
19.4800,2.537
19.5200,2.657
19.5600,2.610
19.6000,2.716
19.6400,2.608
19.6800,2.690
19.7200,2.601
19.7600,2.691
19.8000,2.618
19.8400,2.580
19.8800,2.686
19.9200,2.654
19.9600,2.624
20.0000,2.596
20.0400,2.623
20.0800,2.540
20.1200,2.590
20.1600,2.565
20.2000,2.633
20.2400,2.667
20.2800,2.596
20.3200,2.624
20.3600,2.638
20.4000,2.566
20.4400,2.591
20.4800,2.557
20.5200,2.613
20.5600,2.593
20.6000,2.582
20.6400,2.543
20.6800,2.588
20.7200,2.615
20.7600,2.605
20.8000,2.585
20.8400,2.619
20.8800,2.627
20.9200,2.612
20.9600,2.565
21.0000,2.575
21.0400,2.598
21.0800,2.534
21.1200,2.540
21.1600,2.592
21.2000,2.589
21.2400,2.527
21.2800,2.526
21.3200,2.583
21.3600,2.466
21.4000,2.511
21.4400,2.500
21.4800,2.516
21.5200,2.533
21.5600,2.539
21.6000,2.534
21.6400,2.634
21.6800,2.606
21.7200,2.525
21.7600,2.532
21.8000,2.515
21.8400,2.503
21.8800,2.437
21.9200,2.387
21.9600,2.473
22.0000,2.471
22.0400,2.543
22.0800,2.437
22.1200,2.487
22.1600,2.546
22.2000,2.550
22.2400,2.568
22.2800,2.460
22.3200,2.406
22.3600,2.457
22.4000,2.437
22.4400,2.367
22.4800,2.505
22.5200,2.352
22.5600,2.404
22.6000,2.480
22.6400,2.332
22.6800,2.392
22.7200,2.400
22.7600,2.369
22.8000,2.319
22.8400,2.503
22.8800,2.462
22.9200,2.407
22.9600,2.430
23.0000,2.318
23.0400,2.377
23.0800,2.346
23.1200,2.370
23.1600,2.449
23.2000,2.389
23.2400,2.390
23.2800,2.418
23.3200,2.476
23.3600,2.456
23.4000,2.409
23.4400,2.352
23.4800,2.290
23.5200,2.341
23.5600,2.314
23.6000,2.350
23.6400,2.347
23.6800,2.331
23.7200,2.405
23.7600,2.345
23.8000,2.377
23.8400,2.302
23.8800,2.384
23.9200,2.276
23.9600,2.354
24.0000,2.285
24.0400,2.316
24.0800,2.332
24.1200,2.328
24.1600,2.362
24.2000,2.323
24.2400,2.341
24.2800,2.231
24.3200,2.284
24.3600,2.324
24.4000,2.312
24.4400,2.246
24.4800,2.257
24.5200,2.295
24.5600,2.312
24.6000,2.322
24.6400,2.293
24.6800,2.316
24.7200,2.229
24.7600,2.211
24.8000,2.144
24.8400,2.210
24.8800,2.266
24.9200,2.270
24.9600,2.275
25.0000,2.163
25.0400,2.205
25.0800,2.204
25.1200,2.203
25.1600,2.198
25.2000,2.231
25.2400,2.132
25.2800,2.174
25.3200,2.196
25.3600,2.176
25.4000,2.144
25.4400,2.140
25.4800,2.217
25.5200,2.239
25.5600,2.153
25.6000,2.167
25.6400,2.177
25.6800,2.162
25.7200,2.118
25.7600,2.182
25.8000,2.088
25.8400,2.217
25.8800,2.191
25.9200,2.123
25.9600,2.138
26.0000,2.206
26.0400,2.201
26.0800,2.060
26.1200,2.154
26.1600,2.123
26.2000,2.160
26.2400,2.126
26.2800,2.092
26.3200,2.134
26.3600,2.149
26.4000,2.114
26.4400,2.075
26.4800,2.145
26.5200,2.105
26.5600,2.069
26.6000,2.125
26.6400,2.079
26.6800,2.169
26.7200,2.136
26.7600,2.125
26.8000,2.088
26.8400,2.031
26.8800,2.034
26.9200,2.046
26.9600,2.098
27.0000,2.031
27.0400,2.071
27.0800,2.031
27.1200,2.078
27.1600,2.038
27.2000,2.028
27.2400,2.026
27.2800,1.985
27.3200,2.025
27.3600,2.040
27.4000,2.058
27.4400,2.029
27.4800,2.027
27.5200,1.935
27.5600,2.041
27.6000,1.962
27.6400,2.043
27.6800,1.980
27.7200,1.966
27.7600,1.942
27.8000,2.047
27.8400,2.017
27.8800,2.033
27.9200,2.043
27.9600,2.006
28.0000,2.000
28.0400,1.988
28.0800,2.022
28.1200,2.036
28.1600,2.001
28.2000,2.043
28.2400,2.060
28.2800,1.982
28.3200,1.931
28.3600,1.908
28.4000,1.937
28.4400,1.946
28.4800,1.968
28.5200,1.986
28.5600,1.924
28.6000,1.976
28.6400,1.871
28.6800,1.902
28.7200,1.967
28.7600,1.900
28.8000,1.893
28.8400,1.898
28.8800,1.940
28.9200,1.906
28.9600,1.914
29.0000,1.871
29.0400,1.851
29.0800,1.970
29.1200,1.984
29.1600,1.929
29.2000,1.926
29.2400,1.886
29.2800,1.926
29.3200,1.837
29.3600,1.850
29.4000,1.792
29.4400,1.826
29.4800,1.861
29.5200,1.916
29.5600,1.883
29.6000,1.886
29.6400,1.796
29.6800,1.895
29.7200,1.886
29.7600,1.824
29.8000,1.884
29.8400,1.854
29.8800,1.788
29.9200,1.886
29.9600,1.846
30.0000,1.881
30.0400,1.768
30.0800,1.875
30.1200,1.779
30.1600,1.809
30.2000,1.830
30.2400,1.847
30.2800,1.787
30.3200,1.818
30.3600,1.765
30.4000,1.842
30.4400,1.781
30.4800,1.853
30.5200,1.738
30.5600,1.741
30.6000,1.742
30.6400,1.796
30.6800,1.791
30.7200,1.781
30.7600,1.769
30.8000,1.808
30.8400,1.792
30.8800,1.788
30.9200,1.817
30.9600,1.731
31.0000,1.708
31.0400,1.778
31.0800,1.726
31.1200,1.752
31.1600,1.759
31.2000,1.789
31.2400,1.723
31.2800,1.754
31.3200,1.766
31.3600,1.706
31.4000,1.703
31.4400,1.738
31.4800,1.697
31.5200,1.720
31.5600,1.699
31.6000,1.603
31.6400,1.733
31.6800,1.729
31.7200,1.655
31.7600,1.682
31.8000,1.675
31.8400,1.652
31.8800,1.678
31.9200,1.699
31.9600,1.653
32.0000,1.751
32.0400,1.707
32.0800,1.679
32.1200,1.661
32.1600,1.708
32.2000,1.719
32.2400,1.703
32.2800,1.721
32.3200,1.689
32.3600,1.639
32.4000,1.663
32.4400,1.721
32.4800,1.727
32.5200,1.717
32.5600,1.689
32.6000,1.686
32.6400,1.646
32.6800,1.661
32.7200,1.662
32.7600,1.686
32.8000,1.686
32.8400,1.707
32.8800,1.684
32.9200,1.639
32.9600,1.658
33.0000,1.675
33.0400,1.762
33.0800,1.776
33.1200,1.708
33.1600,1.522
33.2000,1.581
33.2400,1.608
33.2800,1.676
33.3200,1.643
33.3600,1.691
33.4000,1.653
33.4400,1.694
33.4800,1.648
33.5200,1.609
33.5600,1.569
33.6000,1.597
33.6400,1.568
33.6800,1.599
33.7200,1.617
33.7600,1.604
33.8000,1.597
33.8400,1.570
33.8800,1.572
33.9200,1.558
33.9600,1.549
34.0000,1.599
34.0400,1.576
34.0800,1.574
34.1200,1.588
34.1600,1.617
34.2000,1.563
34.2400,1.584
34.2800,1.515
34.3200,1.492
34.3600,1.563
34.4000,1.522
34.4400,1.575
34.4800,1.488
34.5200,1.466
34.5600,1.538
34.6000,1.550
34.6400,1.597
34.6800,1.510
34.7200,1.468
34.7600,1.568
34.8000,1.503
34.8400,1.534
34.8800,1.529
34.9200,1.464
34.9600,1.528
35.0000,1.512
35.0400,1.535
35.0800,1.456
35.1200,1.551
35.1600,1.474
35.2000,1.507
35.2400,1.508
35.2800,1.484
35.3200,1.485
35.3600,1.435
35.4000,1.450
35.4400,1.531
35.4800,1.517
35.5200,1.555
35.5600,1.485
35.6000,1.440
35.6400,1.478
35.6800,1.396
35.7200,1.532
35.7600,1.529
35.8000,1.510
35.8400,1.503
35.8800,1.525
35.9200,1.454
35.9600,1.537
36.0000,1.440
36.0400,1.508
36.0800,1.405
36.1200,1.463
36.1600,1.484
36.2000,1.484
36.2400,1.452
36.2800,1.442
36.3200,1.501
36.3600,1.435
36.4000,1.436
36.4400,1.412
36.4800,1.522
36.5200,1.491
36.5600,1.465
36.6000,1.451
36.6400,1.445
36.6800,1.453
36.7200,1.473
36.7600,1.439
36.8000,1.463
36.8400,1.406
36.8800,1.456
36.9200,1.462
36.9600,1.402
37.0000,1.478
37.0400,1.426
37.0800,1.458
37.1200,1.481
37.1600,1.449
37.2000,1.420
37.2400,1.354
37.2800,1.402
37.3200,1.417
37.3600,1.498
37.4000,1.492
37.4400,1.473
37.4800,1.517
37.5200,1.491
37.5600,1.472
37.6000,1.460
37.6400,1.511
37.6800,1.489
37.7200,1.503
37.7600,1.532
37.8000,1.557
37.8400,1.521
37.8800,1.625
37.9200,1.628
37.9600,1.603
38.0000,1.683
38.0400,1.678
38.0800,1.720
38.1200,1.686
38.1600,1.724
38.2000,1.800
38.2400,1.899
38.2800,1.987
38.3200,2.156
38.3600,2.161
38.4000,2.451
38.4400,2.757
38.4800,3.203
38.5200,3.845
38.5600,4.584
38.6000,6.008
38.6400,7.915
38.6800,10.864
38.7200,14.416
38.7600,17.736
38.8000,20.312
38.8400,20.727
38.8800,19.460
38.9200,16.796
38.9600,13.493
39.0000,10.364
39.0400,7.980
39.0800,6.245
39.1200,4.935
39.1600,4.106
39.2000,3.417
39.2400,3.024
39.2800,2.694
39.3200,2.561
39.3600,2.365
39.4000,2.189
39.4400,2.046
39.4800,1.932
39.5200,1.879
39.5600,1.840
39.6000,1.747
39.6400,1.714
39.6800,1.609
39.7200,1.613
39.7600,1.556
39.8000,1.576
39.8400,1.508
39.8800,1.502
39.9200,1.495
39.9600,1.437
40.0000,1.495
40.0400,1.397
40.0800,1.452
40.1200,1.424
40.1600,1.406
40.2000,1.367
40.2400,1.346
40.2800,1.373
40.3200,1.378
40.3600,1.380
40.4000,1.349
40.4400,1.306
40.4800,1.299
40.5200,1.279
40.5600,1.384
40.6000,1.305
40.6400,1.301
40.6800,1.293
40.7200,1.308
40.7600,1.274
40.8000,1.271
40.8400,1.237
40.8800,1.240
40.9200,1.237
40.9600,1.234
41.0000,1.237
41.0400,1.180
41.0800,1.259
41.1200,1.212
41.1600,1.212
41.2000,1.197
41.2400,1.236
41.2800,1.172
41.3200,1.207
41.3600,1.208
41.4000,1.191
41.4400,1.145
41.4800,1.191
41.5200,1.113
41.5600,1.159
41.6000,1.254
41.6400,1.174
41.6800,1.109
41.7200,1.139
41.7600,1.165
41.8000,1.090
41.8400,1.173
41.8800,1.200
41.9200,1.165
41.9600,1.090
42.0000,1.115
42.0400,1.162
42.0800,1.148
42.1200,1.209
42.1600,1.098
42.2000,1.096
42.2400,1.099
42.2800,1.167
42.3200,1.115
42.3600,1.158
42.4000,1.157
42.4400,1.136
42.4800,1.084
42.5200,1.080
42.5600,1.122
42.6000,1.130
42.6400,1.184
42.6800,1.133
42.7200,1.106
42.7600,1.069
42.8000,1.174
42.8400,1.087
42.8800,1.088
42.9200,1.135
42.9600,1.114
43.0000,1.131
43.0400,1.084
43.0800,1.072
43.1200,1.144
43.1600,1.120
43.2000,1.160
43.2400,1.074
43.2800,1.097
43.3200,1.096
43.3600,1.116
43.4000,1.090
43.4400,1.087
43.4800,1.077
43.5200,1.123
43.5600,1.073
43.6000,1.069
43.6400,1.117
43.6800,1.054
43.7200,1.085
43.7600,1.139
43.8000,1.130
43.8400,1.096
43.8800,1.122
43.9200,1.131
43.9600,1.034
44.0000,1.065
44.0400,1.161
44.0800,1.116
44.1200,1.128
44.1600,1.177
44.2000,1.178
44.2400,1.136
44.2800,1.124
44.3200,1.234
44.3600,1.227
44.4000,1.202
44.4400,1.217
44.4800,1.267
44.5200,1.338
44.5600,1.284
44.6000,1.359
44.6400,1.393
44.6800,1.436
44.7200,1.590
44.7600,1.631
44.8000,1.802
44.8400,1.832
44.8800,2.178
44.9200,2.378
44.9600,2.741
45.0000,3.029
45.0400,3.569
45.0800,4.319
45.1200,4.746
45.1600,5.328
45.2000,5.527
45.2400,5.625
45.2800,5.350
45.3200,4.914
45.3600,4.495
45.4000,4.072
45.4400,3.445
45.4800,2.982
45.5200,2.558
45.5600,2.232
45.6000,2.045
45.6400,1.767
45.6800,1.731
45.7200,1.560
45.7600,1.457
45.8000,1.353
45.8400,1.291
45.8800,1.281
45.9200,1.264
45.9600,1.215
46.0000,1.168
46.0400,1.109
46.0800,1.133
46.1200,1.070
46.1600,1.077
46.2000,1.011
46.2400,1.050
46.2800,1.034
46.3200,1.001
46.3600,0.993
46.4000,0.995
46.4400,0.943
46.4800,0.955
46.5200,0.923
46.5600,0.933
46.6000,0.914
46.6400,0.995
46.6800,0.962
46.7200,0.972
46.7600,0.950
46.8000,0.883
46.8400,0.931
46.8800,0.952
46.9200,0.930
46.9600,0.907
47.0000,0.888
47.0400,0.871
47.0800,0.962
47.1200,0.850
47.1600,0.898
47.2000,0.874
47.2400,0.918
47.2800,0.876
47.3200,0.905
47.3600,0.828
47.4000,0.909
47.4400,0.934
47.4800,0.897
47.5200,0.890
47.5600,0.874
47.6000,0.860
47.6400,0.878
47.6800,0.865
47.7200,0.821
47.7600,0.851
47.8000,0.916
47.8400,0.849
47.8800,0.862
47.9200,0.853
47.9600,0.838
48.0000,0.862
48.0400,0.853
48.0800,0.867
48.1200,0.836
48.1600,0.824
48.2000,0.840
48.2400,0.891
48.2800,0.820
48.3200,0.896
48.3600,0.840
48.4000,0.825
48.4400,0.843
48.4800,0.852
48.5200,0.776
48.5600,0.809
48.6000,0.850
48.6400,0.777
48.6800,0.862
48.7200,0.807
48.7600,0.815
48.8000,0.783
48.8400,0.793
48.8800,0.821
48.9200,0.798
48.9600,0.810
49.0000,0.795
49.0400,0.812
49.0800,0.816
49.1200,0.788
49.1600,0.864
49.2000,0.819
49.2400,0.815
49.2800,0.836
49.3200,0.826
49.3600,0.834
49.4000,0.781
49.4400,0.799
49.4800,0.789
49.5200,0.847
49.5600,0.790
49.6000,0.784
49.6400,0.786
49.6800,0.789
49.7200,0.821
49.7600,0.798
49.8000,0.799
49.8400,0.783
49.8800,0.806
49.9200,0.752
49.9600,0.812
50.0000,0.757
50.0400,0.764
50.0800,0.777
50.1200,0.787
50.1600,0.837
50.2000,0.798
50.2400,0.761
50.2800,0.778
50.3200,0.782
50.3600,0.759
50.4000,0.749
50.4400,0.806
50.4800,0.762
50.5200,0.760
50.5600,0.776
50.6000,0.750
50.6400,0.772
50.6800,0.742
50.7200,0.763
50.7600,0.749
50.8000,0.747
50.8400,0.756
50.8800,0.782
50.9200,0.744
50.9600,0.757
51.0000,0.729
51.0400,0.761
51.0800,0.756
51.1200,0.727
51.1600,0.730
51.2000,0.718
51.2400,0.767
51.2800,0.774
51.3200,0.755
51.3600,0.753
51.4000,0.767
51.4400,0.781
51.4800,0.746
51.5200,0.721
51.5600,0.758
51.6000,0.720
51.6400,0.746
51.6800,0.725
51.7200,0.680
51.7600,0.726
51.8000,0.711
51.8400,0.707
51.8800,0.720
51.9200,0.673
51.9600,0.694
52.0000,0.722
52.0400,0.744
52.0800,0.719
52.1200,0.730
52.1600,0.695
52.2000,0.718
52.2400,0.728
52.2800,0.758
52.3200,0.698
52.3600,0.686
52.4000,0.679
52.4400,0.721
52.4800,0.683
52.5200,0.679
52.5600,0.668
52.6000,0.712
52.6400,0.751
52.6800,0.724
52.7200,0.696
52.7600,0.687
52.8000,0.689
52.8400,0.688
52.8800,0.703
52.9200,0.680
52.9600,0.715
53.0000,0.671
53.0400,0.728
53.0800,0.700
53.1200,0.663
53.1600,0.733
53.2000,0.741
53.2400,0.705
53.2800,0.721
53.3200,0.700
53.3600,0.673
53.4000,0.694
53.4400,0.668
53.4800,0.731
53.5200,0.688
53.5600,0.704
53.6000,0.737
53.6400,0.714
53.6800,0.643
53.7200,0.647
53.7600,0.684
53.8000,0.692
53.8400,0.676
53.8800,0.687
53.9200,0.654
53.9600,0.674
54.0000,0.653
54.0400,0.670
54.0800,0.664
54.1200,0.673
54.1600,0.695
54.2000,0.644
54.2400,0.676
54.2800,0.664
54.3200,0.687
54.3600,0.628
54.4000,0.668
54.4400,0.668
54.4800,0.719
54.5200,0.660
54.5600,0.645
54.6000,0.661
54.6400,0.656
54.6800,0.663
54.7200,0.690
54.7600,0.690
54.8000,0.681
54.8400,0.643
54.8800,0.656
54.9200,0.655
54.9600,0.644
55.0000,0.636
55.0400,0.639
55.0800,0.614
55.1200,0.654
55.1600,0.658
55.2000,0.629
55.2400,0.684
55.2800,0.647
55.3200,0.597
55.3600,0.667
55.4000,0.637
55.4400,0.663
55.4800,0.665
55.5200,0.649
55.5600,0.611
55.6000,0.617
55.6400,0.672
55.6800,0.658
55.7200,0.629
55.7600,0.637
55.8000,0.654
55.8400,0.641
55.8800,0.605
55.9200,0.649
55.9600,0.616
56.0000,0.646
56.0400,0.595
56.0800,0.612
56.1200,0.610
56.1600,0.661
56.2000,0.666
56.2400,0.624
56.2800,0.593
56.3200,0.659
56.3600,0.649
56.4000,0.659
56.4400,0.651
56.4800,0.619
56.5200,0.635
56.5600,0.613
56.6000,0.602
56.6400,0.651
56.6800,0.622
56.7200,0.608
56.7600,0.637
56.8000,0.623
56.8400,0.625
56.8800,0.598
56.9200,0.640
56.9600,0.641
57.0000,0.595
57.0400,0.649
57.0800,0.603
57.1200,0.607
57.1600,0.600
57.2000,0.610
57.2400,0.602
57.2800,0.647
57.3200,0.572
57.3600,0.603
57.4000,0.579
57.4400,0.650
57.4800,0.596
57.5200,0.650
57.5600,0.589
57.6000,0.609
57.6400,0.618
57.6800,0.594
57.7200,0.575
57.7600,0.604
57.8000,0.630
57.8400,0.605
57.8800,0.600
57.9200,0.607
57.9600,0.641
58.0000,0.609
58.0400,0.602
58.0800,0.592
58.1200,0.609
58.1600,0.597
58.2000,0.604
58.2400,0.637
58.2800,0.615
58.3200,0.591
58.3600,0.559
58.4000,0.566
58.4400,0.614
58.4800,0.634
58.5200,0.619
58.5600,0.611
58.6000,0.570
58.6400,0.621
58.6800,0.587
58.7200,0.599
58.7600,0.607
58.8000,0.570
58.8400,0.589
58.8800,0.593
58.9200,0.591
58.9600,0.633
59.0000,0.618
59.0400,0.576
59.0800,0.612
59.1200,0.576
59.1600,0.579
59.2000,0.601
59.2400,0.576
59.2800,0.592
59.3200,0.618
59.3600,0.589
59.4000,0.535
59.4400,0.555
59.4800,0.543
59.5200,0.573
59.5600,0.592
59.6000,0.563
59.6400,0.571
59.6800,0.616
59.7200,0.586
59.7600,0.549
59.8000,0.571
59.8400,0.575
59.8800,0.577
59.9200,0.567
59.9600,0.613
60.0000,0.551
60.0400,0.569
60.0800,0.556
60.1200,0.589
60.1600,0.566
60.2000,0.564
60.2400,0.542
60.2800,0.552
60.3200,0.593
60.3600,0.548
60.4000,0.588
60.4400,0.546
60.4800,0.575
60.5200,0.519
60.5600,0.512
60.6000,0.546
60.6400,0.579
60.6800,0.568
60.7200,0.551
60.7600,0.608
60.8000,0.532
60.8400,0.556
60.8800,0.570
60.9200,0.580
60.9600,0.556
61.0000,0.551
61.0400,0.573
61.0800,0.551
61.1200,0.545
61.1600,0.579
61.2000,0.551
61.2400,0.545
61.2800,0.528
61.3200,0.549
61.3600,0.564
61.4000,0.521
61.4400,0.506
61.4800,0.571
61.5200,0.563
61.5600,0.536
61.6000,0.550
61.6400,0.550
61.6800,0.648
61.7200,0.681
61.7600,0.585
61.8000,0.580
61.8400,0.525
61.8800,0.547
61.9200,0.522
61.9600,0.538
62.0000,0.532
62.0400,0.552
62.0800,0.552
62.1200,0.562
62.1600,0.528
62.2000,0.538
62.2400,0.535
62.2800,0.525
62.3200,0.556
62.3600,0.570
62.4000,0.536
62.4400,0.528
62.4800,0.533
62.5200,0.581
62.5600,0.523
62.6000,0.488
62.6400,0.533
62.6800,0.533
62.7200,0.514
62.7600,0.549
62.8000,0.600
62.8400,0.559
62.8800,0.564
62.9200,0.521
62.9600,0.562
63.0000,0.545
63.0400,0.538
63.0800,0.559
63.1200,0.559
63.1600,0.567
63.2000,0.536
63.2400,0.597
63.2800,0.565
63.3200,0.541
63.3600,0.538
63.4000,0.582
63.4400,0.547
63.4800,0.584
63.5200,0.550
63.5600,0.566
63.6000,0.567
63.6400,0.556
63.6800,0.538
63.7200,0.558
63.7600,0.591
63.8000,0.563
63.8400,0.578
63.8800,0.582
63.9200,0.564
63.9600,0.596
64.0000,0.542
64.0400,0.608
64.0800,0.547
64.1200,0.601
64.1600,0.591
64.2000,0.593
64.2400,0.585
64.2800,0.603
64.3200,0.550
64.3600,0.564
64.4000,0.627
64.4400,0.604
64.4800,0.580
64.5200,0.622
64.5600,0.628
64.6000,0.648
64.6400,0.644
64.6800,0.621
64.7200,0.645
64.7600,0.628
64.8000,0.656
64.8400,0.684
64.8800,0.661
64.9200,0.685
64.9600,0.704
65.0000,0.698
65.0400,0.737
65.0800,0.782
65.1200,0.801
65.1600,0.847
65.2000,0.835
65.2400,0.973
65.2800,0.990
65.3200,1.055
65.3600,1.145
65.4000,1.331
65.4400,1.470
65.4800,1.715
65.5200,1.904
65.5600,2.111
65.6000,2.325
65.6400,2.540
65.6800,2.685
65.7200,2.635
65.7600,2.616
65.8000,2.586
65.8400,2.369
65.8800,2.181
65.9200,2.150
65.9600,1.890
66.0000,1.638
66.0400,1.524
66.0800,1.462
66.1200,1.347
66.1600,1.204
66.2000,1.143
66.2400,1.038
66.2800,1.081
66.3200,1.083
66.3600,0.990
66.4000,0.939
66.4400,0.924
66.4800,0.905
66.5200,0.919
66.5600,0.913
66.6000,0.934
66.6400,0.932
66.6800,0.930
66.7200,0.923
66.7600,0.905
66.8000,0.922
66.8400,0.936
66.8800,0.897
66.9200,0.897
66.9600,0.937
67.0000,0.913
67.0400,0.929
67.0800,0.997
67.1200,0.937
67.1600,0.949
67.2000,0.900
67.2400,0.984
67.2800,1.014
67.3200,1.064
67.3600,1.027
67.4000,1.039
67.4400,1.066
67.4800,1.152
67.5200,1.148
67.5600,1.161
67.6000,1.135
67.6400,1.199
67.6800,1.131
67.7200,1.201
67.7600,1.238
67.8000,1.248
67.8400,1.282
67.8800,1.256
67.9200,1.394
67.9600,1.363
68.0000,1.434
68.0400,1.390
68.0800,1.503
68.1200,1.497
68.1600,1.554
68.2000,1.633
68.2400,1.632
68.2800,1.685
68.3200,1.751
68.3600,1.694
68.4000,1.859
68.4400,1.886
68.4800,2.031
68.5200,2.156
68.5600,2.197
68.6000,2.288
68.6400,2.492
68.6800,2.664
68.7200,3.041
68.7600,3.614
68.8000,4.770
68.8400,5.801
68.8800,6.121
68.9200,6.150
68.9600,6.730
69.0000,8.441
69.0400,12.385
69.0800,24.638
69.1200,96.142
69.1600,356.689
69.2000,394.547
69.2400,143.284
69.2800,43.130
69.3200,69.167
69.3600,194.146
69.4000,199.423
69.4400,72.528
69.4800,19.833
69.5200,10.425
69.5600,7.311
69.6000,5.785
69.6400,4.812
69.6800,4.290
69.7200,3.742
69.7600,3.421
69.8000,3.153
69.8400,2.990
69.8800,2.711
69.9200,2.574
69.9600,2.394
70.0000,2.409
70.0400,2.156
70.0800,2.211
70.1200,2.037
70.1600,2.039
70.2000,1.881
70.2400,1.830
70.2800,1.798
70.3200,1.779
70.3600,1.643
70.4000,1.629
70.4400,1.574
70.4800,1.562
70.5200,1.504
70.5600,1.424
70.6000,1.427
70.6400,1.395
70.6800,1.297
70.7200,1.338
70.7600,1.215
70.8000,1.233
70.8400,1.198
70.8800,1.165
70.9200,1.134
70.9600,1.177
71.0000,1.111
71.0400,1.054
71.0800,1.046
71.1200,1.066
71.1600,1.014
71.2000,0.999
71.2400,0.962
71.2800,0.903
71.3200,0.871
71.3600,0.879
71.4000,0.907
71.4400,0.898
71.4800,0.864
71.5200,0.852
71.5600,0.841
71.6000,0.857
71.6400,0.798
71.6800,0.781
71.7200,0.757
71.7600,0.753
71.8000,0.743
71.8400,0.781
71.8800,0.686
71.9200,0.715
71.9600,0.707
72.0000,0.700
72.0400,0.664
72.0800,0.696
72.1200,0.685
72.1600,0.630
72.2000,0.645
72.2400,0.624
72.2800,0.634
72.3200,0.641
72.3600,0.631
72.4000,0.610
72.4400,0.558
72.4800,0.571
72.5200,0.578
72.5600,0.568
72.6000,0.564
72.6400,0.568
72.6800,0.564
72.7200,0.561
72.7600,0.612
72.8000,0.564
72.8400,0.502
72.8800,0.519
72.9200,0.493
72.9600,0.484
73.0000,0.489
73.0400,0.517
73.0800,0.505
73.1200,0.481
73.1600,0.504
73.2000,0.534
73.2400,0.490
73.2800,0.424
73.3200,0.465
73.3600,0.466
73.4000,0.450
73.4400,0.481
73.4800,0.468
73.5200,0.466
73.5600,0.503
73.6000,0.474
73.6400,0.484
73.6800,0.452
73.7200,0.436
73.7600,0.417
73.8000,0.450
73.8400,0.432
73.8800,0.449
73.9200,0.466
73.9600,0.415
74.0000,0.460
74.0400,0.454
74.0800,0.464
74.1200,0.435
74.1600,0.447
74.2000,0.416
74.2400,0.439
74.2800,0.420
74.3200,0.427
74.3600,0.406
74.4000,0.397
74.4400,0.417
74.4800,0.428
74.5200,0.451
74.5600,0.400
74.6000,0.373
74.6400,0.422
74.6800,0.404
74.7200,0.397
74.7600,0.377
74.8000,0.426
74.8400,0.347
74.8800,0.373
74.9200,0.416
74.9600,0.398
75.0000,0.429
75.0400,0.413
75.0800,0.393
75.1200,0.371
75.1600,0.397
75.2000,0.423
75.2400,0.417
75.2800,0.403
75.3200,0.387
75.3600,0.430
75.4000,0.359
75.4400,0.359
75.4800,0.369
75.5200,0.365
75.5600,0.359
75.6000,0.396
75.6400,0.426
75.6800,0.381
75.7200,0.376
75.7600,0.360
75.8000,0.358
75.8400,0.340
75.8800,0.398
75.9200,0.391
75.9600,0.379
76.0000,0.372
76.0400,0.389
76.0800,0.405
76.1200,0.369
76.1600,0.355
76.2000,0.381
76.2400,0.358
76.2800,0.394
76.3200,0.383
76.3600,0.358
76.4000,0.343
76.4400,0.346
76.4800,0.361
76.5200,0.408
76.5600,0.346
76.6000,0.360
76.6400,0.369
76.6800,0.379
76.7200,0.401
76.7600,0.357
76.8000,0.377
76.8400,0.392
76.8800,0.367
76.9200,0.345
76.9600,0.355
77.0000,0.377
77.0400,0.361
77.0800,0.361
77.1200,0.377
77.1600,0.351
77.2000,0.355
77.2400,0.380
77.2800,0.382
77.3200,0.399
77.3600,0.382
77.4000,0.366
77.4400,0.357
77.4800,0.388
77.5200,0.365
77.5600,0.390
77.6000,0.378
77.6400,0.352
77.6800,0.346
77.7200,0.350
77.7600,0.402
77.8000,0.383
77.8400,0.341
77.8800,0.373
77.9200,0.381
77.9600,0.397
78.0000,0.392
78.0400,0.401
78.0800,0.413
78.1200,0.423
78.1600,0.404
78.2000,0.420
78.2400,0.444
78.2800,0.476
78.3200,0.487
78.3600,0.476
78.4000,0.536
78.4400,0.555
78.4800,0.582
78.5200,0.652
78.5600,0.694
78.6000,0.720
78.6400,0.805
78.6800,0.901
78.7200,1.011
78.7600,1.123
78.8000,1.267
78.8400,1.358
78.8800,1.474
78.9200,1.653
78.9600,1.719
79.0000,1.765
79.0400,1.735
79.0800,1.775
79.1200,1.768
79.1600,1.667
79.2000,1.569
79.2400,1.460
79.2800,1.376
79.3200,1.266
79.3600,1.171
79.4000,1.043
79.4400,1.020
79.4800,0.944
79.5200,0.819
79.5600,0.766
79.6000,0.705
79.6400,0.667
79.6800,0.614
79.7200,0.567
79.7600,0.561
79.8000,0.547
79.8400,0.497
79.8800,0.509
79.9200,0.468
79.9600,0.432
80.0000,0.405
