5.0400,6.270
5.0800,6.469
5.1200,6.151
5.1600,6.061
5.2000,6.135
5.2400,6.057
5.2800,5.872
5.3200,5.813
5.3600,5.847
5.4000,5.718
5.4400,5.724
5.4800,5.823
5.5200,5.654
5.5600,5.610
5.6000,5.580
5.6400,5.337
5.6800,5.467
5.7200,5.459
5.7600,5.337
5.8000,4.969
5.8400,5.105
5.8800,5.116
5.9200,5.077
5.9600,4.964
6.0000,4.720
6.0400,5.025
6.0800,4.650
6.1200,4.818
6.1600,4.757
6.2000,4.771
6.2400,4.791
6.2800,4.529
6.3200,4.626
6.3600,4.576
6.4000,4.617
6.4400,4.549
6.4800,4.721
6.5200,4.464
6.5600,4.459
6.6000,4.580
6.6400,4.486
6.6800,4.484
6.7200,4.425
6.7600,4.493
6.8000,4.677
6.8400,4.616
6.8800,4.519
6.9200,4.303
6.9600,4.375
7.0000,4.632
7.0400,4.448
7.0800,4.400
7.1200,4.566
7.1600,4.535
7.2000,4.326
7.2400,4.538
7.2800,4.543
7.3200,4.354
7.3600,4.318
7.4000,4.374
7.4400,4.406
7.4800,4.417
7.5200,4.483
7.5600,4.633
7.6000,4.245
7.6400,4.436
7.6800,4.350
7.7200,4.533
7.7600,4.428
7.8000,4.259
7.8400,4.216
7.8800,4.267
7.9200,4.238
7.9600,4.230
8.0000,4.446
8.0400,4.222
8.0800,4.289
8.1200,4.305
8.1600,4.296
8.2000,4.277
8.2400,4.201
8.2800,4.226
8.3200,4.441
8.3600,4.214
8.4000,4.240
8.4400,4.302
8.4800,4.293
8.5200,4.266
8.5600,4.264
8.6000,4.400
8.6400,4.317
8.6800,4.281
8.7200,4.187
8.7600,4.274
8.8000,4.261
8.8400,4.188
8.8800,4.123
8.9200,4.144
8.9600,4.141
9.0000,3.970
9.0400,4.248
9.0800,4.028
9.1200,4.146
9.1600,4.128
9.2000,4.070
9.2400,4.179
9.2800,4.035
9.3200,4.035
9.3600,4.199
9.4000,4.130
9.4400,4.077
9.4800,4.126
9.5200,4.149
9.5600,3.947
9.6000,4.066
9.6400,4.009
9.6800,4.128
9.7200,4.091
9.7600,4.100
9.8000,3.799
9.8400,3.873
9.8800,3.915
9.9200,3.861
9.9600,3.836
10.0000,3.927
10.0400,3.838
10.0800,3.932
10.1200,3.967
10.1600,3.788
10.2000,3.865
10.2400,3.873
10.2800,3.999
10.3200,3.908
10.3600,3.761
10.4000,3.761
10.4400,3.747
10.4800,3.830
10.5200,3.855
10.5600,3.832
10.6000,3.814
10.6400,3.685
10.6800,3.616
10.7200,3.682
10.7600,3.766
10.8000,3.734
10.8400,3.800
10.8800,3.918
10.9200,3.698
10.9600,3.717
11.0000,3.735
11.0400,3.742
11.0800,3.731
11.1200,3.792
11.1600,3.683
11.2000,3.692
11.2400,3.658
11.2800,3.718
11.3200,3.759
11.3600,3.853
11.4000,3.829
11.4400,3.778
11.4800,3.811
11.5200,3.688
11.5600,3.555
11.6000,3.639
11.6400,3.596
11.6800,3.691
11.7200,3.759
11.7600,3.632
11.8000,3.614
11.8400,3.790
11.8800,3.776
11.9200,3.624
11.9600,3.652
12.0000,3.553
12.0400,3.598
12.0800,3.563
12.1200,3.551
12.1600,3.581
12.2000,3.565
12.2400,3.666
12.2800,3.494
12.3200,3.637
12.3600,3.724
12.4000,3.457
12.4400,3.561
12.4800,3.481
12.5200,3.464
12.5600,3.670
12.6000,3.458
12.6400,3.469
12.6800,3.459
12.7200,3.354
12.7600,3.542
12.8000,3.428
12.8400,3.552
12.8800,3.467
12.9200,3.454
12.9600,3.339
13.0000,3.542
13.0400,3.569
13.0800,3.458
13.1200,3.484
13.1600,3.469
13.2000,3.562
13.2400,3.616
13.2800,3.603
13.3200,3.376
13.3600,3.349
13.4000,3.441
13.4400,3.377
13.4800,3.502
13.5200,3.545
13.5600,3.374
13.6000,3.454
13.6400,3.266
13.6800,3.425
13.7200,3.390
13.7600,3.376
13.8000,3.347
13.8400,3.365
13.8800,3.254
13.9200,3.514
13.9600,3.392
14.0000,3.311
14.0400,3.349
14.0800,3.274
14.1200,3.279
14.1600,3.276
14.2000,3.468
14.2400,3.308
14.2800,3.290
14.3200,3.342
14.3600,3.422
14.4000,3.235
14.4400,3.301
14.4800,3.356
14.5200,3.211
14.5600,3.305
14.6000,3.311
14.6400,3.308
14.6800,3.241
14.7200,3.224
14.7600,3.288
14.8000,3.214
14.8400,3.392
14.8800,3.221
14.9200,3.346
14.9600,3.224
15.0000,3.266
15.0400,3.224
15.0800,3.385
15.1200,3.257
15.1600,3.384
15.2000,3.162
15.2400,3.164
15.2800,3.276
15.3200,3.174
15.3600,3.199
15.4000,3.321
15.4400,3.070
15.4800,2.999
15.5200,3.239
15.5600,3.229
15.6000,3.139
15.6400,3.053
15.6800,3.198
15.7200,3.146
15.7600,3.203
15.8000,3.187
15.8400,3.053
15.8800,3.078
15.9200,3.271
15.9600,3.103
16.0000,3.061
16.0400,3.139
16.0800,3.075
16.1200,3.097
16.1600,3.263
16.2000,3.327
16.2400,3.042
16.2800,3.155
16.3200,2.968
16.3600,3.118
16.4000,3.120
16.4400,3.101
16.4800,3.165
16.5200,3.115
16.5600,3.048
16.6000,3.160
16.6400,3.070
16.6800,3.015
16.7200,3.091
16.7600,2.979
16.8000,2.931
16.8400,3.047
16.8800,3.118
16.9200,2.980
16.9600,3.197
17.0000,3.251
17.0400,3.002
17.0800,3.037
17.1200,3.091
17.1600,2.944
17.2000,3.078
17.2400,3.029
17.2800,2.927
17.3200,2.958
17.3600,3.162
17.4000,3.000
17.4400,2.998
17.4800,2.976
17.5200,2.923
17.5600,2.991
17.6000,2.850
17.6400,2.970
17.6800,2.949
17.7200,3.135
17.7600,3.006
17.8000,3.004
17.8400,3.001
17.8800,3.024
17.9200,2.931
17.9600,3.169
18.0000,2.977
18.0400,2.875
18.0800,2.888
18.1200,2.882
18.1600,2.876
18.2000,3.047
18.2400,3.041
18.2800,2.891
18.3200,3.096
18.3600,2.951
18.4000,2.976
18.4400,2.883
18.4800,3.000
18.5200,2.953
18.5600,3.008
18.6000,2.933
18.6400,2.916
18.6800,2.893
18.7200,2.832
18.7600,2.854
18.8000,2.888
18.8400,2.994
18.8800,2.987
18.9200,2.898
18.9600,2.940
19.0000,2.970
19.0400,2.868
19.0800,2.893
19.1200,2.717
19.1600,2.856
19.2000,2.752
19.2400,2.735
19.2800,2.902
19.3200,2.879
19.3600,2.837
19.4000,2.802
19.4400,2.846
19.4800,2.785
19.5200,2.833
19.5600,2.686
19.6000,2.897
19.6400,2.856
19.6800,2.919
19.7200,2.729
19.7600,2.877
19.8000,2.931
19.8400,2.869
19.8800,2.704
19.9200,2.758
19.9600,2.908
20.0000,2.908
20.0400,2.846
20.0800,2.953
20.1200,2.810
20.1600,2.839
20.2000,2.759
20.2400,2.807
20.2800,2.740
20.3200,2.773
20.3600,2.865
20.4000,2.614
20.4400,2.722
20.4800,2.905
20.5200,2.885
20.5600,2.782
20.6000,2.766
20.6400,2.563
20.6800,2.765
20.7200,2.681
20.7600,2.606
20.8000,2.654
20.8400,2.643
20.8800,2.769
20.9200,2.724
20.9600,2.701
21.0000,2.757
21.0400,2.712
21.0800,2.658
21.1200,2.840
21.1600,2.764
21.2000,2.616
21.2400,2.664
21.2800,2.781
21.3200,2.693
21.3600,2.704
21.4000,2.575
21.4400,2.823
21.4800,2.666
21.5200,2.718
21.5600,2.670
21.6000,2.652
21.6400,2.643
21.6800,2.716
21.7200,2.732
21.7600,2.735
21.8000,2.669
21.8400,2.620
21.8800,2.676
21.9200,2.701
21.9600,2.721
22.0000,2.629
22.0400,2.714
22.0800,2.654
22.1200,2.628
22.1600,2.659
22.2000,2.670
22.2400,2.784
22.2800,2.718
22.3200,2.736
22.3600,2.789
22.4000,2.582
22.4400,2.733
22.4800,2.585
22.5200,2.747
22.5600,2.625
22.6000,2.643
22.6400,2.581
22.6800,2.603
22.7200,2.772
22.7600,2.848
22.8000,2.563
22.8400,2.520
22.8800,2.472
22.9200,2.726
22.9600,2.609
23.0000,2.475
23.0400,2.788
23.0800,2.630
23.1200,2.607
23.1600,2.619
23.2000,2.643
23.2400,2.682
23.2800,2.707
23.3200,2.596
23.3600,2.784
23.4000,2.535
23.4400,2.747
23.4800,2.697
23.5200,2.702
23.5600,2.596
23.6000,2.500
23.6400,2.756
23.6800,2.626
23.7200,2.682
23.7600,2.653
23.8000,2.619
23.8400,2.705
23.8800,2.599
23.9200,2.602
23.9600,2.596
24.0000,2.642
24.0400,2.394
24.0800,2.581
24.1200,2.573
24.1600,2.593
24.2000,2.618
24.2400,2.534
24.2800,2.581
24.3200,2.651
24.3600,2.487
24.4000,2.509
24.4400,2.686
24.4800,2.615
24.5200,2.634
24.5600,2.440
24.6000,2.506
24.6400,2.543
24.6800,2.421
24.7200,2.510
24.7600,2.603
24.8000,2.593
24.8400,2.570
24.8800,2.387
24.9200,2.464
24.9600,2.557
25.0000,2.679
25.0400,2.588
25.0800,2.502
25.1200,2.604
25.1600,2.439
25.2000,2.526
25.2400,2.457
25.2800,2.329
25.3200,2.471
25.3600,2.506
25.4000,2.420
25.4400,2.501
25.4800,2.459
25.5200,2.519
25.5600,2.505
25.6000,2.374
25.6400,2.448
25.6800,2.584
25.7200,2.422
25.7600,2.491
25.8000,2.497
25.8400,2.502
25.8800,2.540
25.9200,2.550
25.9600,2.538
26.0000,2.626
26.0400,2.639
26.0800,2.569
26.1200,2.611
26.1600,2.732
26.2000,2.643
26.2400,2.604
26.2800,2.555
26.3200,2.383
26.3600,2.355
26.4000,2.408
26.4400,2.535
26.4800,2.499
26.5200,2.339
26.5600,2.449
26.6000,2.378
26.6400,2.350
26.6800,2.353
26.7200,2.258
26.7600,2.511
26.8000,2.374
26.8400,2.325
26.8800,2.445
26.9200,2.252
26.9600,2.304
27.0000,2.373
27.0400,2.206
27.0800,2.382
27.1200,2.385
27.1600,2.369
27.2000,2.326
27.2400,2.206
27.2800,2.173
27.3200,2.221
27.3600,2.166
27.4000,2.210
27.4400,2.260
27.4800,2.283
27.5200,2.229
27.5600,2.110
27.6000,2.079
27.6400,2.207
27.6800,2.356
27.7200,2.228
27.7600,2.220
27.8000,2.274
27.8400,2.126
27.8800,2.243
27.9200,2.311
27.9600,2.203
28.0000,2.279
28.0400,2.276
28.0800,2.195
28.1200,2.148
28.1600,2.116
28.2000,2.207
28.2400,2.191
28.2800,2.261
28.3200,2.192
28.3600,2.137
28.4000,2.140
28.4400,2.150
28.4800,2.076
28.5200,2.191
28.5600,2.397
28.6000,2.212
28.6400,2.257
28.6800,2.197
28.7200,2.053
28.7600,2.109
28.8000,2.095
28.8400,2.160
28.8800,2.179
28.9200,2.117
28.9600,2.031
29.0000,2.173
29.0400,2.168
29.0800,2.104
29.1200,2.051
29.1600,2.162
29.2000,1.998
29.2400,1.997
29.2800,2.017
29.3200,2.067
29.3600,2.055
29.4000,2.011
29.4400,2.112
29.4800,2.031
29.5200,2.078
29.5600,2.058
29.6000,2.109
29.6400,2.083
29.6800,2.038
29.7200,2.054
29.7600,2.118
29.8000,1.971
29.8400,2.015
29.8800,2.150
29.9200,2.047
29.9600,1.937
30.0000,2.067
30.0400,1.990
30.0800,2.117
30.1200,1.855
30.1600,1.844
30.2000,1.986
30.2400,1.936
30.2800,1.989
30.3200,2.014
30.3600,1.946
30.4000,2.102
30.4400,1.920
30.4800,1.960
30.5200,1.945
30.5600,1.819
30.6000,1.992
30.6400,2.008
30.6800,1.864
30.7200,2.074
30.7600,1.811
30.8000,1.834
30.8400,1.961
30.8800,1.912
30.9200,1.877
30.9600,1.877
31.0000,1.888
31.0400,1.897
31.0800,1.880
31.1200,1.867
31.1600,2.010
31.2000,1.913
31.2400,1.808
31.2800,1.840
31.3200,1.844
31.3600,1.905
31.4000,1.893
31.4400,1.752
31.4800,1.851
31.5200,1.798
31.5600,1.901
31.6000,1.811
31.6400,1.867
31.6800,1.885
31.7200,1.909
31.7600,1.846
31.8000,1.825
31.8400,1.881
31.8800,1.905
31.9200,1.810
31.9600,1.800
32.0000,1.828
32.0400,1.954
32.0800,1.776
32.1200,1.785
32.1600,1.793
32.2000,1.700
32.2400,1.780
32.2800,1.848
32.3200,1.827
32.3600,1.911
32.4000,1.693
32.4400,1.777
32.4800,1.807
32.5200,1.694
32.5600,1.785
32.6000,1.731
32.6400,1.733
32.6800,1.695
32.7200,1.752
32.7600,1.852
32.8000,1.810
32.8400,1.765
32.8800,1.747
32.9200,1.761
32.9600,1.761
33.0000,1.789
33.0400,1.712
33.0800,1.714
33.1200,1.633
33.1600,1.763
33.2000,1.667
33.2400,1.770
33.2800,1.748
33.3200,1.621
33.3600,1.652
33.4000,1.784
33.4400,1.737
33.4800,1.696
33.5200,1.628
33.5600,1.499
33.6000,1.614
33.6400,1.682
33.6800,1.638
33.7200,1.619
33.7600,1.645
33.8000,1.663
33.8400,1.612
33.8800,1.651
33.9200,1.685
33.9600,1.674
34.0000,1.708
34.0400,1.664
34.0800,1.681
34.1200,1.628
34.1600,1.678
34.2000,1.672
34.2400,1.663
34.2800,1.672
34.3200,1.637
34.3600,1.663
34.4000,1.610
34.4400,1.624
34.4800,1.538
34.5200,1.623
34.5600,1.523
34.6000,1.524
34.6400,1.594
34.6800,1.705
34.7200,1.636
34.7600,1.519
34.8000,1.511
34.8400,1.561
34.8800,1.510
34.9200,1.562
34.9600,1.661
35.0000,1.562
35.0400,1.661
35.0800,1.612
35.1200,1.589
35.1600,1.591
35.2000,1.482
35.2400,1.547
35.2800,1.572
35.3200,1.515
35.3600,1.580
35.4000,1.691
35.4400,1.533
35.4800,1.609
35.5200,1.585
35.5600,1.551
35.6000,1.616
35.6400,1.584
35.6800,1.517
35.7200,1.495
35.7600,1.573
35.8000,1.534
35.8400,1.582
35.8800,1.570
35.9200,1.577
35.9600,1.564
36.0000,1.544
36.0400,1.572
36.0800,1.537
36.1200,1.457
36.1600,1.401
36.2000,1.462
36.2400,1.501
36.2800,1.569
36.3200,1.600
36.3600,1.469
36.4000,1.490
36.4400,1.445
36.4800,1.439
36.5200,1.507
36.5600,1.475
36.6000,1.580
36.6400,1.495
36.6800,1.392
36.7200,1.425
36.7600,1.462
36.8000,1.429
36.8400,1.503
36.8800,1.403
36.9200,1.389
36.9600,1.532
37.0000,1.394
37.0400,1.461
37.0800,1.452
37.1200,1.555
37.1600,1.351
37.2000,1.365
37.2400,1.429
37.2800,1.356
37.3200,1.502
37.3600,1.430
37.4000,1.375
37.4400,1.506
37.4800,1.401
37.5200,1.305
37.5600,1.350
37.6000,1.341
37.6400,1.440
37.6800,1.345
37.7200,1.372
37.7600,1.385
37.8000,1.477
37.8400,1.444
37.8800,1.331
37.9200,1.336
37.9600,1.406
38.0000,1.433
38.0400,1.357
38.0800,1.387
38.1200,1.377
38.1600,1.398
38.2000,1.363
38.2400,1.342
38.2800,1.319
38.3200,1.353
38.3600,1.263
38.4000,1.300
38.4400,1.296
38.4800,1.268
38.5200,1.305
38.5600,1.347
38.6000,1.308
38.6400,1.415
38.6800,1.314
38.7200,1.321
38.7600,1.331
38.8000,1.255
38.8400,1.225
38.8800,1.174
38.9200,1.287
38.9600,1.248
39.0000,1.257
39.0400,1.382
39.0800,1.332
39.1200,1.303
39.1600,1.177
39.2000,1.196
39.2400,1.284
39.2800,1.278
39.3200,1.261
39.3600,1.298
39.4000,1.258
39.4400,1.175
39.4800,1.185
39.5200,1.255
39.5600,1.162
39.6000,1.284
39.6400,1.282
39.6800,1.125
39.7200,1.157
39.7600,1.316
39.8000,1.305
39.8400,1.330
39.8800,1.192
39.9200,1.227
39.9600,1.340
40.0000,1.307
40.0400,1.095
40.0800,1.275
40.1200,1.288
40.1600,1.236
40.2000,1.209
40.2400,1.255
40.2800,1.210
40.3200,1.178
40.3600,1.279
40.4000,1.309
40.4400,1.198
40.4800,1.281
40.5200,1.311
40.5600,1.220
40.6000,1.294
40.6400,1.210
40.6800,1.240
40.7200,1.200
40.7600,1.231
40.8000,1.172
40.8400,1.216
40.8800,1.224
40.9200,1.173
40.9600,1.145
41.0000,1.111
41.0400,1.131
41.0800,1.177
41.1200,1.104
41.1600,1.213
41.2000,1.157
41.2400,1.189
41.2800,1.138
41.3200,1.074
41.3600,1.144
41.4000,1.251
41.4400,1.072
41.4800,1.111
41.5200,1.148
41.5600,1.149
41.6000,1.042
41.6400,1.087
41.6800,1.139
41.7200,1.166
41.7600,1.193
41.8000,1.142
41.8400,1.207
41.8800,1.081
41.9200,1.189
41.9600,1.087
42.0000,1.124
42.0400,1.176
42.0800,1.157
42.1200,1.204
42.1600,1.138
42.2000,1.151
42.2400,1.117
42.2800,1.044
42.3200,1.152
42.3600,1.061
42.4000,1.042
42.4400,1.052
42.4800,1.121
42.5200,1.117
42.5600,1.088
42.6000,1.039
42.6400,1.144
42.6800,1.086
42.7200,1.148
42.7600,1.144
42.8000,1.161
42.8400,1.160
42.8800,1.119
42.9200,1.057
42.9600,1.013
43.0000,1.041
43.0400,1.098
43.0800,1.072
43.1200,1.067
43.1600,0.988
43.2000,1.047
43.2400,1.117
43.2800,1.035
43.3200,1.071
43.3600,1.046
43.4000,1.147
43.4400,1.010
43.4800,1.091
43.5200,1.045
43.5600,0.909
43.6000,1.134
43.6400,1.039
43.6800,1.034
43.7200,1.088
43.7600,1.035
43.8000,1.080
43.8400,1.056
43.8800,1.080
43.9200,0.995
43.9600,1.005
44.0000,1.057
44.0400,1.019
44.0800,0.983
44.1200,1.039
44.1600,1.061
44.2000,1.028
44.2400,0.993
44.2800,0.985
44.3200,1.005
44.3600,0.935
44.4000,1.068
44.4400,0.977
44.4800,0.981
44.5200,0.969
44.5600,0.981
44.6000,1.003
44.6400,1.022
44.6800,1.112
44.7200,1.028
44.7600,0.906
44.8000,0.941
44.8400,0.941
44.8800,1.021
44.9200,0.996
44.9600,0.953
45.0000,0.924
45.0400,0.952
45.0800,1.038
45.1200,0.943
45.1600,0.976
45.2000,0.970
45.2400,1.024
45.2800,1.019
45.3200,0.990
45.3600,0.980
45.4000,0.921
45.4400,1.003
45.4800,1.049
45.5200,1.018
45.5600,0.897
45.6000,0.930
45.6400,0.962
45.6800,0.968
45.7200,0.934
45.7600,0.945
45.8000,0.938
45.8400,1.040
45.8800,1.091
45.9200,0.987
45.9600,0.919
46.0000,0.962
46.0400,0.997
46.0800,0.964
46.1200,0.984
46.1600,0.953
46.2000,1.038
46.2400,1.016
46.2800,1.047
46.3200,0.938
46.3600,0.960
46.4000,0.906
46.4400,0.979
46.4800,0.961
46.5200,1.017
46.5600,0.936
46.6000,0.968
46.6400,1.020
46.6800,1.015
46.7200,1.002
46.7600,0.904
46.8000,0.931
46.8400,0.954
46.8800,0.962
46.9200,0.866
46.9600,0.967
47.0000,0.952
47.0400,0.900
47.0800,0.906
47.1200,0.944
47.1600,0.976
47.2000,0.919
47.2400,0.909
47.2800,0.908
47.3200,0.925
47.3600,0.953
47.4000,0.942
47.4400,0.894
47.4800,0.908
47.5200,0.817
47.5600,1.024
47.6000,0.924
47.6400,0.919
47.6800,0.865
47.7200,0.999
47.7600,0.980
47.8000,0.984
47.8400,0.927
47.8800,0.951
47.9200,0.873
47.9600,0.940
48.0000,0.914
48.0400,0.914
48.0800,0.880
48.1200,0.894
48.1600,0.898
48.2000,0.862
48.2400,0.929
48.2800,0.923
48.3200,0.932
48.3600,0.848
48.4000,0.828
48.4400,0.884
48.4800,0.924
48.5200,0.808
48.5600,0.809
48.6000,0.865
48.6400,0.840
48.6800,0.953
48.7200,0.846
48.7600,0.925
48.8000,0.950
48.8400,0.843
48.8800,0.913
48.9200,0.894
48.9600,0.929
49.0000,0.935
49.0400,0.882
49.0800,0.909
49.1200,0.894
49.1600,0.928
49.2000,0.935
49.2400,0.818
49.2800,0.787
49.3200,0.855
49.3600,0.825
49.4000,0.807
49.4400,0.876
49.4800,0.820
49.5200,0.880
49.5600,0.885
49.6000,0.827
49.6400,0.956
49.6800,0.830
49.7200,0.820
49.7600,0.849
49.8000,0.795
49.8400,0.869
49.8800,0.869
49.9200,0.883
49.9600,0.867
50.0000,0.863
50.0400,0.906
50.0800,0.845
50.1200,0.921
50.1600,0.819
50.2000,0.885
50.2400,0.906
50.2800,0.838
50.3200,0.860
50.3600,0.948
50.4000,0.914
50.4400,0.896
50.4800,0.876
50.5200,0.841
50.5600,0.911
50.6000,0.830
50.6400,0.885
50.6800,0.858
50.7200,0.858
50.7600,0.765
50.8000,0.853
50.8400,0.854
50.8800,0.834
50.9200,0.834
50.9600,0.797
51.0000,0.852
51.0400,0.748
51.0800,0.859
51.1200,0.810
51.1600,0.864
51.2000,0.821
51.2400,0.750
51.2800,0.820
51.3200,0.802
51.3600,0.824
51.4000,0.802
51.4400,0.796
51.4800,0.779
51.5200,0.878
51.5600,0.898
51.6000,0.781
51.6400,0.829
51.6800,0.829
51.7200,0.811
51.7600,0.843
51.8000,0.824
51.8400,0.798
51.8800,0.800
51.9200,0.801
51.9600,0.837
52.0000,0.762
52.0400,0.810
52.0800,0.792
52.1200,0.781
52.1600,0.801
52.2000,0.861
52.2400,0.806
52.2800,0.800
52.3200,0.864
52.3600,0.808
52.4000,0.806
52.4400,0.751
52.4800,0.798
52.5200,0.800
52.5600,0.856
52.6000,0.830
52.6400,0.774
52.6800,0.731
52.7200,0.779
52.7600,0.844
52.8000,0.826
52.8400,0.840
52.8800,0.772
52.9200,0.783
52.9600,0.809
53.0000,0.816
53.0400,0.731
53.0800,0.791
53.1200,0.823
53.1600,0.778
53.2000,0.735
53.2400,0.757
53.2800,0.738
53.3200,0.801
53.3600,0.793
53.4000,0.774
53.4400,0.760
53.4800,0.778
53.5200,0.813
53.5600,0.828
53.6000,0.827
53.6400,0.712
53.6800,0.742
53.7200,0.784
53.7600,0.781
53.8000,0.754
53.8400,0.802
53.8800,0.694
53.9200,0.777
53.9600,0.759
54.0000,0.838
54.0400,0.740
54.0800,0.819
54.1200,0.793
54.1600,0.733
54.2000,0.766
54.2400,0.744
54.2800,0.735
54.3200,0.743
54.3600,0.709
54.4000,0.761
54.4400,0.839
54.4800,0.736
54.5200,0.707
54.5600,0.826
54.6000,0.747
54.6400,0.714
54.6800,0.763
54.7200,0.708
54.7600,0.747
54.8000,0.781
54.8400,0.679
54.8800,0.745
54.9200,0.772
54.9600,0.674
55.0000,0.753
55.0400,0.748
55.0800,0.742
55.1200,0.673
55.1600,0.709
55.2000,0.719
55.2400,0.757
55.2800,0.713
55.3200,0.707
55.3600,0.741
55.4000,0.682
55.4400,0.690
55.4800,0.722
55.5200,0.775
55.5600,0.679
55.6000,0.702
55.6400,0.661
55.6800,0.649
55.7200,0.684
55.7600,0.742
55.8000,0.793
55.8400,0.672
55.8800,0.648
55.9200,0.768
55.9600,0.769
56.0000,0.728
56.0400,0.685
56.0800,0.692
56.1200,0.682
56.1600,0.698
56.2000,0.637
56.2400,0.666
56.2800,0.659
56.3200,0.718
56.3600,0.703
56.4000,0.715
56.4400,0.681
56.4800,0.653
56.5200,0.643
56.5600,0.589
56.6000,0.657
56.6400,0.701
56.6800,0.712
56.7200,0.680
56.7600,0.736
56.8000,0.691
56.8400,0.650
56.8800,0.657
56.9200,0.719
56.9600,0.671
57.0000,0.610
57.0400,0.576
57.0800,0.622
57.1200,0.612
57.1600,0.744
57.2000,0.656
57.2400,0.635
57.2800,0.681
57.3200,0.616
57.3600,0.676
57.4000,0.666
57.4400,0.671
57.4800,0.762
57.5200,0.720
57.5600,0.677
57.6000,0.674
57.6400,0.671
57.6800,0.631
57.7200,0.631
57.7600,0.619
57.8000,0.610
57.8400,0.649
57.8800,0.648
57.9200,0.716
57.9600,0.685
58.0000,0.656
58.0400,0.706
58.0800,0.741
58.1200,0.590
58.1600,0.628
58.2000,0.584
58.2400,0.685
58.2800,0.694
58.3200,0.622
58.3600,0.633
58.4000,0.660
58.4400,0.608
58.4800,0.676
58.5200,0.587
58.5600,0.630
58.6000,0.645
58.6400,0.607
58.6800,0.677
58.7200,0.633
58.7600,0.628
58.8000,0.714
58.8400,0.753
58.8800,0.666
58.9200,0.675
58.9600,0.667
59.0000,0.626
59.0400,0.637
59.0800,0.585
59.1200,0.617
59.1600,0.657
59.2000,0.631
59.2400,0.642
59.2800,0.585
59.3200,0.617
59.3600,0.664
59.4000,0.608
59.4400,0.636
59.4800,0.631
59.5200,0.615
59.5600,0.619
59.6000,0.591
59.6400,0.590
59.6800,0.575
59.7200,0.697
59.7600,0.647
59.8000,0.660
59.8400,0.584
59.8800,0.564
59.9200,0.616
59.9600,0.543
60.0000,0.639
60.0400,0.654
60.0800,0.723
60.1200,0.590
60.1600,0.538
60.2000,0.584
60.2400,0.549
60.2800,0.674
60.3200,0.634
60.3600,0.596
60.4000,0.572
60.4400,0.624
60.4800,0.595
60.5200,0.683
60.5600,0.589
60.6000,0.629
60.6400,0.587
60.6800,0.581
60.7200,0.657
60.7600,0.591
60.8000,0.648
60.8400,0.648
60.8800,0.642
60.9200,0.626
60.9600,0.644
61.0000,0.627
61.0400,0.592
61.0800,0.557
61.1200,0.577
61.1600,0.563
61.2000,0.617
61.2400,0.579
61.2800,0.619
61.3200,0.579
61.3600,0.675
61.4000,0.680
61.4400,0.593
61.4800,0.630
61.5200,0.560
61.5600,0.567
61.6000,0.651
61.6400,0.570
61.6800,0.758
61.7200,0.693
61.7600,0.617
61.8000,0.557
61.8400,0.541
61.8800,0.567
61.9200,0.602
61.9600,0.582
62.0000,0.628
62.0400,0.567
62.0800,0.552
62.1200,0.638
62.1600,0.581
62.2000,0.580
62.2400,0.610
62.2800,0.614
62.3200,0.595
62.3600,0.626
62.4000,0.652
62.4400,0.627
62.4800,0.614
62.5200,0.558
62.5600,0.578
62.6000,0.572
62.6400,0.526
62.6800,0.557
62.7200,0.574
62.7600,0.615
62.8000,0.557
62.8400,0.603
62.8800,0.601
62.9200,0.583
62.9600,0.632
63.0000,0.593
63.0400,0.551
63.0800,0.576
63.1200,0.546
63.1600,0.642
63.2000,0.606
63.2400,0.596
63.2800,0.620
63.3200,0.521
63.3600,0.569
63.4000,0.607
63.4400,0.585
63.4800,0.550
63.5200,0.559
63.5600,0.641
63.6000,0.602
63.6400,0.577
63.6800,0.611
63.7200,0.549
63.7600,0.525
63.8000,0.574
63.8400,0.571
63.8800,0.565
63.9200,0.586
63.9600,0.563
64.0000,0.619
64.0400,0.585
64.0800,0.614
64.1200,0.627
64.1600,0.571
64.2000,0.564
64.2400,0.507
64.2800,0.614
64.3200,0.603
64.3600,0.606
64.4000,0.554
64.4400,0.584
64.4800,0.586
64.5200,0.625
64.5600,0.585
64.6000,0.565
64.6400,0.651
64.6800,0.626
64.7200,0.614
64.7600,0.596
64.8000,0.624
64.8400,0.596
64.8800,0.625
64.9200,0.607
64.9600,0.668
65.0000,0.634
65.0400,0.654
65.0800,0.651
65.1200,0.670
65.1600,0.635
65.2000,0.651
65.2400,0.700
65.2800,0.648
65.3200,0.693
65.3600,0.713
65.4000,0.700
65.4400,0.685
65.4800,0.709
65.5200,0.711
65.5600,0.671
65.6000,0.701
65.6400,0.778
65.6800,0.734
65.7200,0.730
65.7600,0.784
65.8000,0.767
65.8400,0.806
65.8800,0.740
65.9200,0.758
65.9600,0.716
66.0000,0.811
66.0400,0.778
66.0800,0.786
66.1200,0.761
66.1600,0.781
66.2000,0.809
66.2400,0.877
66.2800,0.865
66.3200,0.891
66.3600,0.890
66.4000,0.860
66.4400,0.886
66.4800,0.948
66.5200,0.909
66.5600,0.905
66.6000,1.011
66.6400,0.889
66.6800,0.900
66.7200,1.016
66.7600,1.007
66.8000,1.111
66.8400,0.954
66.8800,1.110
66.9200,1.066
66.9600,1.097
67.0000,1.055
67.0400,1.143
67.0800,1.093
67.1200,1.151
67.1600,1.134
67.2000,1.267
67.2400,1.264
67.2800,1.327
67.3200,1.255
67.3600,1.222
67.4000,1.283
67.4400,1.211
67.4800,1.299
67.5200,1.371
67.5600,1.413
67.6000,1.444
67.6400,1.405
67.6800,1.483
67.7200,1.517
67.7600,1.576
67.8000,1.575
67.8400,1.547
67.8800,1.640
67.9200,1.828
67.9600,1.786
68.0000,1.886
68.0400,1.735
68.0800,1.878
68.1200,1.920
68.1600,1.994
68.2000,1.864
68.2400,2.115
68.2800,2.150
68.3200,2.359
68.3600,2.386
68.4000,2.380
68.4400,2.407
68.4800,2.496
68.5200,2.792
68.5600,3.123
68.6000,3.229
68.6400,3.393
68.6800,3.809
68.7200,4.797
68.7600,6.208
68.8000,7.730
68.8400,8.613
68.8800,8.206
68.9200,8.909
68.9600,11.447
69.0000,16.737
69.0400,31.979
69.0800,118.475
69.1200,458.945
69.1600,550.067
69.2000,209.733
69.2400,58.426
69.2800,85.741
69.3200,246.536
69.3600,272.619
69.4000,102.480
69.4400,26.591
69.4800,13.761
69.5200,9.444
69.5600,7.595
69.6000,6.416
69.6400,5.489
69.6800,4.674
69.7200,4.238
69.7600,4.138
69.8000,3.652
69.8400,3.332
69.8800,3.170
69.9200,2.892
69.9600,2.912
70.0000,2.817
70.0400,2.682
70.0800,2.547
70.1200,2.425
70.1600,2.323
70.2000,2.360
70.2400,2.272
70.2800,2.092
70.3200,2.072
70.3600,2.021
70.4000,1.860
70.4400,1.785
70.4800,1.823
70.5200,1.769
70.5600,1.627
70.6000,1.640
70.6400,1.462
70.6800,1.494
70.7200,1.502
70.7600,1.390
70.8000,1.452
70.8400,1.410
70.8800,1.374
70.9200,1.389
70.9600,1.310
71.0000,1.258
71.0400,1.216
71.0800,1.119
71.1200,1.221
71.1600,1.193
71.2000,1.151
71.2400,1.031
71.2800,1.053
71.3200,0.977
71.3600,0.951
71.4000,1.019
71.4400,1.027
71.4800,0.925
71.5200,0.953
71.5600,0.895
71.6000,1.025
71.6400,0.912
71.6800,0.829
71.7200,0.811
71.7600,0.840
71.8000,0.732
71.8400,0.859
71.8800,0.793
71.9200,0.725
71.9600,0.678
72.0000,0.719
72.0400,0.700
72.0800,0.689
72.1200,0.796
72.1600,0.819
72.2000,0.730
72.2400,0.748
72.2800,0.675
72.3200,0.671
72.3600,0.652
72.4000,0.675
72.4400,0.628
72.4800,0.697
72.5200,0.625
72.5600,0.642
72.6000,0.638
72.6400,0.561
72.6800,0.586
72.7200,0.647
72.7600,0.620
72.8000,0.583
72.8400,0.546
72.8800,0.581
72.9200,0.579
72.9600,0.552
73.0000,0.603
73.0400,0.542
73.0800,0.524
73.1200,0.524
73.1600,0.559
73.2000,0.533
73.2400,0.534
73.2800,0.558
73.3200,0.518
73.3600,0.513
73.4000,0.513
73.4400,0.519
73.4800,0.482
73.5200,0.520
73.5600,0.541
73.6000,0.540
73.6400,0.508
73.6800,0.479
73.7200,0.506
73.7600,0.492
73.8000,0.452
73.8400,0.470
73.8800,0.545
73.9200,0.408
73.9600,0.449
74.0000,0.489
74.0400,0.501
74.0800,0.481
74.1200,0.462
74.1600,0.482
74.2000,0.405
74.2400,0.432
74.2800,0.490
74.3200,0.456
74.3600,0.451
74.4000,0.453
74.4400,0.417
74.4800,0.433
74.5200,0.407
74.5600,0.443
74.6000,0.448
74.6400,0.405
74.6800,0.453
74.7200,0.418
74.7600,0.380
74.8000,0.418
74.8400,0.445
74.8800,0.405
74.9200,0.392
74.9600,0.391
75.0000,0.391
75.0400,0.393
75.0800,0.417
75.1200,0.385
75.1600,0.354
75.2000,0.357
75.2400,0.391
75.2800,0.391
75.3200,0.446
75.3600,0.352
75.4000,0.400
75.4400,0.440
75.4800,0.388
75.5200,0.351
75.5600,0.444
75.6000,0.368
75.6400,0.404
75.6800,0.374
75.7200,0.368
75.7600,0.383
75.8000,0.383
75.8400,0.384
75.8800,0.351
75.9200,0.373
75.9600,0.393
76.0000,0.389
76.0400,0.407
76.0800,0.428
76.1200,0.353
76.1600,0.371
76.2000,0.396
76.2400,0.373
76.2800,0.366
76.3200,0.374
76.3600,0.401
76.4000,0.418
76.4400,0.372
76.4800,0.394
76.5200,0.368
76.5600,0.337
76.6000,0.337
76.6400,0.299
76.6800,0.328
76.7200,0.348
76.7600,0.354
76.8000,0.340
76.8400,0.322
76.8800,0.389
76.9200,0.401
76.9600,0.381
77.0000,0.340
77.0400,0.311
77.0800,0.295
77.1200,0.317
77.1600,0.344
77.2000,0.354
77.2400,0.350
77.2800,0.354
77.3200,0.359
77.3600,0.366
77.4000,0.344
77.4400,0.290
77.4800,0.386
77.5200,0.324
77.5600,0.325
77.6000,0.345
77.6400,0.320
77.6800,0.338
77.7200,0.327
77.7600,0.350
77.8000,0.322
77.8400,0.310
77.8800,0.353
77.9200,0.347
77.9600,0.331
78.0000,0.336
78.0400,0.311
78.0800,0.326
78.1200,0.342
78.1600,0.336
78.2000,0.309
78.2400,0.318
78.2800,0.312
78.3200,0.356
78.3600,0.357
78.4000,0.339
78.4400,0.346
78.4800,0.361
78.5200,0.286
78.5600,0.357
78.6000,0.295
78.6400,0.310
78.6800,0.312
78.7200,0.355
78.7600,0.321
78.8000,0.332
78.8400,0.331
78.8800,0.373
78.9200,0.319
78.9600,0.353
79.0000,0.313
79.0400,0.314
79.0800,0.333
79.1200,0.315
79.1600,0.314
79.2000,0.303
79.2400,0.346
79.2800,0.319
79.3200,0.321
79.3600,0.364
79.4000,0.320
79.4400,0.294
79.4800,0.304
79.5200,0.355
79.5600,0.316
79.6000,0.307
79.6400,0.320
79.6800,0.297
79.7200,0.325
79.7600,0.343
79.8000,0.332
79.8400,0.296
79.8800,0.291
79.9200,0.299
79.9600,0.255
80.0000,0.298
80.0400,0.305
80.0800,0.329
80.1200,0.288
80.1600,0.290
80.2000,0.281
80.2400,0.320
80.2800,0.308
80.3200,0.292
80.3600,0.287
80.4000,0.313
80.4400,0.343
80.4800,0.352
80.5200,0.280
80.5600,0.307
80.6000,0.303
80.6400,0.311
80.6800,0.295
80.7200,0.316
80.7600,0.336
80.8000,0.280
80.8400,0.268
80.8800,0.299
80.9200,0.291
80.9600,0.291
81.0000,0.267
81.0400,0.308
81.0800,0.314
81.1200,0.236
81.1600,0.310
81.2000,0.327
81.2400,0.292
81.2800,0.253
81.3200,0.289
81.3600,0.303
81.4000,0.301
81.4400,0.341
81.4800,0.359
81.5200,0.269
81.5600,0.240
81.6000,0.268
81.6400,0.326
81.6800,0.270
81.7200,0.264
81.7600,0.281
81.8000,0.300
81.8400,0.330
81.8800,0.285
81.9200,0.278
81.9600,0.293
82.0000,0.279
82.0400,0.329
82.0800,0.338
82.1200,0.267
82.1600,0.322
82.2000,0.291
82.2400,0.262
82.2800,0.285
82.3200,0.316
82.3600,0.295
82.4000,0.298
82.4400,0.311
82.4800,0.244
82.5200,0.273
82.5600,0.285
82.6000,0.287
82.6400,0.311
82.6800,0.284
82.7200,0.272
82.7600,0.309
82.8000,0.293
82.8400,0.291
82.8800,0.295
82.9200,0.258
82.9600,0.249
83.0000,0.278
83.0400,0.290
83.0800,0.325
83.1200,0.285
83.1600,0.317
83.2000,0.284
83.2400,0.270
83.2800,0.279
83.3200,0.261
83.3600,0.279
83.4000,0.274
83.4400,0.293
83.4800,0.257
83.5200,0.265
83.5600,0.271
83.6000,0.275
83.6400,0.293
83.6800,0.336
83.7200,0.350
83.7600,0.307
83.8000,0.280
83.8400,0.251
83.8800,0.290
83.9200,0.255
83.9600,0.249
84.0000,0.292
84.0400,0.281
84.0800,0.292
84.1200,0.270
84.1600,0.290
84.2000,0.275
84.2400,0.284
84.2800,0.318
84.3200,0.341
84.3600,0.251
84.4000,0.318
84.4400,0.304
84.4800,0.274
84.5200,0.261
84.5600,0.288
84.6000,0.288
84.6400,0.309
84.6800,0.310
84.7200,0.255
84.7600,0.250
84.8000,0.266
84.8400,0.259
84.8800,0.263
84.9200,0.284
84.9600,0.254
85.0000,0.231
85.0400,0.235
85.0800,0.286
85.1200,0.271
85.1600,0.239
85.2000,0.278
85.2400,0.238
85.2800,0.248
85.3200,0.240
85.3600,0.291
85.4000,0.292
85.4400,0.247
85.4800,0.327
85.5200,0.262
85.5600,0.264
85.6000,0.265
85.6400,0.292
85.6800,0.258
85.7200,0.242
85.7600,0.271
85.8000,0.272
85.8400,0.245
85.8800,0.240
85.9200,0.252
85.9600,0.250
86.0000,0.243
86.0400,0.239
86.0800,0.205
86.1200,0.240
86.1600,0.306
86.2000,0.258
86.2400,0.227
86.2800,0.243
86.3200,0.289
86.3600,0.285
86.4000,0.282
86.4400,0.256
86.4800,0.253
86.5200,0.296
86.5600,0.268
86.6000,0.232
86.6400,0.283
86.6800,0.262
86.7200,0.308
86.7600,0.302
86.8000,0.255
86.8400,0.245
86.8800,0.254
86.9200,0.262
86.9600,0.280
87.0000,0.295
87.0400,0.257
87.0800,0.290
87.1200,0.284
87.1600,0.249
87.2000,0.272
87.2400,0.276
87.2800,0.260
87.3200,0.249
87.3600,0.254
87.4000,0.312
87.4400,0.256
87.4800,0.283
87.5200,0.254
87.5600,0.239
87.6000,0.224
87.6400,0.275
87.6800,0.291
87.7200,0.246
87.7600,0.262
87.8000,0.273
87.8400,0.277
87.8800,0.236
87.9200,0.193
87.9600,0.266
88.0000,0.297
88.0400,0.236
88.0800,0.225
88.1200,0.274
88.1600,0.285
88.2000,0.280
88.2400,0.237
88.2800,0.222
88.3200,0.214
88.3600,0.278
88.4000,0.293
88.4400,0.239
88.4800,0.239
88.5200,0.223
88.5600,0.239
88.6000,0.220
88.6400,0.229
88.6800,0.265
88.7200,0.283
88.7600,0.267
88.8000,0.220
88.8400,0.224
88.8800,0.313
88.9200,0.276
88.9600,0.220
89.0000,0.255
89.0400,0.215
89.0800,0.303
89.1200,0.241
89.1600,0.234
89.2000,0.225
89.2400,0.229
89.2800,0.258
89.3200,0.256
89.3600,0.253
89.4000,0.214
89.4400,0.244
89.4800,0.215
89.5200,0.228
89.5600,0.265
89.6000,0.283
89.6400,0.272
89.6800,0.264
89.7200,0.279
89.7600,0.266
89.8000,0.288
89.8400,0.218
89.8800,0.239
89.9200,0.236
89.9600,0.266
90.0000,0.278
