5.0400,6.527
5.0800,6.568
5.1200,6.482
5.1600,6.456
5.2000,6.307
5.2400,6.143
5.2800,6.021
5.3200,5.751
5.3600,5.737
5.4000,5.755
5.4400,5.842
5.4800,5.798
5.5200,5.604
5.5600,5.453
5.6000,5.505
5.6400,5.369
5.6800,5.326
5.7200,5.211
5.7600,4.906
5.8000,4.830
5.8400,4.771
5.8800,4.812
5.9200,4.900
5.9600,4.642
6.0000,4.597
6.0400,4.721
6.0800,4.646
6.1200,4.533
6.1600,4.578
6.2000,4.450
6.2400,4.643
6.2800,4.398
6.3200,4.177
6.3600,4.489
6.4000,4.469
6.4400,4.454
6.4800,4.418
6.5200,4.216
6.5600,4.351
6.6000,4.334
6.6400,4.314
6.6800,4.292
6.7200,4.222
6.7600,4.292
6.8000,4.247
6.8400,4.146
6.8800,4.385
6.9200,4.271
6.9600,4.239
7.0000,4.441
7.0400,4.235
7.0800,4.306
7.1200,4.178
7.1600,4.244
7.2000,4.418
7.2400,4.209
7.2800,4.296
7.3200,4.245
7.3600,4.304
7.4000,4.204
7.4400,4.349
7.4800,4.222
7.5200,4.173
7.5600,4.170
7.6000,4.282
7.6400,4.219
7.6800,4.194
7.7200,4.152
7.7600,4.160
7.8000,4.225
7.8400,4.164
7.8800,4.196
7.9200,4.303
7.9600,4.116
8.0000,4.306
8.0400,4.195
8.0800,4.101
8.1200,4.240
8.1600,4.195
8.2000,4.158
8.2400,3.996
8.2800,4.103
8.3200,4.092
8.3600,4.160
8.4000,3.988
8.4400,4.051
8.4800,4.016
8.5200,4.041
8.5600,4.025
8.6000,4.085
8.6400,4.215
8.6800,4.148
8.7200,4.215
8.7600,4.163
8.8000,3.961
8.8400,4.034
8.8800,4.098
8.9200,4.139
8.9600,3.823
9.0000,4.129
9.0400,4.129
9.0800,3.986
9.1200,4.048
9.1600,4.047
9.2000,4.154
9.2400,4.040
9.2800,3.949
9.3200,4.064
9.3600,3.938
9.4000,3.897
9.4400,4.030
9.4800,3.934
9.5200,3.980
9.5600,3.836
9.6000,3.983
9.6400,3.984
9.6800,3.986
9.7200,4.027
9.7600,3.960
9.8000,3.866
9.8400,4.024
9.8800,3.923
9.9200,3.895
9.9600,3.927
10.0000,3.831
10.0400,4.012
10.0800,3.969
10.1200,3.852
10.1600,3.938
10.2000,3.712
10.2400,3.752
10.2800,4.070
10.3200,3.827
10.3600,4.027
10.4000,3.864
10.4400,3.896
10.4800,3.827
10.5200,3.753
10.5600,3.853
10.6000,3.864
10.6400,3.881
10.6800,3.948
10.7200,3.930
10.7600,3.859
10.8000,3.851
10.8400,3.937
10.8800,3.986
10.9200,3.843
10.9600,3.859
11.0000,3.896
11.0400,3.849
11.0800,3.785
11.1200,3.795
11.1600,3.721
11.2000,3.744
11.2400,3.829
11.2800,3.799
11.3200,3.850
11.3600,3.917
11.4000,3.715
11.4400,3.814
11.4800,3.765
11.5200,3.605
11.5600,3.780
11.6000,3.589
11.6400,3.844
11.6800,3.810
11.7200,3.832
11.7600,3.756
11.8000,3.722
11.8400,3.730
11.8800,3.617
11.9200,3.773
11.9600,3.834
12.0000,3.723
12.0400,3.744
12.0800,3.689
12.1200,3.778
12.1600,3.657
12.2000,3.586
12.2400,3.601
12.2800,3.732
12.3200,3.688
12.3600,3.847
12.4000,3.619
12.4400,3.790
12.4800,3.853
12.5200,3.798
12.5600,3.577
12.6000,3.528
12.6400,3.515
12.6800,3.611
12.7200,3.699
12.7600,3.665
12.8000,3.750
12.8400,3.673
12.8800,3.571
12.9200,3.707
12.9600,3.624
13.0000,3.694
13.0400,3.701
13.0800,3.693
13.1200,3.430
13.1600,3.486
13.2000,3.639
13.2400,3.684
13.2800,3.697
13.3200,3.753
13.3600,3.686
13.4000,3.690
13.4400,3.508
13.4800,3.554
13.5200,3.388
13.5600,3.627
13.6000,3.517
13.6400,3.669
13.6800,3.609
13.7200,3.528
13.7600,3.568
13.8000,3.635
13.8400,3.624
13.8800,3.693
13.9200,3.539
13.9600,3.490
14.0000,3.513
14.0400,3.506
14.0800,3.504
14.1200,3.493
14.1600,3.519
14.2000,3.472
14.2400,3.538
14.2800,3.580
14.3200,3.505
14.3600,3.453
14.4000,3.447
14.4400,3.345
14.4800,3.481
14.5200,3.616
14.5600,3.514
14.6000,3.509
14.6400,3.391
14.6800,3.306
14.7200,3.407
14.7600,3.538
14.8000,3.339
14.8400,3.500
14.8800,3.474
14.9200,3.444
14.9600,3.344
15.0000,3.302
15.0400,3.524
15.0800,3.364
15.1200,3.313
15.1600,3.395
15.2000,3.376
15.2400,3.537
15.2800,3.508
15.3200,3.344
15.3600,3.462
15.4000,3.347
15.4400,3.303
15.4800,3.421
15.5200,3.367
15.5600,3.266
15.6000,3.370
15.6400,3.554
15.6800,3.209
15.7200,3.319
15.7600,3.329
15.8000,3.416
15.8400,3.362
15.8800,3.467
15.9200,3.403
15.9600,3.375
16.0000,3.499
16.0400,3.293
16.0800,3.345
16.1200,3.398
16.1600,3.210
16.2000,3.296
16.2400,3.586
16.2800,3.159
16.3200,3.428
16.3600,3.216
16.4000,3.294
16.4400,3.317
16.4800,3.284
16.5200,3.352
16.5600,3.193
16.6000,3.283
16.6400,3.373
16.6800,3.299
16.7200,3.227
16.7600,3.261
16.8000,3.460
16.8400,3.168
16.8800,3.251
16.9200,3.103
16.9600,3.239
17.0000,3.216
17.0400,3.289
17.0800,3.225
17.1200,3.255
17.1600,3.255
17.2000,3.117
17.2400,3.080
17.2800,3.136
17.3200,3.343
17.3600,3.217
17.4000,3.338
17.4400,3.249
17.4800,3.151
17.5200,3.120
17.5600,3.159
17.6000,3.288
17.6400,3.216
17.6800,3.215
17.7200,3.294
17.7600,3.126
17.8000,3.363
17.8400,3.258
17.8800,3.260
17.9200,3.318
17.9600,3.114
18.0000,3.115
18.0400,3.038
18.0800,3.190
18.1200,3.129
18.1600,3.244
18.2000,3.179
18.2400,3.267
18.2800,3.182
18.3200,3.195
18.3600,3.177
18.4000,3.143
18.4400,3.084
18.4800,3.162
18.5200,3.160
18.5600,3.144
18.6000,3.056
18.6400,3.100
18.6800,3.266
18.7200,3.078
18.7600,3.105
18.8000,3.059
18.8400,2.967
18.8800,3.066
18.9200,3.110
18.9600,3.072
19.0000,3.043
19.0400,3.210
19.0800,2.982
19.1200,3.063
19.1600,3.002
19.2000,3.112
19.2400,3.046
19.2800,2.855
19.3200,3.151
19.3600,3.084
19.4000,3.107
19.4400,2.931
19.4800,3.030
19.5200,3.139
19.5600,3.085
19.6000,3.032
19.6400,3.044
19.6800,2.957
19.7200,2.814
19.7600,3.052
19.8000,3.039
19.8400,3.050
19.8800,3.082
19.9200,2.971
19.9600,2.937
20.0000,2.927
20.0400,3.030
20.0800,3.033
20.1200,2.967
20.1600,3.000
20.2000,2.887
20.2400,2.940
20.2800,2.818
20.3200,3.001
20.3600,3.014
20.4000,2.824
20.4400,2.894
20.4800,2.787
20.5200,2.823
20.5600,2.923
20.6000,3.091
20.6400,3.023
20.6800,2.956
20.7200,2.730
20.7600,2.911
20.8000,3.057
20.8400,2.847
20.8800,2.883
20.9200,2.776
20.9600,2.814
21.0000,2.862
21.0400,2.738
21.0800,2.909
21.1200,2.877
21.1600,2.876
21.2000,2.867
21.2400,2.827
21.2800,2.839
21.3200,2.830
21.3600,2.979
21.4000,2.783
21.4400,2.911
21.4800,2.875
21.5200,2.842
21.5600,2.779
21.6000,2.788
21.6400,2.804
21.6800,2.803
21.7200,2.721
21.7600,2.833
21.8000,2.926
21.8400,2.862
21.8800,2.814
21.9200,2.822
21.9600,2.751
22.0000,2.803
22.0400,2.796
22.0800,2.694
22.1200,2.760
22.1600,2.791
22.2000,2.860
22.2400,2.688
22.2800,2.748
22.3200,2.737
22.3600,2.798
22.4000,2.799
22.4400,2.666
22.4800,2.704
22.5200,2.688
22.5600,2.549
22.6000,2.752
22.6400,2.797
22.6800,2.676
22.7200,2.798
22.7600,2.712
22.8000,2.643
22.8400,2.824
22.8800,2.725
22.9200,2.764
22.9600,2.672
23.0000,2.688
23.0400,2.765
23.0800,2.667
23.1200,2.768
23.1600,2.641
23.2000,2.550
23.2400,2.620
23.2800,2.792
23.3200,2.774
23.3600,2.714
23.4000,2.622
23.4400,2.747
23.4800,2.740
23.5200,2.669
23.5600,2.510
23.6000,2.508
23.6400,2.555
23.6800,2.602
23.7200,2.504
23.7600,2.601
23.8000,2.570
23.8400,2.484
23.8800,2.564
23.9200,2.581
23.9600,2.559
24.0000,2.566
24.0400,2.511
24.0800,2.616
24.1200,2.500
24.1600,2.497
24.2000,2.484
24.2400,2.387
24.2800,2.705
24.3200,2.434
24.3600,2.537
24.4000,2.506
24.4400,2.577
24.4800,2.543
24.5200,2.393
24.5600,2.681
24.6000,2.508
24.6400,2.446
24.6800,2.514
24.7200,2.518
24.7600,2.512
24.8000,2.480
24.8400,2.550
24.8800,2.645
24.9200,2.538
24.9600,2.470
25.0000,2.554
25.0400,2.469
25.0800,2.444
25.1200,2.500
25.1600,2.457
25.2000,2.415
25.2400,2.525
25.2800,2.613
25.3200,2.391
25.3600,2.453
25.4000,2.233
25.4400,2.343
25.4800,2.439
25.5200,2.235
25.5600,2.542
25.6000,2.425
25.6400,2.552
25.6800,2.404
25.7200,2.468
25.7600,2.583
25.8000,2.453
25.8400,2.334
25.8800,2.563
25.9200,2.498
25.9600,2.546
26.0000,2.360
26.0400,2.315
26.0800,2.315
26.1200,2.453
26.1600,2.516
26.2000,2.537
26.2400,2.292
26.2800,2.300
26.3200,2.449
26.3600,2.399
26.4000,2.548
26.4400,2.485
26.4800,2.367
26.5200,2.330
26.5600,2.400
26.6000,2.459
26.6400,2.322
26.6800,2.391
26.7200,2.416
26.7600,2.305
26.8000,2.310
26.8400,2.456
26.8800,2.336
26.9200,2.271
26.9600,2.230
27.0000,2.364
27.0400,2.300
27.0800,2.284
27.1200,2.333
27.1600,2.244
27.2000,2.418
27.2400,2.449
27.2800,2.352
27.3200,2.209
27.3600,2.272
27.4000,2.241
27.4400,2.247
27.4800,2.314
27.5200,2.410
27.5600,2.242
27.6000,2.245
27.6400,2.405
27.6800,2.203
27.7200,2.163
27.7600,2.255
27.8000,2.263
27.8400,2.244
27.8800,2.277
27.9200,2.259
27.9600,2.165
28.0000,2.236
28.0400,2.314
28.0800,2.211
28.1200,2.147
28.1600,2.177
28.2000,2.168
28.2400,2.220
28.2800,2.189
28.3200,2.300
28.3600,2.257
28.4000,2.242
28.4400,2.162
28.4800,2.212
28.5200,2.212
28.5600,2.289
28.6000,2.157
28.6400,2.118
28.6800,2.220
28.7200,2.075
28.7600,2.078
28.8000,2.083
28.8400,2.133
28.8800,2.159
28.9200,2.225
28.9600,2.112
29.0000,2.257
29.0400,2.168
29.0800,2.147
29.1200,2.210
29.1600,2.148
29.2000,2.064
29.2400,2.124
29.2800,2.226
29.3200,2.142
29.3600,2.196
29.4000,1.963
29.4400,2.019
29.4800,2.158
29.5200,2.037
29.5600,2.138
29.6000,2.116
29.6400,2.140
29.6800,2.032
29.7200,2.008
29.7600,2.043
29.8000,2.123
29.8400,2.001
29.8800,2.084
29.9200,2.141
29.9600,2.169
30.0000,2.166
30.0400,2.051
30.0800,2.049
30.1200,2.111
30.1600,2.015
30.2000,2.024
30.2400,2.173
30.2800,1.991
30.3200,2.042
30.3600,2.092
30.4000,2.159
30.4400,2.050
30.4800,2.156
30.5200,2.049
30.5600,2.028
30.6000,2.014
30.6400,2.085
30.6800,2.088
30.7200,2.158
30.7600,2.096
30.8000,1.942
30.8400,2.047
30.8800,1.995
30.9200,1.993
30.9600,1.884
31.0000,1.931
31.0400,2.004
31.0800,2.060
31.1200,2.008
31.1600,1.882
31.2000,1.934
31.2400,2.109
31.2800,2.114
31.3200,2.007
31.3600,1.866
31.4000,1.972
31.4400,1.988
31.4800,2.032
31.5200,1.991
31.5600,1.927
31.6000,1.987
31.6400,2.020
31.6800,2.109
31.7200,1.954
31.7600,1.963
31.8000,1.917
31.8400,2.003
31.8800,1.869
31.9200,1.973
31.9600,1.981
32.0000,1.945
32.0400,1.996
32.0800,1.864
32.1200,2.046
32.1600,1.987
32.2000,1.918
32.2400,1.986
32.2800,1.944
32.3200,2.085
32.3600,1.992
32.4000,1.974
32.4400,1.878
32.4800,1.837
32.5200,1.911
32.5600,1.931
32.6000,1.774
32.6400,2.015
32.6800,1.850
32.7200,1.935
32.7600,1.866
32.8000,1.917
32.8400,1.950
32.8800,1.953
32.9200,2.659
32.9600,4.875
33.0000,4.272
33.0400,2.166
33.0800,1.938
33.1200,1.935
33.1600,1.997
33.2000,1.803
33.2400,1.848
33.2800,1.835
33.3200,1.860
33.3600,1.911
33.4000,1.880
33.4400,1.869
33.4800,1.864
33.5200,1.725
33.5600,1.820
33.6000,1.761
33.6400,1.833
33.6800,1.787
33.7200,1.909
33.7600,1.693
33.8000,1.820
33.8400,1.873
33.8800,1.834
33.9200,1.947
33.9600,1.862
34.0000,1.772
34.0400,1.823
34.0800,1.799
34.1200,1.820
34.1600,1.850
34.2000,1.776
34.2400,1.851
34.2800,1.849
34.3200,1.858
34.3600,1.859
34.4000,1.829
34.4400,1.868
34.4800,1.703
34.5200,1.635
34.5600,1.668
34.6000,1.653
34.6400,1.776
34.6800,1.741
34.7200,1.874
34.7600,1.788
34.8000,1.699
34.8400,1.869
34.8800,1.689
34.9200,1.792
34.9600,1.792
35.0000,1.793
35.0400,1.658
35.0800,1.706
35.1200,1.815
35.1600,1.654
35.2000,1.699
35.2400,1.728
35.2800,1.790
35.3200,1.674
35.3600,1.740
35.4000,1.728
35.4400,1.724
35.4800,1.621
35.5200,1.726
35.5600,1.879
35.6000,1.649
35.6400,1.753
35.6800,1.809
35.7200,1.716
35.7600,1.684
35.8000,1.769
35.8400,1.780
35.8800,1.718
35.9200,1.792
35.9600,1.694
36.0000,1.764
36.0400,1.755
36.0800,1.793
36.1200,1.916
36.1600,1.816
36.2000,1.788
36.2400,1.791
36.2800,1.828
36.3200,1.735
36.3600,1.766
36.4000,1.736
36.4400,1.750
36.4800,1.707
36.5200,1.645
36.5600,1.782
36.6000,1.699
36.6400,1.647
36.6800,1.647
36.7200,1.679
36.7600,1.770
36.8000,1.726
36.8400,1.802
36.8800,1.731
36.9200,1.771
36.9600,1.771
37.0000,1.713
37.0400,1.714
37.0800,1.793
37.1200,1.745
37.1600,1.763
37.2000,1.722
37.2400,1.722
37.2800,1.763
37.3200,1.749
37.3600,1.653
37.4000,1.718
37.4400,1.895
37.4800,1.788
37.5200,1.828
37.5600,1.770
37.6000,1.810
37.6400,1.782
37.6800,1.881
37.7200,1.725
37.7600,1.772
37.8000,1.851
37.8400,1.962
37.8800,1.823
37.9200,2.055
37.9600,2.016
38.0000,2.055
38.0400,2.127
38.0800,2.102
38.1200,2.211
38.1600,2.246
38.2000,2.304
38.2400,2.427
38.2800,2.593
38.3200,2.783
38.3600,2.931
38.4000,3.313
38.4400,3.530
38.4800,4.024
38.5200,4.634
38.5600,5.241
38.6000,6.280
38.6400,7.358
38.6800,8.739
38.7200,9.837
38.7600,10.705
38.8000,11.041
38.8400,10.941
38.8800,10.144
38.9200,9.225
38.9600,8.166
39.0000,6.827
39.0400,5.824
39.0800,5.305
39.1200,4.479
39.1600,3.792
39.2000,3.397
39.2400,3.079
39.2800,2.961
39.3200,2.719
39.3600,2.397
39.4000,2.498
39.4400,2.387
39.4800,2.198
39.5200,2.230
39.5600,2.084
39.6000,2.037
39.6400,2.030
39.6800,1.907
39.7200,1.918
39.7600,1.743
39.8000,1.586
39.8400,1.645
39.8800,1.719
39.9200,1.742
39.9600,1.722
40.0000,1.664
40.0400,1.675
40.0800,1.662
40.1200,1.651
40.1600,1.680
40.2000,1.594
40.2400,1.616
40.2800,1.629
40.3200,1.667
40.3600,1.648
40.4000,1.599
40.4400,1.666
40.4800,1.615
40.5200,1.560
40.5600,1.612
40.6000,1.617
40.6400,1.525
40.6800,1.539
40.7200,1.414
40.7600,1.512
40.8000,1.426
40.8400,1.543
40.8800,1.464
40.9200,1.485
40.9600,1.543
41.0000,1.409
41.0400,1.439
41.0800,1.329
41.1200,1.293
41.1600,1.403
41.2000,1.338
41.2400,1.325
41.2800,1.422
41.3200,1.457
41.3600,1.390
41.4000,1.380
41.4400,1.550
41.4800,1.399
41.5200,1.422
41.5600,1.400
41.6000,1.368
41.6400,1.380
41.6800,1.384
41.7200,1.427
41.7600,1.406
41.8000,1.336
41.8400,1.364
41.8800,1.390
41.9200,1.458
41.9600,1.340
42.0000,1.330
42.0400,1.364
42.0800,1.397
42.1200,1.344
42.1600,1.389
42.2000,1.310
42.2400,1.380
42.2800,1.365
42.3200,1.217
42.3600,1.284
42.4000,1.332
42.4400,1.310
42.4800,1.305
42.5200,1.321
42.5600,1.300
42.6000,1.327
42.6400,1.314
42.6800,1.376
42.7200,1.314
42.7600,1.241
42.8000,1.298
42.8400,1.329
42.8800,1.383
42.9200,1.353
42.9600,1.320
43.0000,1.199
43.0400,1.354
43.0800,1.335
43.1200,1.330
43.1600,1.344
43.2000,1.404
43.2400,1.454
43.2800,1.328
43.3200,1.281
43.3600,1.256
43.4000,1.438
43.4400,1.317
43.4800,1.257
43.5200,1.310
43.5600,1.342
43.6000,1.280
43.6400,1.356
43.6800,1.321
43.7200,1.303
43.7600,1.355
43.8000,1.318
43.8400,1.409
43.8800,1.338
43.9200,1.425
43.9600,1.436
44.0000,1.350
44.0400,1.470
44.0800,1.391
44.1200,1.435
44.1600,1.444
44.2000,1.493
44.2400,1.506
44.2800,1.375
44.3200,1.496
44.3600,1.557
44.4000,1.533
44.4400,1.699
44.4800,1.753
44.5200,1.685
44.5600,1.637
44.6000,1.782
44.6400,1.953
44.6800,1.887
44.7200,2.096
44.7600,2.205
44.8000,2.275
44.8400,2.425
44.8800,2.791
44.9200,2.599
44.9600,2.948
45.0000,3.011
45.0400,3.282
45.0800,3.475
45.1200,3.584
45.1600,3.347
45.2000,3.220
45.2400,3.206
45.2800,3.156
45.3200,2.940
45.3600,2.726
45.4000,2.419
45.4400,2.320
45.4800,2.210
45.5200,2.141
45.5600,2.102
45.6000,1.894
45.6400,1.707
45.6800,1.746
45.7200,1.541
45.7600,1.579
45.8000,1.451
45.8400,1.402
45.8800,1.357
45.9200,1.388
45.9600,1.346
46.0000,1.321
46.0400,1.245
46.0800,1.340
46.1200,1.223
46.1600,1.277
46.2000,1.289
46.2400,1.318
46.2800,1.139
46.3200,1.132
46.3600,1.292
46.4000,1.164
46.4400,1.123
46.4800,1.233
46.5200,1.169
46.5600,1.093
46.6000,1.152
46.6400,1.135
46.6800,1.185
46.7200,1.200
46.7600,1.205
46.8000,1.138
46.8400,1.109
46.8800,1.132
46.9200,1.096
46.9600,1.020
47.0000,1.078
47.0400,1.087
47.0800,1.100
47.1200,1.106
47.1600,1.023
47.2000,1.074
47.2400,1.111
47.2800,1.127
47.3200,1.083
47.3600,1.037
47.4000,1.061
47.4400,1.036
47.4800,1.040
47.5200,0.973
47.5600,1.024
47.6000,1.064
47.6400,1.071
47.6800,1.035
47.7200,1.087
47.7600,1.113
47.8000,0.991
47.8400,1.042
47.8800,0.933
47.9200,1.075
47.9600,1.050
48.0000,0.956
48.0400,1.073
48.0800,1.054
48.1200,1.032
48.1600,1.126
48.2000,1.008
48.2400,0.936
48.2800,1.071
48.3200,0.925
48.3600,1.073
48.4000,0.969
48.4400,1.031
48.4800,0.874
48.5200,1.014
48.5600,0.957
48.6000,1.082
48.6400,0.924
48.6800,1.008
48.7200,0.995
48.7600,1.055
48.8000,0.923
48.8400,1.029
48.8800,1.011
48.9200,0.945
48.9600,0.979
49.0000,0.926
49.0400,0.917
49.0800,1.040
49.1200,0.959
49.1600,1.056
49.2000,0.923
49.2400,1.008
49.2800,0.984
49.3200,1.062
49.3600,0.944
49.4000,0.999
49.4400,0.970
49.4800,1.043
49.5200,1.044
49.5600,0.961
49.6000,0.961
49.6400,1.003
49.6800,0.962
49.7200,1.003
49.7600,0.899
49.8000,1.012
49.8400,0.986
49.8800,0.965
49.9200,0.887
49.9600,1.013
50.0000,0.920
50.0400,0.974
50.0800,0.920
50.1200,0.919
50.1600,0.927
50.2000,0.963
50.2400,0.991
50.2800,0.966
50.3200,0.907
50.3600,0.925
50.4000,0.978
50.4400,1.004
50.4800,1.013
50.5200,0.866
50.5600,0.897
50.6000,0.874
50.6400,0.916
50.6800,0.956
50.7200,0.931
50.7600,0.896
50.8000,0.952
50.8400,0.949
50.8800,0.906
50.9200,0.951
50.9600,0.931
51.0000,0.889
51.0400,0.901
51.0800,0.915
51.1200,0.834
51.1600,0.936
51.2000,0.893
51.2400,0.895
51.2800,0.878
51.3200,0.874
51.3600,0.973
51.4000,0.920
51.4400,0.918
51.4800,0.899
51.5200,0.924
51.5600,0.862
51.6000,0.901
51.6400,0.887
51.6800,0.939
51.7200,0.928
51.7600,0.854
51.8000,0.915
51.8400,0.831
51.8800,0.934
51.9200,0.924
51.9600,0.799
52.0000,0.873
52.0400,0.844
52.0800,0.932
52.1200,0.930
52.1600,0.902
52.2000,0.870
52.2400,0.809
52.2800,0.810
52.3200,0.866
52.3600,0.901
52.4000,0.876
52.4400,0.882
52.4800,0.898
52.5200,0.861
52.5600,0.811
52.6000,0.856
52.6400,0.907
52.6800,0.819
52.7200,0.897
52.7600,0.897
52.8000,0.935
52.8400,0.865
52.8800,0.832
52.9200,0.865
52.9600,0.776
53.0000,0.861
53.0400,0.820
53.0800,0.804
53.1200,0.923
53.1600,0.936
53.2000,0.881
53.2400,0.836
53.2800,0.842
53.3200,0.885
53.3600,0.779
53.4000,0.876
53.4400,0.857
53.4800,0.825
53.5200,0.885
53.5600,0.862
53.6000,0.812
53.6400,0.798
53.6800,0.838
53.7200,0.848
53.7600,0.885
53.8000,0.859
53.8400,0.844
53.8800,0.839
53.9200,0.871
53.9600,0.836
54.0000,0.829
54.0400,0.883
54.0800,0.844
54.1200,0.783
54.1600,0.843
54.2000,0.892
54.2400,0.852
54.2800,0.905
54.3200,0.753
54.3600,0.852
54.4000,0.807
54.4400,0.798
54.4800,0.812
54.5200,0.853
54.5600,0.869
54.6000,0.718
54.6400,0.834
54.6800,0.835
54.7200,0.839
54.7600,0.843
54.8000,0.848
54.8400,0.781
54.8800,0.870
54.9200,0.794
54.9600,0.823
55.0000,0.831
55.0400,0.801
55.0800,0.816
55.1200,0.758
55.1600,0.773
55.2000,0.783
55.2400,0.807
55.2800,0.789
55.3200,0.851
55.3600,0.786
55.4000,0.804
55.4400,0.867
55.4800,0.839
55.5200,0.792
55.5600,0.804
55.6000,0.837
55.6400,0.773
55.6800,0.828
55.7200,0.802
55.7600,0.824
55.8000,0.741
55.8400,0.802
55.8800,0.738
55.9200,0.804
55.9600,0.811
56.0000,0.751
56.0400,0.739
56.0800,0.766
56.1200,0.758
56.1600,0.702
56.2000,0.795
56.2400,0.786
56.2800,0.831
56.3200,0.795
56.3600,0.722
56.4000,0.829
56.4400,0.813
56.4800,0.860
56.5200,0.784
56.5600,0.875
56.6000,0.754
56.6400,0.735
56.6800,0.860
56.7200,0.766
56.7600,0.750
56.8000,0.855
56.8400,0.807
56.8800,0.781
56.9200,0.801
56.9600,0.808
57.0000,0.821
57.0400,0.754
57.0800,0.778
57.1200,0.798
57.1600,0.785
57.2000,0.770
57.2400,0.732
57.2800,0.792
57.3200,0.780
57.3600,0.784
57.4000,0.895
57.4400,0.691
57.4800,0.778
57.5200,0.782
57.5600,0.804
57.6000,0.725
57.6400,0.758
57.6800,0.761
57.7200,0.789
57.7600,0.757
57.8000,0.747
57.8400,0.811
57.8800,0.758
57.9200,0.868
57.9600,0.748
58.0000,0.821
58.0400,0.784
58.0800,0.751
58.1200,0.752
58.1600,0.786
58.2000,0.811
58.2400,0.680
58.2800,0.858
58.3200,0.761
58.3600,0.802
58.4000,0.845
58.4400,0.755
58.4800,0.758
58.5200,0.762
58.5600,0.790
58.6000,0.730
58.6400,0.795
58.6800,0.786
58.7200,0.767
58.7600,0.818
58.8000,0.764
58.8400,0.702
58.8800,0.743
58.9200,0.716
58.9600,0.766
59.0000,0.705
59.0400,0.767
59.0800,0.805
59.1200,0.761
59.1600,0.788
59.2000,0.792
59.2400,0.805
59.2800,0.742
59.3200,0.703
59.3600,0.752
59.4000,0.728
59.4400,0.798
59.4800,0.720
59.5200,0.737
59.5600,0.738
59.6000,0.726
59.6400,0.704
59.6800,0.788
59.7200,0.723
59.7600,0.742
59.8000,0.793
59.8400,0.750
59.8800,0.737
59.9200,0.735
59.9600,0.761
60.0000,0.757
60.0400,0.709
60.0800,0.728
60.1200,0.757
60.1600,0.789
60.2000,0.730
60.2400,0.782
60.2800,0.788
60.3200,0.733
60.3600,0.799
60.4000,0.706
60.4400,0.734
60.4800,0.698
60.5200,0.707
60.5600,0.717
60.6000,0.672
60.6400,0.745
60.6800,0.721
60.7200,0.736
60.7600,0.722
60.8000,0.729
60.8400,0.589
60.8800,0.743
60.9200,0.725
60.9600,0.722
61.0000,0.636
61.0400,0.641
61.0800,0.676
61.1200,0.725
61.1600,0.685
61.2000,0.643
61.2400,0.667
61.2800,0.718
61.3200,0.634
61.3600,0.685
61.4000,0.655
61.4400,0.647
61.4800,0.715
61.5200,0.688
61.5600,0.760
61.6000,0.719
61.6400,0.772
61.6800,0.840
61.7200,0.796
61.7600,0.707
61.8000,0.754
61.8400,0.703
61.8800,0.684
61.9200,0.680
61.9600,0.675
62.0000,0.752
62.0400,0.684
62.0800,0.624
62.1200,0.693
62.1600,0.634
62.2000,0.688
62.2400,0.677
62.2800,0.690
62.3200,0.732
62.3600,0.685
62.4000,0.636
62.4400,0.720
62.4800,0.693
62.5200,0.722
62.5600,0.694
62.6000,0.691
62.6400,0.723
62.6800,0.625
62.7200,0.689
62.7600,0.671
62.8000,0.645
62.8400,0.718
62.8800,0.670
62.9200,0.727
62.9600,0.647
63.0000,0.740
63.0400,0.661
63.0800,0.685
63.1200,0.736
63.1600,0.660
63.2000,0.630
63.2400,0.706
63.2800,0.709
63.3200,0.729
63.3600,0.686
63.4000,0.753
63.4400,0.703
63.4800,0.604
63.5200,0.768
63.5600,0.755
63.6000,0.818
63.6400,0.668
63.6800,0.686
63.7200,0.713
63.7600,0.725
63.8000,0.715
63.8400,0.686
63.8800,0.715
63.9200,0.745
63.9600,0.734
64.0000,0.760
64.0400,0.714
64.0800,0.673
64.1200,0.725
64.1600,0.702
64.2000,0.754
64.2400,0.736
64.2800,0.803
64.3200,0.754
64.3600,0.812
64.4000,0.770
64.4400,0.830
64.4800,0.727
64.5200,0.807
64.5600,0.785
64.6000,0.762
64.6400,0.775
64.6800,0.820
64.7200,0.790
64.7600,0.808
64.8000,0.804
64.8400,0.916
64.8800,0.885
64.9200,0.857
64.9600,0.936
65.0000,0.880
65.0400,0.890
65.0800,0.921
65.1200,0.906
65.1600,0.839
65.2000,0.977
65.2400,1.036
65.2800,1.062
65.3200,1.196
65.3600,1.156
65.4000,1.189
65.4400,1.370
65.4800,1.426
65.5200,1.381
65.5600,1.561
65.6000,1.661
65.6400,1.841
65.6800,1.894
65.7200,1.920
65.7600,1.925
65.8000,1.822
65.8400,1.898
65.8800,1.851
65.9200,1.611
65.9600,1.634
66.0000,1.516
66.0400,1.581
66.0800,1.470
66.1200,1.341
66.1600,1.254
66.2000,1.233
66.2400,1.162
66.2800,1.149
66.3200,1.094
66.3600,1.163
66.4000,1.133
66.4400,1.170
66.4800,1.153
66.5200,1.140
66.5600,1.080
66.6000,1.113
66.6400,1.122
66.6800,1.117
66.7200,1.068
66.7600,1.101
66.8000,1.011
66.8400,1.089
66.8800,1.116
66.9200,1.087
66.9600,0.965
67.0000,1.114
67.0400,1.151
67.0800,1.261
67.1200,1.115
67.1600,1.179
67.2000,1.298
67.2400,1.191
67.2800,1.180
67.3200,1.227
67.3600,1.294
67.4000,1.387
67.4400,1.240
67.4800,1.314
67.5200,1.421
67.5600,1.344
67.6000,1.517
67.6400,1.357
67.6800,1.494
67.7200,1.528
67.7600,1.544
67.8000,1.609
67.8400,1.541
67.8800,1.656
67.9200,1.616
67.9600,1.646
68.0000,1.632
68.0400,1.808
68.0800,1.826
68.1200,1.795
68.1600,1.952
68.2000,1.977
68.2400,2.035
68.2800,2.061
68.3200,2.094
68.3600,2.286
68.4000,2.324
68.4400,2.456
68.4800,2.539
68.5200,2.708
68.5600,2.815
68.6000,2.877
68.6400,3.306
68.6800,3.552
68.7200,4.636
68.7600,6.092
68.8000,7.220
68.8400,7.219
68.8800,7.698
68.9200,8.671
68.9600,11.370
69.0000,17.848
69.0400,36.403
69.0800,150.168
69.1200,441.043
69.1600,411.179
69.2000,129.338
69.2400,49.658
69.2800,99.497
69.3200,232.081
69.3600,202.549
69.4000,64.022
69.4400,20.251
69.4800,11.633
69.5200,8.357
69.5600,6.615
69.6000,5.233
69.6400,4.801
69.6800,4.093
69.7200,3.813
69.7600,3.502
69.8000,3.344
69.8400,3.068
69.8800,2.793
69.9200,2.756
69.9600,2.477
70.0000,2.460
70.0400,2.308
70.0800,2.293
70.1200,2.243
70.1600,2.169
70.2000,2.104
70.2400,1.970
70.2800,1.910
70.3200,1.905
70.3600,1.825
70.4000,1.876
70.4400,1.804
70.4800,1.747
70.5200,1.642
70.5600,1.559
70.6000,1.600
70.6400,1.550
70.6800,1.548
70.7200,1.472
70.7600,1.398
70.8000,1.427
70.8400,1.429
70.8800,1.370
70.9200,1.192
70.9600,1.288
71.0000,1.239
71.0400,1.175
71.0800,1.226
71.1200,1.214
71.1600,1.089
71.2000,1.195
71.2400,1.060
71.2800,1.101
71.3200,1.069
71.3600,0.988
71.4000,1.014
71.4400,1.031
71.4800,1.035
71.5200,0.948
71.5600,1.027
71.6000,1.019
71.6400,0.999
71.6800,0.937
71.7200,0.876
71.7600,0.880
71.8000,0.944
71.8400,0.865
71.8800,0.915
71.9200,0.765
71.9600,0.781
72.0000,0.810
72.0400,0.792
72.0800,0.789
72.1200,0.839
72.1600,0.763
72.2000,0.817
72.2400,0.743
72.2800,0.780
72.3200,0.749
72.3600,0.726
72.4000,0.664
72.4400,0.715
72.4800,0.651
72.5200,0.639
72.5600,0.772
72.6000,0.645
72.6400,0.688
72.6800,0.685
72.7200,0.681
72.7600,0.667
72.8000,0.675
72.8400,0.661
72.8800,0.588
72.9200,0.694
72.9600,0.652
73.0000,0.645
73.0400,0.596
73.0800,0.644
73.1200,0.587
73.1600,0.608
73.2000,0.619
73.2400,0.658
73.2800,0.588
73.3200,0.571
73.3600,0.615
73.4000,0.617
73.4400,0.588
73.4800,0.577
73.5200,0.565
73.5600,0.586
73.6000,0.544
73.6400,0.549
73.6800,0.540
73.7200,0.573
73.7600,0.626
73.8000,0.479
73.8400,0.554
73.8800,0.569
73.9200,0.557
73.9600,0.552
74.0000,0.508
74.0400,0.552
74.0800,0.556
74.1200,0.569
74.1600,0.560
74.2000,0.541
74.2400,0.571
74.2800,0.564
74.3200,0.467
74.3600,0.459
74.4000,0.548
74.4400,0.589
74.4800,0.610
74.5200,0.505
74.5600,0.521
74.6000,0.518
74.6400,0.547
74.6800,0.522
74.7200,0.553
74.7600,0.596
74.8000,0.490
74.8400,0.521
74.8800,0.499
74.9200,0.530
74.9600,0.478
75.0000,0.495
75.0400,0.520
75.0800,0.517
75.1200,0.503
75.1600,0.438
75.2000,0.589
75.2400,0.574
75.2800,0.523
75.3200,0.506
75.3600,0.491
75.4000,0.440
75.4400,0.525
75.4800,0.486
75.5200,0.489
75.5600,0.545
75.6000,0.578
75.6400,0.501
75.6800,0.448
75.7200,0.471
75.7600,0.500
75.8000,0.521
75.8400,0.502
75.8800,0.483
75.9200,0.500
75.9600,0.538
76.0000,0.491
76.0400,0.432
76.0800,0.482
76.1200,0.465
76.1600,0.549
76.2000,0.483
76.2400,0.454
76.2800,0.470
76.3200,0.451
76.3600,0.447
76.4000,0.501
76.4400,0.455
76.4800,0.521
76.5200,0.544
76.5600,0.479
76.6000,0.457
76.6400,0.425
76.6800,0.462
76.7200,0.476
76.7600,0.475
76.8000,0.448
76.8400,0.549
76.8800,0.452
76.9200,0.443
76.9600,0.504
77.0000,0.466
77.0400,0.471
77.0800,0.484
77.1200,0.493
77.1600,0.481
77.2000,0.462
77.2400,0.485
77.2800,0.505
77.3200,0.490
77.3600,0.463
77.4000,0.464
77.4400,0.458
77.4800,0.529
77.5200,0.481
77.5600,0.493
77.6000,0.520
77.6400,0.477
77.6800,0.502
77.7200,0.501
77.7600,0.531
77.8000,0.525
77.8400,0.494
77.8800,0.506
77.9200,0.559
77.9600,0.471
78.0000,0.451
78.0400,0.544
78.0800,0.489
78.1200,0.544
78.1600,0.576
78.2000,0.555
78.2400,0.579
78.2800,0.585
78.3200,0.582
78.3600,0.607
78.4000,0.631
78.4400,0.600
78.4800,0.612
78.5200,0.654
78.5600,0.740
78.6000,0.754
78.6400,0.774
78.6800,0.858
78.7200,0.914
78.7600,0.900
78.8000,1.015
78.8400,1.002
78.8800,1.090
78.9200,1.169
78.9600,1.176
79.0000,1.200
79.0400,1.237
79.0800,1.139
79.1200,1.246
79.1600,1.280
79.2000,1.139
79.2400,1.186
79.2800,1.146
79.3200,1.056
79.3600,1.044
79.4000,0.978
79.4400,0.927
79.4800,0.813
79.5200,0.767
79.5600,0.752
79.6000,0.657
79.6400,0.766
79.6800,0.615
79.7200,0.654
79.7600,0.635
79.8000,0.578
79.8400,0.605
79.8800,0.585
79.9200,0.594
79.9600,0.561
80.0000,0.545
80.0400,0.459
80.0800,0.528
80.1200,0.566
80.1600,0.487
80.2000,0.458
80.2400,0.549
80.2800,0.458
80.3200,0.455
80.3600,0.505
80.4000,0.483
80.4400,0.426
80.4800,0.458
80.5200,0.417
80.5600,0.487
80.6000,0.401
80.6400,0.477
80.6800,0.441
80.7200,0.452
80.7600,0.490
80.8000,0.466
80.8400,0.451
80.8800,0.416
80.9200,0.469
80.9600,0.483
81.0000,0.491
81.0400,0.468
81.0800,0.425
81.1200,0.429
81.1600,0.409
81.2000,0.443
81.2400,0.406
81.2800,0.427
81.3200,0.414
81.3600,0.367
81.4000,0.424
81.4400,0.439
81.4800,0.418
81.5200,0.397
81.5600,0.416
81.6000,0.445
81.6400,0.416
81.6800,0.373
81.7200,0.423
81.7600,0.438
81.8000,0.421
81.8400,0.412
81.8800,0.418
81.9200,0.430
81.9600,0.383
82.0000,0.393
82.0400,0.410
82.0800,0.415
82.1200,0.443
82.1600,0.480
82.2000,0.369
82.2400,0.410
82.2800,0.371
82.3200,0.434
82.3600,0.402
82.4000,0.375
82.4400,0.391
82.4800,0.469
82.5200,0.380
82.5600,0.420
82.6000,0.496
82.6400,0.459
82.6800,0.418
82.7200,0.440
82.7600,0.499
82.8000,0.525
82.8400,0.475
82.8800,0.467
82.9200,0.551
82.9600,0.577
83.0000,0.525
83.0400,0.607
83.0800,0.545
83.1200,0.573
83.1600,0.625
83.2000,0.622
83.2400,0.584
83.2800,0.614
83.3200,0.571
83.3600,0.654
83.4000,0.607
83.4400,0.558
83.4800,0.655
83.5200,0.609
83.5600,0.540
83.6000,0.575
83.6400,0.550
83.6800,0.595
83.7200,0.522
83.7600,0.490
83.8000,0.472
83.8400,0.436
83.8800,0.431
83.9200,0.462
83.9600,0.398
84.0000,0.384
84.0400,0.392
84.0800,0.423
84.1200,0.376
84.1600,0.401
84.2000,0.410
84.2400,0.438
84.2800,0.403
84.3200,0.447
84.3600,0.360
84.4000,0.342
84.4400,0.350
84.4800,0.365
84.5200,0.436
84.5600,0.419
84.6000,0.427
84.6400,0.406
84.6800,0.419
84.7200,0.424
84.7600,0.365
84.8000,0.330
84.8400,0.360
84.8800,0.378
84.9200,0.389
84.9600,0.358
85.0000,0.353
85.0400,0.305
85.0800,0.340
85.1200,0.450
85.1600,0.352
85.2000,0.324
85.2400,0.358
85.2800,0.411
85.3200,0.375
85.3600,0.422
85.4000,0.371
85.4400,0.386
85.4800,0.383
85.5200,0.341
85.5600,0.346
85.6000,0.299
85.6400,0.365
85.6800,0.412
85.7200,0.338
85.7600,0.344
85.8000,0.338
85.8400,0.362
85.8800,0.425
85.9200,0.382
85.9600,0.335
86.0000,0.379
86.0400,0.341
86.0800,0.360
86.1200,0.349
86.1600,0.346
86.2000,0.342
86.2400,0.392
86.2800,0.352
86.3200,0.356
86.3600,0.349
86.4000,0.344
86.4400,0.350
86.4800,0.331
86.5200,0.348
86.5600,0.387
86.6000,0.366
86.6400,0.344
86.6800,0.376
86.7200,0.379
86.7600,0.344
86.8000,0.360
86.8400,0.385
86.8800,0.320
86.9200,0.309
86.9600,0.303
87.0000,0.339
87.0400,0.360
87.0800,0.346
87.1200,0.335
87.1600,0.374
87.2000,0.349
87.2400,0.383
87.2800,0.334
87.3200,0.319
87.3600,0.352
87.4000,0.358
87.4400,0.375
87.4800,0.390
87.5200,0.333
87.5600,0.344
87.6000,0.327
87.6400,0.351
87.6800,0.365
87.7200,0.307
87.7600,0.356
87.8000,0.308
87.8400,0.302
87.8800,0.413
87.9200,0.303
87.9600,0.324
88.0000,0.315
88.0400,0.343
88.0800,0.332
88.1200,0.338
88.1600,0.340
88.2000,0.352
88.2400,0.367
88.2800,0.332
88.3200,0.380
88.3600,0.336
88.4000,0.349
88.4400,0.337
88.4800,0.331
88.5200,0.328
88.5600,0.352
88.6000,0.291
88.6400,0.350
88.6800,0.339
88.7200,0.363
88.7600,0.327
88.8000,0.302
88.8400,0.322
88.8800,0.307
88.9200,0.314
88.9600,0.387
89.0000,0.319
89.0400,0.312
89.0800,0.333
89.1200,0.312
89.1600,0.345
89.2000,0.344
89.2400,0.369
89.2800,0.361
89.3200,0.335
89.3600,0.324
89.4000,0.347
89.4400,0.361
89.4800,0.322
89.5200,0.332
89.5600,0.338
89.6000,0.374
89.6400,0.300
89.6800,0.359
89.7200,0.311
89.7600,0.314
89.8000,0.338
89.8400,0.263
89.8800,0.341
89.9200,0.356
89.9600,0.343
90.0000,0.364
