5.0400,6.743
5.0800,6.592
5.1200,6.164
5.1600,6.186
5.2000,6.190
5.2400,6.288
5.2800,6.198
5.3200,6.098
5.3600,5.970
5.4000,5.896
5.4400,5.676
5.4800,5.626
5.5200,5.553
5.5600,5.538
5.6000,5.440
5.6400,5.478
5.6800,5.204
5.7200,5.273
5.7600,5.168
5.8000,5.043
5.8400,5.222
5.8800,5.061
5.9200,4.927
5.9600,4.888
6.0000,4.668
6.0400,4.796
6.0800,4.692
6.1200,4.644
6.1600,4.641
6.2000,4.732
6.2400,4.568
6.2800,4.631
6.3200,4.688
6.3600,4.711
6.4000,4.718
6.4400,4.629
6.4800,4.528
6.5200,4.583
6.5600,4.572
6.6000,4.521
6.6400,4.433
6.6800,4.435
6.7200,4.718
6.7600,4.440
6.8000,4.451
6.8400,4.446
6.8800,4.505
6.9200,4.348
6.9600,4.377
7.0000,4.410
7.0400,4.379
7.0800,4.364
7.1200,4.393
7.1600,4.555
7.2000,4.327
7.2400,4.330
7.2800,4.464
7.3200,4.571
7.3600,4.502
7.4000,4.379
7.4400,4.282
7.4800,4.385
7.5200,4.143
7.5600,4.337
7.6000,4.234
7.6400,4.496
7.6800,4.335
7.7200,4.386
7.7600,4.283
7.8000,4.135
7.8400,4.407
7.8800,4.319
7.9200,4.187
7.9600,4.222
8.0000,4.277
8.0400,4.083
8.0800,4.118
8.1200,4.176
8.1600,4.162
8.2000,4.263
8.2400,4.039
8.2800,4.214
8.3200,4.301
8.3600,4.240
8.4000,4.279
8.4400,4.093
8.4800,4.054
8.5200,4.139
8.5600,4.152
8.6000,4.250
8.6400,4.050
8.6800,3.995
8.7200,4.111
8.7600,3.994
8.8000,4.126
8.8400,4.072
8.8800,4.041
8.9200,3.984
8.9600,4.097
9.0000,3.971
9.0400,4.070
9.0800,4.017
9.1200,4.133
9.1600,3.985
9.2000,3.982
9.2400,4.090
9.2800,3.875
9.3200,4.069
9.3600,3.968
9.4000,3.937
9.4400,4.117
9.4800,3.962
9.5200,3.855
9.5600,3.921
9.6000,4.041
9.6400,4.050
9.6800,3.861
9.7200,4.001
9.7600,4.013
9.8000,3.952
9.8400,3.911
9.8800,3.987
9.9200,3.793
9.9600,3.881
10.0000,3.811
10.0400,3.744
10.0800,3.949
10.1200,3.834
10.1600,3.889
10.2000,3.955
10.2400,3.937
10.2800,3.788
10.3200,3.968
10.3600,3.867
10.4000,3.961
10.4400,3.779
10.4800,3.947
10.5200,3.774
10.5600,3.825
10.6000,3.756
10.6400,3.896
10.6800,3.758
10.7200,3.733
10.7600,3.742
10.8000,3.771
10.8400,3.764
10.8800,3.715
10.9200,3.604
10.9600,3.734
11.0000,3.550
11.0400,3.727
11.0800,3.675
11.1200,3.908
11.1600,3.744
11.2000,3.712
11.2400,3.912
11.2800,3.735
11.3200,3.627
11.3600,3.688
11.4000,3.696
11.4400,3.832
11.4800,3.662
11.5200,3.624
11.5600,3.675
11.6000,3.658
11.6400,3.718
11.6800,3.777
11.7200,3.670
11.7600,3.510
11.8000,3.673
11.8400,3.570
11.8800,3.730
11.9200,3.513
11.9600,3.358
12.0000,3.634
12.0400,3.665
12.0800,3.433
12.1200,3.640
12.1600,3.675
12.2000,3.392
12.2400,3.503
12.2800,3.518
12.3200,3.546
12.3600,3.607
12.4000,3.611
12.4400,3.614
12.4800,3.516
12.5200,3.614
12.5600,3.423
12.6000,3.377
12.6400,3.554
12.6800,3.709
12.7200,3.532
12.7600,3.516
12.8000,3.377
12.8400,3.330
12.8800,3.321
12.9200,3.398
12.9600,3.394
13.0000,3.366
13.0400,3.319
13.0800,3.351
13.1200,3.505
13.1600,3.361
13.2000,3.600
13.2400,3.491
13.2800,3.396
13.3200,3.422
13.3600,3.393
13.4000,3.359
13.4400,3.565
13.4800,3.446
13.5200,3.311
13.5600,3.528
13.6000,3.426
13.6400,3.310
13.6800,3.422
13.7200,3.418
13.7600,3.483
13.8000,3.357
13.8400,3.266
13.8800,3.388
13.9200,3.196
13.9600,3.418
14.0000,3.317
14.0400,3.415
14.0800,3.386
14.1200,3.336
14.1600,3.315
14.2000,3.288
14.2400,3.360
14.2800,3.366
14.3200,3.332
14.3600,3.453
14.4000,3.189
14.4400,3.375
14.4800,3.468
14.5200,3.367
14.5600,3.196
14.6000,3.255
14.6400,3.216
14.6800,3.296
14.7200,3.256
14.7600,3.262
14.8000,3.279
14.8400,3.376
14.8800,3.516
14.9200,3.144
14.9600,3.345
15.0000,3.279
15.0400,3.241
15.0800,3.009
15.1200,3.204
15.1600,3.238
15.2000,3.057
15.2400,3.225
15.2800,3.229
15.3200,3.227
15.3600,3.242
15.4000,3.313
15.4400,3.102
15.4800,3.166
15.5200,3.116
15.5600,3.165
15.6000,3.241
15.6400,3.188
15.6800,3.241
15.7200,3.206
15.7600,3.168
15.8000,3.085
15.8400,3.203
15.8800,3.161
15.9200,3.000
15.9600,3.156
16.0000,3.047
16.0400,3.201
16.0800,3.163
16.1200,3.203
16.1600,3.025
16.2000,3.100
16.2400,3.068
16.2800,2.988
16.3200,3.046
16.3600,3.078
16.4000,2.991
16.4400,3.303
16.4800,3.041
16.5200,2.966
16.5600,3.005
16.6000,3.074
16.6400,3.127
16.6800,2.947
16.7200,3.059
16.7600,3.190
16.8000,3.175
16.8400,2.957
16.8800,2.912
16.9200,2.992
16.9600,3.083
17.0000,2.988
17.0400,2.934
17.0800,3.063
17.1200,3.002
17.1600,2.938
17.2000,3.058
17.2400,2.994
17.2800,3.012
17.3200,3.023
17.3600,3.014
17.4000,2.920
17.4400,2.987
17.4800,2.921
17.5200,2.978
17.5600,2.928
17.6000,3.136
17.6400,2.970
17.6800,2.955
17.7200,2.849
17.7600,2.904
17.8000,3.001
17.8400,3.039
17.8800,2.908
17.9200,2.882
17.9600,2.923
18.0000,2.967
18.0400,3.040
18.0800,2.910
18.1200,2.938
18.1600,2.945
18.2000,2.927
18.2400,2.996
18.2800,2.799
18.3200,2.835
18.3600,2.878
18.4000,2.881
18.4400,2.996
18.4800,2.858
18.5200,3.024
18.5600,3.121
18.6000,2.757
18.6400,2.768
18.6800,2.936
18.7200,2.820
18.7600,2.884
18.8000,2.869
18.8400,2.750
18.8800,2.878
18.9200,2.713
18.9600,2.966
19.0000,2.741
19.0400,2.901
19.0800,2.858
19.1200,2.880
19.1600,2.750
19.2000,2.854
19.2400,2.883
19.2800,2.788
19.3200,2.839
19.3600,2.847
19.4000,2.784
19.4400,2.947
19.4800,2.795
19.5200,2.864
19.5600,2.773
19.6000,2.732
19.6400,2.752
19.6800,2.742
19.7200,2.891
19.7600,2.862
19.8000,2.770
19.8400,2.696
19.8800,2.798
19.9200,2.694
19.9600,2.846
20.0000,2.694
20.0400,2.675
20.0800,2.711
20.1200,2.678
20.1600,2.657
20.2000,2.663
20.2400,2.809
20.2800,2.792
20.3200,2.713
20.3600,2.834
20.4000,2.709
20.4400,2.844
20.4800,2.730
20.5200,2.670
20.5600,2.787
20.6000,2.787
20.6400,2.766
20.6800,2.604
20.7200,2.729
20.7600,2.820
20.8000,2.774
20.8400,2.733
20.8800,2.655
20.9200,2.610
20.9600,2.716
21.0000,2.643
21.0400,2.729
21.0800,2.686
21.1200,2.571
21.1600,2.685
21.2000,2.694
21.2400,2.692
21.2800,2.714
21.3200,2.642
21.3600,2.605
21.4000,2.524
21.4400,2.665
21.4800,2.644
21.5200,2.640
21.5600,2.733
21.6000,2.640
21.6400,2.692
21.6800,2.675
21.7200,2.566
21.7600,2.576
21.8000,2.632
21.8400,2.571
21.8800,2.663
21.9200,2.613
21.9600,2.435
22.0000,2.655
22.0400,2.558
22.0800,2.710
22.1200,2.601
22.1600,2.614
22.2000,2.663
22.2400,2.611
22.2800,2.676
22.3200,2.673
22.3600,2.492
22.4000,2.426
22.4400,2.588
22.4800,2.633
22.5200,2.697
22.5600,2.569
22.6000,2.451
22.6400,2.499
22.6800,2.663
22.7200,2.525
22.7600,2.664
22.8000,2.551
22.8400,2.627
22.8800,2.584
22.9200,2.596
22.9600,2.504
23.0000,2.440
23.0400,2.485
23.0800,2.401
23.1200,2.576
23.1600,2.674
23.2000,2.498
23.2400,2.560
23.2800,2.594
23.3200,2.539
23.3600,2.635
23.4000,2.398
23.4400,2.473
23.4800,2.624
23.5200,2.571
23.5600,2.444
23.6000,2.488
23.6400,2.594
23.6800,2.470
23.7200,2.509
23.7600,2.464
23.8000,2.592
23.8400,2.564
23.8800,2.454
23.9200,2.534
23.9600,2.534
24.0000,2.435
24.0400,2.531
24.0800,2.632
24.1200,2.428
24.1600,2.436
24.2000,2.541
24.2400,2.441
24.2800,2.482
24.3200,2.554
24.3600,2.501
24.4000,2.396
24.4400,2.441
24.4800,2.575
24.5200,2.456
24.5600,2.548
24.6000,2.464
24.6400,2.490
24.6800,2.355
24.7200,2.434
24.7600,2.559
24.8000,2.434
24.8400,2.301
24.8800,2.455
24.9200,2.480
24.9600,2.304
25.0000,2.518
25.0400,2.353
25.0800,2.352
25.1200,2.369
25.1600,2.450
25.2000,2.416
25.2400,2.399
25.2800,2.239
25.3200,2.411
25.3600,2.324
25.4000,2.389
25.4400,2.448
25.4800,2.348
25.5200,2.436
25.5600,2.227
25.6000,2.517
25.6400,2.396
25.6800,2.363
25.7200,2.343
25.7600,2.280
25.8000,2.343
25.8400,2.425
25.8800,2.457
25.9200,2.450
25.9600,2.416
26.0000,2.398
26.0400,2.381
26.0800,2.383
26.1200,2.328
26.1600,2.411
26.2000,2.318
26.2400,2.279
26.2800,2.242
26.3200,2.416
26.3600,2.383
26.4000,2.286
26.4400,2.264
26.4800,2.334
26.5200,2.325
26.5600,2.339
26.6000,2.414
26.6400,2.327
26.6800,2.320
26.7200,2.317
26.7600,2.258
26.8000,2.371
26.8400,2.421
26.8800,2.302
26.9200,2.243
26.9600,2.271
27.0000,2.240
27.0400,2.284
27.0800,2.410
27.1200,2.234
27.1600,2.349
27.2000,2.228
27.2400,2.404
27.2800,2.176
27.3200,2.162
27.3600,2.248
27.4000,2.260
27.4400,2.316
27.4800,2.205
27.5200,2.249
27.5600,2.335
27.6000,2.349
27.6400,2.155
27.6800,2.201
27.7200,2.090
27.7600,2.213
27.8000,2.152
27.8400,2.059
27.8800,2.269
27.9200,2.163
27.9600,2.197
28.0000,2.246
28.0400,2.132
28.0800,2.091
28.1200,2.218
28.1600,2.184
28.2000,2.125
28.2400,2.169
28.2800,2.185
28.3200,2.164
28.3600,2.116
28.4000,2.086
28.4400,2.048
28.4800,2.102
28.5200,2.047
28.5600,2.049
28.6000,2.120
28.6400,2.040
28.6800,2.077
28.7200,2.073
28.7600,2.167
28.8000,1.959
28.8400,2.097
28.8800,2.089
28.9200,2.040
28.9600,2.060
29.0000,2.102
29.0400,1.998
29.0800,2.064
29.1200,2.027
29.1600,2.078
29.2000,2.026
29.2400,1.948
29.2800,2.049
29.3200,2.028
29.3600,1.893
29.4000,1.938
29.4400,1.977
29.4800,1.887
29.5200,1.899
29.5600,2.033
29.6000,1.928
29.6400,2.035
29.6800,1.923
29.7200,2.115
29.7600,2.087
29.8000,2.015
29.8400,1.954
29.8800,1.994
29.9200,1.954
29.9600,1.966
30.0000,1.984
30.0400,1.798
30.0800,1.978
30.1200,2.092
30.1600,1.802
30.2000,1.780
30.2400,1.966
30.2800,1.984
30.3200,2.004
30.3600,1.955
30.4000,1.832
30.4400,1.867
30.4800,1.756
30.5200,1.986
30.5600,1.976
30.6000,2.023
30.6400,1.920
30.6800,1.869
30.7200,1.894
30.7600,1.820
30.8000,1.873
30.8400,1.839
30.8800,1.882
30.9200,1.967
30.9600,1.889
31.0000,1.836
31.0400,1.808
31.0800,1.966
31.1200,1.879
31.1600,1.931
31.2000,1.655
31.2400,1.689
31.2800,1.809
31.3200,1.929
31.3600,1.998
31.4000,1.779
31.4400,1.811
31.4800,1.767
31.5200,1.685
31.5600,1.657
31.6000,1.786
31.6400,1.888
31.6800,1.880
31.7200,1.843
31.7600,1.856
31.8000,1.850
31.8400,1.703
31.8800,1.712
31.9200,1.747
31.9600,1.749
32.0000,1.597
32.0400,1.776
32.0800,1.779
32.1200,1.744
32.1600,1.764
32.2000,1.679
32.2400,1.715
32.2800,1.728
32.3200,1.773
32.3600,1.836
32.4000,1.667
32.4400,1.785
32.4800,1.739
32.5200,1.701
32.5600,1.822
32.6000,1.771
32.6400,1.688
32.6800,1.723
32.7200,1.766
32.7600,1.767
32.8000,1.770
32.8400,1.792
32.8800,1.677
32.9200,1.640
32.9600,1.766
33.0000,1.598
33.0400,1.940
33.0800,2.266
33.1200,1.948
33.1600,1.641
33.2000,1.668
33.2400,1.778
33.2800,1.809
33.3200,1.756
33.3600,1.685
33.4000,1.662
33.4400,1.767
33.4800,1.789
33.5200,1.639
33.5600,1.563
33.6000,1.632
33.6400,1.660
33.6800,1.687
33.7200,1.583
33.7600,1.583
33.8000,1.605
33.8400,1.569
33.8800,1.589
33.9200,1.717
33.9600,1.714
34.0000,1.748
34.0400,1.626
34.0800,1.511
34.1200,1.647
34.1600,1.616
34.2000,1.525
34.2400,1.628
34.2800,1.723
34.3200,1.607
34.3600,1.569
34.4000,1.488
34.4400,1.707
34.4800,1.606
34.5200,1.556
34.5600,1.566
34.6000,1.552
34.6400,1.606
34.6800,1.599
34.7200,1.603
34.7600,1.506
34.8000,1.650
34.8400,1.627
34.8800,1.508
34.9200,1.470
34.9600,1.493
35.0000,1.424
35.0400,1.623
35.0800,1.466
35.1200,1.512
35.1600,1.555
35.2000,1.437
35.2400,1.577
35.2800,1.507
35.3200,1.583
35.3600,1.466
35.4000,1.482
35.4400,1.524
35.4800,1.580
35.5200,1.487
35.5600,1.527
35.6000,1.484
35.6400,1.553
35.6800,1.474
35.7200,1.361
35.7600,1.420
35.8000,1.533
35.8400,1.461
35.8800,1.564
35.9200,1.485
35.9600,1.534
36.0000,1.564
36.0400,1.479
36.0800,1.583
36.1200,1.454
36.1600,1.509
36.2000,1.454
36.2400,1.444
36.2800,1.547
36.3200,1.448
36.3600,1.585
36.4000,1.447
36.4400,1.386
36.4800,1.410
36.5200,1.384
36.5600,1.428
36.6000,1.466
36.6400,1.453
36.6800,1.475
36.7200,1.475
36.7600,1.376
36.8000,1.386
36.8400,1.292
36.8800,1.422
36.9200,1.407
36.9600,1.409
37.0000,1.441
37.0400,1.358
37.0800,1.388
37.1200,1.432
37.1600,1.339
37.2000,1.381
37.2400,1.315
37.2800,1.302
37.3200,1.404
37.3600,1.366
37.4000,1.439
37.4400,1.327
37.4800,1.266
37.5200,1.391
37.5600,1.406
37.6000,1.294
37.6400,1.291
37.6800,1.342
37.7200,1.369
37.7600,1.256
37.8000,1.413
37.8400,1.375
37.8800,1.382
37.9200,1.288
37.9600,1.262
38.0000,1.338
38.0400,1.386
38.0800,1.305
38.1200,1.310
38.1600,1.382
38.2000,1.281
38.2400,1.432
38.2800,1.243
38.3200,1.347
38.3600,1.226
38.4000,1.326
38.4400,1.347
38.4800,1.193
38.5200,1.177
38.5600,1.296
38.6000,1.340
38.6400,1.317
38.6800,1.357
38.7200,1.303
38.7600,1.224
38.8000,1.275
38.8400,1.330
38.8800,1.291
38.9200,1.280
38.9600,1.239
39.0000,1.217
39.0400,1.300
39.0800,1.203
39.1200,1.277
39.1600,1.220
39.2000,1.241
39.2400,1.183
39.2800,1.283
39.3200,1.249
39.3600,1.214
39.4000,1.216
39.4400,1.168
39.4800,1.228
39.5200,1.203
39.5600,1.263
39.6000,1.360
39.6400,1.267
39.6800,1.213
39.7200,1.262
39.7600,1.221
39.8000,1.313
39.8400,1.141
39.8800,1.243
39.9200,1.345
39.9600,1.186
40.0000,1.203
40.0400,1.273
40.0800,1.193
40.1200,1.218
40.1600,1.135
40.2000,1.244
40.2400,1.205
40.2800,1.255
40.3200,1.133
40.3600,1.342
40.4000,1.140
40.4400,1.293
40.4800,1.221
40.5200,1.277
40.5600,1.227
40.6000,1.338
40.6400,1.296
40.6800,1.290
40.7200,1.199
40.7600,1.249
40.8000,1.083
40.8400,1.178
40.8800,1.099
40.9200,1.089
40.9600,1.146
41.0000,1.106
41.0400,1.064
41.0800,1.120
41.1200,1.127
41.1600,1.231
41.2000,1.082
41.2400,1.147
41.2800,1.230
41.3200,1.101
41.3600,1.129
41.4000,1.195
41.4400,1.158
41.4800,1.052
41.5200,1.120
41.5600,1.086
41.6000,1.146
41.6400,1.062
41.6800,1.089
41.7200,1.112
41.7600,1.113
41.8000,1.107
41.8400,1.178
41.8800,1.100
41.9200,1.065
41.9600,1.095
42.0000,1.082
42.0400,1.196
42.0800,1.173
42.1200,1.047
42.1600,1.057
42.2000,1.190
42.2400,1.088
42.2800,1.058
42.3200,1.048
42.3600,1.094
42.4000,1.022
42.4400,0.982
42.4800,1.120
42.5200,1.165
42.5600,1.054
42.6000,1.040
42.6400,1.013
42.6800,1.016
42.7200,1.077
42.7600,1.026
42.8000,1.028
42.8400,1.001
42.8800,1.047
42.9200,1.139
42.9600,1.061
43.0000,0.994
43.0400,1.078
43.0800,1.005
43.1200,1.047
43.1600,1.029
43.2000,1.002
43.2400,1.060
43.2800,1.101
43.3200,1.114
43.3600,1.068
43.4000,1.082
43.4400,0.971
43.4800,1.030
43.5200,1.052
43.5600,1.127
43.6000,0.974
43.6400,1.047
43.6800,1.008
43.7200,1.016
43.7600,1.020
43.8000,0.996
43.8400,0.995
43.8800,0.983
43.9200,1.002
43.9600,1.044
44.0000,1.017
44.0400,1.039
44.0800,1.013
44.1200,1.042
44.1600,1.058
44.2000,1.143
44.2400,1.013
44.2800,1.034
44.3200,1.032
44.3600,1.089
44.4000,0.992
44.4400,1.009
44.4800,1.015
44.5200,1.044
44.5600,0.958
44.6000,0.986
44.6400,0.982
44.6800,1.014
44.7200,0.920
44.7600,0.975
44.8000,0.939
44.8400,1.007
44.8800,0.956
44.9200,0.941
44.9600,0.953
45.0000,0.957
45.0400,0.966
45.0800,0.949
45.1200,0.939
45.1600,0.991
45.2000,1.011
45.2400,1.045
45.2800,1.002
45.3200,1.028
45.3600,0.995
45.4000,0.958
45.4400,0.941
45.4800,0.910
45.5200,0.887
45.5600,0.891
45.6000,0.939
45.6400,0.980
45.6800,0.909
45.7200,0.991
45.7600,0.968
45.8000,0.937
45.8400,0.956
45.8800,0.900
45.9200,0.947
45.9600,0.945
46.0000,0.937
46.0400,0.981
46.0800,0.876
46.1200,0.962
46.1600,0.985
46.2000,0.889
46.2400,0.898
46.2800,0.964
46.3200,0.932
46.3600,0.875
46.4000,0.885
46.4400,0.976
46.4800,0.888
46.5200,0.869
46.5600,0.865
46.6000,0.873
46.6400,0.870
46.6800,0.941
46.7200,0.914
46.7600,0.946
46.8000,0.916
46.8400,0.900
46.8800,0.917
46.9200,0.833
46.9600,0.933
47.0000,0.903
47.0400,0.882
47.0800,0.956
47.1200,0.900
47.1600,0.876
47.2000,0.886
47.2400,0.932
47.2800,0.906
47.3200,0.898
47.3600,0.917
47.4000,0.857
47.4400,0.898
47.4800,0.837
47.5200,0.922
47.5600,0.930
47.6000,0.857
47.6400,0.886
47.6800,0.801
47.7200,0.914
47.7600,0.967
47.8000,0.910
47.8400,0.843
47.8800,0.838
47.9200,0.858
47.9600,0.909
48.0000,0.882
48.0400,0.910
48.0800,0.921
48.1200,0.871
48.1600,0.937
48.2000,0.835
48.2400,0.898
48.2800,0.860
48.3200,0.862
48.3600,0.863
48.4000,0.891
48.4400,0.888
48.4800,0.881
48.5200,0.882
48.5600,0.835
48.6000,0.839
48.6400,0.859
48.6800,0.869
48.7200,0.928
48.7600,0.823
48.8000,0.931
48.8400,0.826
48.8800,0.887
48.9200,0.938
48.9600,0.873
49.0000,0.823
49.0400,0.838
49.0800,0.901
49.1200,0.817
49.1600,0.898
49.2000,0.839
49.2400,0.780
49.2800,0.806
49.3200,0.820
49.3600,0.825
49.4000,0.865
49.4400,0.862
49.4800,0.820
49.5200,0.841
49.5600,0.809
49.6000,0.851
49.6400,0.819
49.6800,0.826
49.7200,0.881
49.7600,0.838
49.8000,0.791
49.8400,0.822
49.8800,0.823
49.9200,0.842
49.9600,0.843
50.0000,0.800
50.0400,0.783
50.0800,0.868
50.1200,0.813
50.1600,0.820
50.2000,0.824
50.2400,0.707
50.2800,0.824
50.3200,0.904
50.3600,0.788
50.4000,0.826
50.4400,0.835
50.4800,0.809
50.5200,0.784
50.5600,0.862
50.6000,0.686
50.6400,0.817
50.6800,0.801
50.7200,0.844
50.7600,0.810
50.8000,0.751
50.8400,0.809
50.8800,0.766
50.9200,0.697
50.9600,0.888
51.0000,0.804
51.0400,0.743
51.0800,0.797
51.1200,0.801
51.1600,0.855
51.2000,0.683
51.2400,0.843
51.2800,0.843
51.3200,0.820
51.3600,0.765
51.4000,0.729
51.4400,0.764
51.4800,0.732
51.5200,0.792
51.5600,0.782
51.6000,0.744
51.6400,0.777
51.6800,0.835
51.7200,0.832
51.7600,0.701
51.8000,0.760
51.8400,0.728
51.8800,0.729
51.9200,0.769
51.9600,0.875
52.0000,0.741
52.0400,0.758
52.0800,0.783
52.1200,0.814
52.1600,0.751
52.2000,0.735
52.2400,0.705
52.2800,0.759
52.3200,0.798
52.3600,0.779
52.4000,0.734
52.4400,0.761
52.4800,0.682
52.5200,0.862
52.5600,0.790
52.6000,0.721
52.6400,0.770
52.6800,0.683
52.7200,0.719
52.7600,0.720
52.8000,0.756
52.8400,0.775
52.8800,0.733
52.9200,0.749
52.9600,0.726
53.0000,0.746
53.0400,0.701
53.0800,0.703
53.1200,0.757
53.1600,0.715
53.2000,0.788
53.2400,0.704
53.2800,0.738
53.3200,0.765
53.3600,0.738
53.4000,0.718
53.4400,0.689
53.4800,0.728
53.5200,0.733
53.5600,0.717
53.6000,0.805
53.6400,0.721
53.6800,0.755
53.7200,0.712
53.7600,0.784
53.8000,0.737
53.8400,0.744
53.8800,0.748
53.9200,0.704
53.9600,0.736
54.0000,0.683
54.0400,0.721
54.0800,0.729
54.1200,0.691
54.1600,0.748
54.2000,0.639
54.2400,0.746
54.2800,0.722
54.3200,0.632
54.3600,0.772
54.4000,0.741
54.4400,0.715
54.4800,0.645
54.5200,0.679
54.5600,0.722
54.6000,0.654
54.6400,0.594
54.6800,0.708
54.7200,0.735
54.7600,0.721
54.8000,0.667
54.8400,0.770
54.8800,0.747
54.9200,0.750
54.9600,0.655
55.0000,0.744
55.0400,0.663
55.0800,0.621
55.1200,0.686
55.1600,0.668
55.2000,0.723
55.2400,0.623
55.2800,0.702
55.3200,0.591
55.3600,0.690
55.4000,0.670
55.4400,0.637
55.4800,0.695
55.5200,0.624
55.5600,0.706
55.6000,0.714
55.6400,0.627
55.6800,0.635
55.7200,0.725
55.7600,0.660
55.8000,0.628
55.8400,0.697
55.8800,0.662
55.9200,0.667
55.9600,0.715
56.0000,0.654
56.0400,0.641
56.0800,0.717
56.1200,0.712
56.1600,0.686
56.2000,0.583
56.2400,0.640
56.2800,0.667
56.3200,0.591
56.3600,0.636
56.4000,0.659
56.4400,0.669
56.4800,0.725
56.5200,0.667
56.5600,0.668
56.6000,0.657
56.6400,0.766
56.6800,0.639
56.7200,0.666
56.7600,0.670
56.8000,0.669
56.8400,0.725
56.8800,0.632
56.9200,0.637
56.9600,0.638
57.0000,0.692
57.0400,0.643
57.0800,0.683
57.1200,0.612
57.1600,0.727
57.2000,0.668
57.2400,0.571
57.2800,0.624
57.3200,0.675
57.3600,0.658
57.4000,0.645
57.4400,0.602
57.4800,0.684
57.5200,0.604
57.5600,0.653
57.6000,0.613
57.6400,0.620
57.6800,0.644
57.7200,0.615
57.7600,0.626
57.8000,0.610
57.8400,0.593
57.8800,0.794
57.9200,0.616
57.9600,0.565
58.0000,0.560
58.0400,0.646
58.0800,0.665
58.1200,0.663
58.1600,0.662
58.2000,0.670
58.2400,0.621
58.2800,0.610
58.3200,0.646
58.3600,0.570
58.4000,0.635
58.4400,0.618
58.4800,0.610
58.5200,0.639
58.5600,0.706
58.6000,0.639
58.6400,0.687
58.6800,0.649
58.7200,0.619
58.7600,0.632
58.8000,0.671
58.8400,0.686
58.8800,0.682
58.9200,0.646
58.9600,0.568
59.0000,0.602
59.0400,0.668
59.0800,0.643
59.1200,0.606
59.1600,0.660
59.2000,0.564
59.2400,0.635
59.2800,0.671
59.3200,0.566
59.3600,0.673
59.4000,0.641
59.4400,0.592
59.4800,0.503
59.5200,0.616
59.5600,0.526
59.6000,0.566
59.6400,0.606
59.6800,0.641
59.7200,0.649
59.7600,0.548
59.8000,0.611
59.8400,0.605
59.8800,0.651
59.9200,0.619
59.9600,0.582
60.0000,0.617
60.0400,0.618
60.0800,0.598
60.1200,0.616
60.1600,0.615
60.2000,0.563
60.2400,0.594
60.2800,0.590
60.3200,0.656
60.3600,0.617
60.4000,0.629
60.4400,0.588
60.4800,0.563
60.5200,0.643
60.5600,0.530
60.6000,0.552
60.6400,0.558
60.6800,0.623
60.7200,0.624
60.7600,0.589
60.8000,0.628
60.8400,0.578
60.8800,0.612
60.9200,0.538
60.9600,0.591
61.0000,0.603
61.0400,0.547
61.0800,0.574
61.1200,0.584
61.1600,0.623
61.2000,0.593
61.2400,0.617
61.2800,0.568
61.3200,0.564
61.3600,0.590
61.4000,0.463
61.4400,0.560
61.4800,0.599
61.5200,0.609
61.5600,0.541
61.6000,0.594
61.6400,0.626
61.6800,0.659
61.7200,0.623
61.7600,0.631
61.8000,0.556
61.8400,0.574
61.8800,0.558
61.9200,0.522
61.9600,0.540
62.0000,0.604
62.0400,0.592
62.0800,0.551
62.1200,0.524
62.1600,0.561
62.2000,0.528
62.2400,0.557
62.2800,0.531
62.3200,0.560
62.3600,0.546
62.4000,0.567
62.4400,0.538
62.4800,0.554
62.5200,0.559
62.5600,0.540
62.6000,0.522
62.6400,0.569
62.6800,0.514
62.7200,0.592
62.7600,0.615
62.8000,0.581
62.8400,0.507
62.8800,0.500
62.9200,0.563
62.9600,0.553
63.0000,0.517
63.0400,0.512
63.0800,0.589
63.1200,0.577
63.1600,0.526
63.2000,0.564
63.2400,0.602
63.2800,0.550
63.3200,0.521
63.3600,0.577
63.4000,0.581
63.4400,0.487
63.4800,0.565
63.5200,0.583
63.5600,0.564
63.6000,0.571
63.6400,0.592
63.6800,0.537
63.7200,0.592
63.7600,0.573
63.8000,0.574
63.8400,0.551
63.8800,0.547
63.9200,0.655
63.9600,0.555
64.0000,0.600
64.0400,0.598
64.0800,0.504
64.1200,0.540
64.1600,0.564
64.2000,0.568
64.2400,0.544
64.2800,0.621
64.3200,0.641
64.3600,0.625
64.4000,0.585
64.4400,0.577
64.4800,0.545
64.5200,0.537
64.5600,0.582
64.6000,0.559
64.6400,0.640
64.6800,0.689
64.7200,0.610
64.7600,0.610
64.8000,0.595
64.8400,0.674
64.8800,0.636
64.9200,0.651
64.9600,0.625
65.0000,0.624
65.0400,0.671
65.0800,0.679
65.1200,0.565
65.1600,0.636
65.2000,0.642
65.2400,0.684
65.2800,0.640
65.3200,0.591
65.3600,0.724
65.4000,0.631
65.4400,0.676
65.4800,0.753
65.5200,0.652
65.5600,0.681
65.6000,0.604
65.6400,0.642
65.6800,0.717
65.7200,0.718
65.7600,0.790
65.8000,0.722
65.8400,0.699
65.8800,0.829
65.9200,0.753
65.9600,0.730
66.0000,0.742
66.0400,0.828
66.0800,0.758
66.1200,0.825
66.1600,0.769
66.2000,0.799
66.2400,0.811
66.2800,0.858
66.3200,0.782
66.3600,0.821
66.4000,0.878
66.4400,0.918
66.4800,0.893
66.5200,0.894
66.5600,0.887
66.6000,0.954
66.6400,0.857
66.6800,1.008
66.7200,1.012
66.7600,0.921
66.8000,1.017
66.8400,1.014
66.8800,1.044
66.9200,1.092
66.9600,1.097
67.0000,1.057
67.0400,1.125
67.0800,0.996
67.1200,1.078
67.1600,1.151
67.2000,1.127
67.2400,1.167
67.2800,1.156
67.3200,1.222
67.3600,1.272
67.4000,1.373
67.4400,1.270
67.4800,1.324
67.5200,1.428
67.5600,1.340
67.6000,1.414
67.6400,1.476
67.6800,1.367
67.7200,1.471
67.7600,1.566
67.8000,1.572
67.8400,1.694
67.8800,1.804
67.9200,1.756
67.9600,1.652
68.0000,1.857
68.0400,1.933
68.0800,1.911
68.1200,1.922
68.1600,1.933
68.2000,2.086
68.2400,2.146
68.2800,2.212
68.3200,2.289
68.3600,2.451
68.4000,2.519
68.4400,2.681
68.4800,2.571
68.5200,2.907
68.5600,3.116
68.6000,3.172
68.6400,3.471
68.6800,4.368
68.7200,5.333
68.7600,6.992
68.8000,8.367
68.8400,8.606
68.8800,8.967
68.9200,9.986
68.9600,12.759
69.0000,19.977
69.0400,40.321
69.0800,170.371
69.1200,547.580
69.1600,532.303
69.2000,163.393
69.2400,55.368
69.2800,113.037
69.3200,285.669
69.3600,259.301
69.4000,80.165
69.4400,23.649
69.4800,13.275
69.5200,9.646
69.5600,7.567
69.6000,6.276
69.6400,5.540
69.6800,4.849
69.7200,4.328
69.7600,3.968
69.8000,3.682
69.8400,3.367
69.8800,3.161
69.9200,3.062
69.9600,2.764
70.0000,2.756
70.0400,2.606
70.0800,2.423
70.1200,2.391
70.1600,2.419
70.2000,2.296
70.2400,2.136
70.2800,2.127
70.3200,2.032
70.3600,2.039
70.4000,2.030
70.4400,1.937
70.4800,1.715
70.5200,1.768
70.5600,1.655
70.6000,1.613
70.6400,1.681
70.6800,1.518
70.7200,1.568
70.7600,1.515
70.8000,1.477
70.8400,1.406
70.8800,1.425
70.9200,1.312
70.9600,1.183
71.0000,1.212
71.0400,1.231
71.0800,1.255
71.1200,1.237
71.1600,1.115
71.2000,1.163
71.2400,1.066
71.2800,1.060
71.3200,1.087
71.3600,1.002
71.4000,0.942
71.4400,0.938
71.4800,0.977
71.5200,0.962
71.5600,0.928
71.6000,0.900
71.6400,0.921
71.6800,0.881
71.7200,0.785
71.7600,0.812
71.8000,0.781
71.8400,0.801
71.8800,0.814
71.9200,0.792
71.9600,0.791
72.0000,0.723
72.0400,0.697
72.0800,0.734
72.1200,0.683
72.1600,0.667
72.2000,0.721
72.2400,0.661
72.2800,0.690
72.3200,0.669
72.3600,0.699
72.4000,0.726
72.4400,0.637
72.4800,0.612
72.5200,0.549
72.5600,0.641
72.6000,0.592
72.6400,0.600
72.6800,0.632
72.7200,0.615
72.7600,0.538
72.8000,0.545
72.8400,0.574
72.8800,0.646
72.9200,0.551
72.9600,0.481
73.0000,0.520
73.0400,0.578
73.0800,0.606
73.1200,0.529
73.1600,0.528
73.2000,0.515
73.2400,0.567
73.2800,0.507
73.3200,0.542
73.3600,0.510
73.4000,0.529
73.4400,0.500
73.4800,0.519
73.5200,0.507
73.5600,0.482
73.6000,0.454
73.6400,0.470
73.6800,0.527
73.7200,0.461
73.7600,0.486
73.8000,0.518
73.8400,0.457
73.8800,0.505
73.9200,0.502
73.9600,0.438
74.0000,0.402
74.0400,0.423
74.0800,0.472
74.1200,0.440
74.1600,0.413
74.2000,0.452
74.2400,0.434
74.2800,0.435
74.3200,0.480
74.3600,0.461
74.4000,0.420
74.4400,0.390
74.4800,0.394
74.5200,0.390
74.5600,0.379
74.6000,0.487
74.6400,0.393
74.6800,0.400
74.7200,0.394
74.7600,0.418
74.8000,0.395
74.8400,0.372
74.8800,0.386
74.9200,0.390
74.9600,0.390
75.0000,0.366
75.0400,0.354
75.0800,0.404
75.1200,0.373
75.1600,0.393
75.2000,0.403
75.2400,0.387
75.2800,0.383
75.3200,0.405
75.3600,0.372
75.4000,0.404
75.4400,0.345
75.4800,0.338
75.5200,0.390
75.5600,0.362
75.6000,0.312
75.6400,0.353
75.6800,0.354
75.7200,0.360
75.7600,0.345
75.8000,0.333
75.8400,0.354
75.8800,0.379
75.9200,0.403
75.9600,0.343
76.0000,0.356
76.0400,0.359
76.0800,0.448
76.1200,0.360
76.1600,0.293
76.2000,0.389
76.2400,0.355
76.2800,0.309
76.3200,0.322
76.3600,0.330
76.4000,0.330
76.4400,0.356
76.4800,0.315
76.5200,0.365
76.5600,0.349
76.6000,0.314
76.6400,0.336
76.6800,0.332
76.7200,0.325
76.7600,0.354
76.8000,0.279
76.8400,0.361
76.8800,0.358
76.9200,0.359
76.9600,0.413
77.0000,0.293
77.0400,0.284
77.0800,0.336
77.1200,0.405
77.1600,0.342
77.2000,0.364
77.2400,0.355
77.2800,0.309
77.3200,0.348
77.3600,0.358
77.4000,0.353
77.4400,0.291
77.4800,0.340
77.5200,0.318
77.5600,0.297
77.6000,0.317
77.6400,0.370
77.6800,0.332
77.7200,0.322
77.7600,0.286
77.8000,0.334
77.8400,0.337
77.8800,0.346
77.9200,0.335
77.9600,0.341
78.0000,0.284
78.0400,0.330
78.0800,0.354
78.1200,0.336
78.1600,0.333
78.2000,0.321
78.2400,0.360
78.2800,0.327
78.3200,0.371
78.3600,0.324
78.4000,0.318
78.4400,0.320
78.4800,0.327
78.5200,0.347
78.5600,0.334
78.6000,0.283
78.6400,0.331
78.6800,0.283
78.7200,0.301
78.7600,0.350
78.8000,0.284
78.8400,0.311
78.8800,0.326
78.9200,0.307
78.9600,0.320
79.0000,0.304
79.0400,0.276
79.0800,0.297
79.1200,0.300
79.1600,0.331
79.2000,0.264
79.2400,0.273
79.2800,0.288
79.3200,0.308
79.3600,0.265
79.4000,0.271
79.4400,0.297
79.4800,0.302
79.5200,0.297
79.5600,0.284
79.6000,0.284
79.6400,0.304
79.6800,0.309
79.7200,0.292
79.7600,0.320
79.8000,0.273
79.8400,0.300
79.8800,0.298
79.9200,0.345
79.9600,0.251
80.0000,0.308
80.0400,0.329
80.0800,0.296
80.1200,0.340
80.1600,0.244
80.2000,0.313
80.2400,0.338
80.2800,0.277
80.3200,0.335
80.3600,0.328
80.4000,0.308
80.4400,0.307
80.4800,0.280
80.5200,0.300
80.5600,0.282
80.6000,0.283
80.6400,0.268
80.6800,0.280
80.7200,0.275
80.7600,0.261
80.8000,0.310
80.8400,0.267
80.8800,0.311
80.9200,0.320
80.9600,0.279
81.0000,0.282
81.0400,0.243
81.0800,0.250
81.1200,0.270
81.1600,0.293
81.2000,0.295
81.2400,0.284
81.2800,0.273
81.3200,0.294
81.3600,0.298
81.4000,0.273
81.4400,0.296
81.4800,0.250
81.5200,0.299
81.5600,0.269
81.6000,0.274
81.6400,0.241
81.6800,0.276
81.7200,0.266
81.7600,0.295
81.8000,0.286
81.8400,0.280
81.8800,0.293
81.9200,0.296
81.9600,0.277
82.0000,0.274
82.0400,0.269
82.0800,0.290
82.1200,0.342
82.1600,0.244
82.2000,0.282
82.2400,0.230
82.2800,0.291
82.3200,0.294
82.3600,0.260
82.4000,0.289
82.4400,0.315
82.4800,0.248
82.5200,0.273
82.5600,0.273
82.6000,0.302
82.6400,0.289
82.6800,0.208
82.7200,0.280
82.7600,0.261
82.8000,0.255
82.8400,0.275
82.8800,0.286
82.9200,0.302
82.9600,0.289
83.0000,0.273
83.0400,0.260
83.0800,0.272
83.1200,0.303
83.1600,0.274
83.2000,0.307
83.2400,0.290
83.2800,0.268
83.3200,0.300
83.3600,0.279
83.4000,0.232
83.4400,0.280
83.4800,0.269
83.5200,0.274
83.5600,0.294
83.6000,0.322
83.6400,0.241
83.6800,0.251
83.7200,0.221
83.7600,0.232
83.8000,0.246
83.8400,0.278
83.8800,0.260
83.9200,0.253
83.9600,0.233
84.0000,0.249
84.0400,0.293
84.0800,0.309
84.1200,0.240
84.1600,0.280
84.2000,0.286
84.2400,0.245
84.2800,0.239
84.3200,0.318
84.3600,0.259
84.4000,0.231
84.4400,0.263
84.4800,0.259
84.5200,0.303
84.5600,0.289
84.6000,0.238
84.6400,0.265
84.6800,0.246
84.7200,0.293
84.7600,0.245
84.8000,0.235
84.8400,0.231
84.8800,0.269
84.9200,0.211
84.9600,0.231
85.0000,0.201
85.0400,0.227
85.0800,0.222
85.1200,0.256
85.1600,0.289
85.2000,0.262
85.2400,0.250
85.2800,0.280
85.3200,0.273
85.3600,0.270
85.4000,0.270
85.4400,0.250
85.4800,0.276
85.5200,0.262
85.5600,0.249
85.6000,0.251
85.6400,0.241
85.6800,0.241
85.7200,0.233
85.7600,0.239
85.8000,0.262
85.8400,0.234
85.8800,0.247
85.9200,0.242
85.9600,0.236
86.0000,0.294
86.0400,0.275
86.0800,0.238
86.1200,0.280
86.1600,0.272
86.2000,0.286
86.2400,0.293
86.2800,0.218
86.3200,0.274
86.3600,0.244
86.4000,0.226
86.4400,0.217
86.4800,0.224
86.5200,0.270
86.5600,0.242
86.6000,0.249
86.6400,0.248
86.6800,0.252
86.7200,0.273
86.7600,0.228
86.8000,0.243
86.8400,0.198
86.8800,0.221
86.9200,0.253
86.9600,0.269
87.0000,0.209
87.0400,0.287
87.0800,0.280
87.1200,0.254
87.1600,0.274
87.2000,0.227
87.2400,0.224
87.2800,0.257
87.3200,0.255
87.3600,0.271
87.4000,0.248
87.4400,0.266
87.4800,0.254
87.5200,0.236
87.5600,0.213
87.6000,0.214
87.6400,0.284
87.6800,0.221
87.7200,0.261
87.7600,0.263
87.8000,0.231
87.8400,0.245
87.8800,0.247
87.9200,0.279
87.9600,0.222
88.0000,0.266
88.0400,0.252
88.0800,0.219
88.1200,0.256
88.1600,0.266
88.2000,0.233
88.2400,0.223
88.2800,0.220
88.3200,0.226
88.3600,0.262
88.4000,0.237
88.4400,0.273
88.4800,0.218
88.5200,0.227
88.5600,0.284
88.6000,0.243
88.6400,0.245
88.6800,0.201
88.7200,0.219
88.7600,0.253
88.8000,0.292
88.8400,0.261
88.8800,0.234
88.9200,0.209
88.9600,0.231
89.0000,0.240
89.0400,0.243
89.0800,0.219
89.1200,0.263
89.1600,0.250
89.2000,0.260
89.2400,0.227
89.2800,0.238
89.3200,0.203
89.3600,0.256
89.4000,0.224
89.4400,0.257
89.4800,0.262
89.5200,0.232
89.5600,0.251
89.6000,0.235
89.6400,0.250
89.6800,0.236
89.7200,0.262
89.7600,0.244
89.8000,0.242
89.8400,0.234
89.8800,0.226
89.9200,0.239
89.9600,0.272
90.0000,0.231
