5.0400,8.061
5.0800,7.841
5.1200,7.745
5.1600,7.865
5.2000,7.815
5.2400,7.685
5.2800,7.584
5.3200,7.637
5.3600,7.590
5.4000,7.891
5.4400,7.608
5.4800,7.301
5.5200,7.092
5.5600,7.251
5.6000,7.139
5.6400,7.228
5.6800,6.892
5.7200,6.712
5.7600,6.699
5.8000,6.926
5.8400,6.670
5.8800,6.725
5.9200,6.358
5.9600,6.313
6.0000,6.226
6.0400,6.192
6.0800,6.093
6.1200,6.005
6.1600,5.809
6.2000,5.829
6.2400,5.910
6.2800,5.714
6.3200,5.706
6.3600,5.583
6.4000,5.642
6.4400,5.593
6.4800,5.517
6.5200,5.693
6.5600,5.296
6.6000,5.351
6.6400,5.351
6.6800,5.454
6.7200,5.360
6.7600,5.241
6.8000,5.135
6.8400,4.938
6.8800,5.260
6.9200,4.824
6.9600,4.978
7.0000,5.007
7.0400,5.063
7.0800,5.088
7.1200,4.900
7.1600,4.939
7.2000,4.720
7.2400,4.689
7.2800,4.812
7.3200,4.859
7.3600,4.821
7.4000,4.717
7.4400,4.595
7.4800,4.617
7.5200,4.548
7.5600,4.762
7.6000,4.541
7.6400,4.588
7.6800,4.566
7.7200,4.419
7.7600,4.696
7.8000,4.330
7.8400,4.377
7.8800,4.308
7.9200,4.455
7.9600,4.452
8.0000,4.364
8.0400,4.400
8.0800,4.396
8.1200,4.269
8.1600,4.276
8.2000,4.346
8.2400,4.247
8.2800,4.198
8.3200,4.250
8.3600,3.873
8.4000,4.230
8.4400,4.166
8.4800,4.096
8.5200,4.252
8.5600,4.050
8.6000,4.222
8.6400,3.995
8.6800,4.051
8.7200,4.052
8.7600,4.087
8.8000,4.187
8.8400,4.166
8.8800,3.965
8.9200,4.138
8.9600,4.072
9.0000,4.311
9.0400,4.142
9.0800,3.960
9.1200,3.919
9.1600,3.903
9.2000,4.086
9.2400,3.819
9.2800,4.025
9.3200,3.973
9.3600,3.897
9.4000,4.053
9.4400,3.869
9.4800,3.899
9.5200,3.899
9.5600,4.028
9.6000,3.870
9.6400,4.011
9.6800,3.926
9.7200,3.866
9.7600,4.036
9.8000,3.931
9.8400,3.787
9.8800,3.933
9.9200,3.775
9.9600,3.964
10.0000,3.813
10.0400,3.961
10.0800,3.826
10.1200,3.813
10.1600,3.964
10.2000,3.833
10.2400,3.880
10.2800,3.923
10.3200,3.830
10.3600,3.954
10.4000,3.926
10.4400,3.851
10.4800,3.643
10.5200,3.864
10.5600,3.787
10.6000,3.744
10.6400,3.574
10.6800,3.709
10.7200,3.721
10.7600,3.433
10.8000,3.835
10.8400,3.914
10.8800,3.694
10.9200,3.564
10.9600,3.667
11.0000,3.836
11.0400,3.737
11.0800,3.806
11.1200,3.632
11.1600,3.714
11.2000,3.677
11.2400,3.756
11.2800,3.690
11.3200,3.621
11.3600,3.670
11.4000,3.675
11.4400,3.736
11.4800,3.641
11.5200,3.679
11.5600,3.812
11.6000,3.865
11.6400,3.650
11.6800,3.746
11.7200,3.720
11.7600,3.793
11.8000,3.652
11.8400,3.570
11.8800,3.749
11.9200,3.591
11.9600,3.716
12.0000,3.731
12.0400,3.711
12.0800,3.507
12.1200,3.479
12.1600,3.578
12.2000,3.692
12.2400,3.673
12.2800,3.555
12.3200,3.693
12.3600,3.604
12.4000,3.687
12.4400,3.526
12.4800,3.594
12.5200,3.719
12.5600,3.639
12.6000,3.460
12.6400,3.668
12.6800,3.580
12.7200,3.598
12.7600,3.529
12.8000,3.641
12.8400,3.678
12.8800,3.489
12.9200,3.850
12.9600,3.710
13.0000,3.588
13.0400,3.546
13.0800,3.637
13.1200,3.592
13.1600,3.617
13.2000,3.618
13.2400,3.445
13.2800,3.564
13.3200,3.608
13.3600,3.615
13.4000,3.521
13.4400,3.555
13.4800,3.482
13.5200,3.582
13.5600,3.557
13.6000,3.584
13.6400,3.385
13.6800,3.547
13.7200,3.442
13.7600,3.583
13.8000,3.548
13.8400,3.503
13.8800,3.400
13.9200,3.449
13.9600,3.501
14.0000,3.477
14.0400,3.402
14.0800,3.560
14.1200,3.578
14.1600,3.382
14.2000,3.415
14.2400,3.511
14.2800,3.550
14.3200,3.432
14.3600,3.658
14.4000,3.537
14.4400,3.516
14.4800,3.424
14.5200,3.461
14.5600,3.431
14.6000,3.450
14.6400,3.341
14.6800,3.370
14.7200,3.465
14.7600,3.463
14.8000,3.396
14.8400,3.437
14.8800,3.488
14.9200,3.375
14.9600,3.382
15.0000,3.382
15.0400,3.292
15.0800,3.296
15.1200,3.389
15.1600,3.343
15.2000,3.349
15.2400,3.265
15.2800,3.400
15.3200,3.404
15.3600,3.296
15.4000,3.316
15.4400,3.292
15.4800,3.402
15.5200,3.513
15.5600,3.364
15.6000,3.420
15.6400,3.503
15.6800,3.355
15.7200,3.476
15.7600,3.323
15.8000,3.393
15.8400,3.323
15.8800,3.213
15.9200,3.271
15.9600,3.407
16.0000,3.307
16.0400,3.441
16.0800,3.244
16.1200,3.438
16.1600,3.300
16.2000,3.390
16.2400,3.260
16.2800,3.286
16.3200,3.340
16.3600,3.395
16.4000,3.080
16.4400,3.153
16.4800,3.389
16.5200,3.268
16.5600,3.317
16.6000,3.189
16.6400,3.201
16.6800,3.291
16.7200,3.255
16.7600,3.295
16.8000,3.316
16.8400,3.075
16.8800,3.316
16.9200,3.219
16.9600,3.145
17.0000,3.229
17.0400,3.179
17.0800,3.361
17.1200,3.140
17.1600,3.375
17.2000,3.174
17.2400,3.194
17.2800,3.277
17.3200,3.282
17.3600,3.326
17.4000,3.217
17.4400,3.375
17.4800,3.252
17.5200,3.095
17.5600,3.177
17.6000,3.178
17.6400,3.080
17.6800,3.135
17.7200,3.155
17.7600,3.182
17.8000,3.343
17.8400,3.161
17.8800,3.231
17.9200,3.275
17.9600,3.297
18.0000,3.364
18.0400,3.270
18.0800,3.257
18.1200,3.268
18.1600,3.230
18.2000,3.275
18.2400,3.123
18.2800,3.045
18.3200,3.214
18.3600,3.236
18.4000,3.134
18.4400,3.244
18.4800,3.158
18.5200,3.060
18.5600,3.050
18.6000,3.187
18.6400,2.979
18.6800,3.064
18.7200,3.058
18.7600,3.035
18.8000,3.125
18.8400,3.056
18.8800,3.001
18.9200,2.919
18.9600,3.172
19.0000,2.998
19.0400,2.950
19.0800,3.028
19.1200,2.983
19.1600,3.017
19.2000,2.956
19.2400,3.025
19.2800,2.927
19.3200,2.979
19.3600,2.882
19.4000,3.086
19.4400,3.013
19.4800,2.952
19.5200,3.186
19.5600,3.120
19.6000,3.021
19.6400,2.954
19.6800,2.966
19.7200,2.997
19.7600,3.024
19.8000,3.136
19.8400,3.073
19.8800,3.045
19.9200,3.083
19.9600,2.946
20.0000,2.939
20.0400,3.018
20.0800,2.865
20.1200,2.874
20.1600,2.975
20.2000,2.911
20.2400,2.946
20.2800,2.992
20.3200,2.881
20.3600,2.871
20.4000,2.862
20.4400,2.764
20.4800,2.847
20.5200,2.916
20.5600,2.933
20.6000,3.002
20.6400,2.885
20.6800,3.024
20.7200,2.910
20.7600,2.716
20.8000,2.836
20.8400,2.869
20.8800,2.842
20.9200,2.787
20.9600,2.872
21.0000,3.008
21.0400,2.872
21.0800,2.601
21.1200,2.658
21.1600,2.840
21.2000,2.862
21.2400,2.855
21.2800,2.936
21.3200,2.816
21.3600,2.945
21.4000,2.746
21.4400,2.671
21.4800,2.767
21.5200,2.822
21.5600,2.797
21.6000,2.751
21.6400,2.845
21.6800,2.804
21.7200,2.685
21.7600,2.791
21.8000,2.878
21.8400,2.803
21.8800,2.696
21.9200,2.751
21.9600,2.725
22.0000,2.718
22.0400,2.740
22.0800,2.746
22.1200,2.774
22.1600,2.832
22.2000,2.826
22.2400,2.727
22.2800,2.558
22.3200,2.688
22.3600,2.617
22.4000,2.842
22.4400,2.722
22.4800,2.724
22.5200,2.794
22.5600,2.641
22.6000,2.683
22.6400,2.789
22.6800,2.667
22.7200,2.556
22.7600,2.806
22.8000,2.713
22.8400,2.751
22.8800,2.556
22.9200,2.823
22.9600,2.655
23.0000,2.708
23.0400,2.665
23.0800,2.730
23.1200,2.630
23.1600,2.795
23.2000,2.613
23.2400,2.508
23.2800,2.729
23.3200,2.589
23.3600,2.503
23.4000,2.500
23.4400,2.591
23.4800,2.607
23.5200,2.569
23.5600,2.679
23.6000,2.706
23.6400,2.580
23.6800,2.521
23.7200,2.592
23.7600,2.503
23.8000,2.632
23.8400,2.482
23.8800,2.574
23.9200,2.569
23.9600,2.575
24.0000,2.620
24.0400,2.598
24.0800,2.604
24.1200,2.504
24.1600,2.563
24.2000,2.699
24.2400,2.584
24.2800,2.475
24.3200,2.503
24.3600,2.554
24.4000,2.478
24.4400,2.535
24.4800,2.489
24.5200,2.404
24.5600,2.530
24.6000,2.467
24.6400,2.494
24.6800,2.423
24.7200,2.648
24.7600,2.644
24.8000,2.615
24.8400,2.582
24.8800,2.497
24.9200,2.496
24.9600,2.517
25.0000,2.482
25.0400,2.577
25.0800,2.461
25.1200,2.634
25.1600,2.561
25.2000,2.499
25.2400,2.316
25.2800,2.472
25.3200,2.433
25.3600,2.522
25.4000,2.446
25.4400,2.483
25.4800,2.453
25.5200,2.419
25.5600,2.444
25.6000,2.404
25.6400,2.366
25.6800,2.439
25.7200,2.508
25.7600,2.342
25.8000,2.431
25.8400,2.557
25.8800,2.419
25.9200,2.392
25.9600,2.440
26.0000,2.435
26.0400,2.466
26.0800,2.462
26.1200,2.485
26.1600,2.238
26.2000,2.464
26.2400,2.340
26.2800,2.300
26.3200,2.313
26.3600,2.291
26.4000,2.415
26.4400,2.304
26.4800,2.329
26.5200,2.452
26.5600,2.424
26.6000,2.409
26.6400,2.451
26.6800,2.338
26.7200,2.411
26.7600,2.321
26.8000,2.383
26.8400,2.435
26.8800,2.424
26.9200,2.334
26.9600,2.329
27.0000,2.274
27.0400,2.298
27.0800,2.338
27.1200,2.358
27.1600,2.259
27.2000,2.377
27.2400,2.230
27.2800,2.410
27.3200,2.463
27.3600,2.472
27.4000,2.190
27.4400,2.149
27.4800,2.221
27.5200,2.214
27.5600,2.286
27.6000,2.314
27.6400,2.357
27.6800,2.315
27.7200,2.240
27.7600,2.284
27.8000,2.204
27.8400,2.210
27.8800,2.240
27.9200,2.366
27.9600,2.187
28.0000,2.293
28.0400,2.310
28.0800,2.236
28.1200,2.278
28.1600,2.237
28.2000,2.267
28.2400,2.229
28.2800,2.307
28.3200,2.336
28.3600,2.255
28.4000,2.217
28.4400,2.151
28.4800,2.255
28.5200,2.193
28.5600,2.279
28.6000,2.141
28.6400,2.190
28.6800,2.237
28.7200,2.412
28.7600,2.277
28.8000,2.237
28.8400,2.157
28.8800,2.235
28.9200,2.198
28.9600,2.316
29.0000,2.148
29.0400,2.253
29.0800,2.248
29.1200,2.146
29.1600,2.114
29.2000,2.225
29.2400,2.174
29.2800,2.259
29.3200,2.156
29.3600,2.082
29.4000,2.203
29.4400,2.216
29.4800,2.129
29.5200,2.117
29.5600,2.302
29.6000,2.314
29.6400,2.051
29.6800,2.155
29.7200,2.144
29.7600,2.058
29.8000,2.115
29.8400,2.110
29.8800,2.122
29.9200,2.094
29.9600,2.064
30.0000,2.084
30.0400,2.063
30.0800,2.121
30.1200,2.179
30.1600,2.070
30.2000,2.089
30.2400,2.110
30.2800,2.090
30.3200,2.051
30.3600,2.046
30.4000,2.191
30.4400,2.104
30.4800,2.171
30.5200,2.082
30.5600,2.017
30.6000,2.104
30.6400,2.110
30.6800,2.047
30.7200,2.106
30.7600,1.986
30.8000,2.014
30.8400,2.089
30.8800,2.006
30.9200,1.925
30.9600,1.953
31.0000,1.928
31.0400,1.954
31.0800,2.031
31.1200,2.081
31.1600,2.034
31.2000,2.031
31.2400,2.033
31.2800,1.959
31.3200,2.112
31.3600,2.083
31.4000,1.992
31.4400,2.103
31.4800,2.090
31.5200,2.005
31.5600,2.035
31.6000,2.042
31.6400,2.016
31.6800,1.966
31.7200,2.072
31.7600,2.021
31.8000,1.980
31.8400,2.026
31.8800,1.916
31.9200,1.898
31.9600,1.906
32.0000,2.000
32.0400,1.988
32.0800,2.096
32.1200,1.994
32.1600,1.954
32.2000,1.972
32.2400,1.945
32.2800,1.949
32.3200,1.997
32.3600,2.041
32.4000,2.077
32.4400,2.087
32.4800,2.009
32.5200,1.868
32.5600,1.985
32.6000,1.959
32.6400,1.924
32.6800,1.907
32.7200,1.929
32.7600,1.987
32.8000,2.015
32.8400,1.976
32.8800,1.972
32.9200,1.890
32.9600,1.894
33.0000,1.874
33.0400,1.990
33.0800,1.959
33.1200,1.824
33.1600,1.945
33.2000,1.880
33.2400,1.875
33.2800,1.845
33.3200,1.816
33.3600,1.961
33.4000,1.834
33.4400,1.819
33.4800,1.942
33.5200,1.838
33.5600,1.770
33.6000,1.973
33.6400,1.898
33.6800,1.821
33.7200,1.877
33.7600,1.857
33.8000,1.851
33.8400,1.841
33.8800,1.762
33.9200,1.841
33.9600,1.825
34.0000,1.764
34.0400,1.901
34.0800,1.672
34.1200,1.806
34.1600,1.832
34.2000,1.774
34.2400,1.833
34.2800,1.819
34.3200,1.774
34.3600,1.692
34.4000,1.734
34.4400,1.701
34.4800,1.805
34.5200,1.768
34.5600,1.727
34.6000,1.867
34.6400,1.852
34.6800,1.951
34.7200,1.711
34.7600,1.861
34.8000,1.784
34.8400,1.743
34.8800,1.721
34.9200,1.932
34.9600,1.844
35.0000,1.936
35.0400,1.786
35.0800,1.835
35.1200,1.755
35.1600,1.786
35.2000,1.776
35.2400,1.829
35.2800,1.903
35.3200,1.770
35.3600,1.769
35.4000,1.853
35.4400,1.782
35.4800,1.866
35.5200,1.783
35.5600,1.831
35.6000,1.911
35.6400,1.801
35.6800,1.866
35.7200,1.758
35.7600,1.947
35.8000,1.821
35.8400,1.770
35.8800,1.816
35.9200,1.905
35.9600,1.813
36.0000,1.872
36.0400,1.796
36.0800,1.983
36.1200,1.831
36.1600,2.019
36.2000,1.884
36.2400,2.000
36.2800,1.874
36.3200,1.851
36.3600,1.991
36.4000,1.819
36.4400,1.825
36.4800,2.012
36.5200,1.938
36.5600,1.898
36.6000,1.889
36.6400,1.870
36.6800,1.799
36.7200,1.881
36.7600,1.837
36.8000,1.916
36.8400,1.809
36.8800,1.867
36.9200,1.901
36.9600,1.893
37.0000,1.835
37.0400,1.888
37.0800,1.908
37.1200,2.072
37.1600,1.985
37.2000,2.007
37.2400,1.985
37.2800,2.040
37.3200,2.068
37.3600,2.100
37.4000,2.150
37.4400,2.141
37.4800,2.454
37.5200,2.232
37.5600,2.304
37.6000,2.490
37.6400,2.570
37.6800,2.685
37.7200,2.884
37.7600,3.108
37.8000,3.376
37.8400,3.811
37.8800,4.143
37.9200,4.703
37.9600,5.592
38.0000,6.706
38.0400,8.355
38.0800,11.059
38.1200,14.577
38.1600,18.558
38.2000,22.022
38.2400,23.861
38.2800,23.089
38.3200,20.511
38.3600,17.543
38.4000,13.753
38.4400,10.615
38.4800,8.244
38.5200,6.564
38.5600,5.621
38.6000,4.887
38.6400,4.208
38.6800,3.663
38.7200,3.239
38.7600,2.989
38.8000,2.801
38.8400,2.672
38.8800,2.710
38.9200,2.508
38.9600,2.472
39.0000,2.316
39.0400,2.221
39.0800,2.191
39.1200,1.935
39.1600,2.043
39.2000,1.967
39.2400,1.955
39.2800,1.869
39.3200,1.877
39.3600,1.791
39.4000,1.860
39.4400,1.737
39.4800,1.660
39.5200,1.703
39.5600,1.721
39.6000,1.699
39.6400,1.712
39.6800,1.731
39.7200,1.695
39.7600,1.734
39.8000,1.738
39.8400,1.661
39.8800,1.709
39.9200,1.701
39.9600,1.522
40.0000,1.613
40.0400,1.571
40.0800,1.610
40.1200,1.586
40.1600,1.531
40.2000,1.560
40.2400,1.625
40.2800,1.490
40.3200,1.615
40.3600,1.478
40.4000,1.582
40.4400,1.563
40.4800,1.583
40.5200,1.510
40.5600,1.627
40.6000,1.722
40.6400,1.554
40.6800,1.452
40.7200,1.534
40.7600,1.444
40.8000,1.511
40.8400,1.566
40.8800,1.494
40.9200,1.586
40.9600,1.435
41.0000,1.476
41.0400,1.452
41.0800,1.532
41.1200,1.436
41.1600,1.496
41.2000,1.469
41.2400,1.524
41.2800,1.506
41.3200,1.537
41.3600,1.424
41.4000,1.539
41.4400,1.492
41.4800,1.435
41.5200,1.434
41.5600,1.465
41.6000,1.541
41.6400,1.466
41.6800,1.378
41.7200,1.452
41.7600,1.427
41.8000,1.507
41.8400,1.468
41.8800,1.344
41.9200,1.406
41.9600,1.429
42.0000,1.454
42.0400,1.469
42.0800,1.509
42.1200,1.334
42.1600,1.518
42.2000,1.373
42.2400,1.432
42.2800,1.474
42.3200,1.528
42.3600,1.401
42.4000,1.444
42.4400,1.358
42.4800,1.484
42.5200,1.523
42.5600,1.321
42.6000,1.473
42.6400,1.457
42.6800,1.476
42.7200,1.493
42.7600,1.532
42.8000,1.465
42.8400,1.407
42.8800,1.433
42.9200,1.407
42.9600,1.522
43.0000,1.519
43.0400,1.431
43.0800,1.474
43.1200,1.444
43.1600,1.424
43.2000,1.522
43.2400,1.547
43.2800,1.477
43.3200,1.502
43.3600,1.616
43.4000,1.475
43.4400,1.640
43.4800,1.626
43.5200,1.656
43.5600,1.656
43.6000,1.614
43.6400,1.619
43.6800,1.676
43.7200,1.767
43.7600,1.856
43.8000,1.939
43.8400,1.908
43.8800,1.943
43.9200,2.010
43.9600,2.088
44.0000,2.498
44.0400,2.583
44.0800,2.688
44.1200,2.938
44.1600,3.279
44.2000,3.475
44.2400,4.021
44.2800,4.642
44.3200,5.074
44.3600,5.450
44.4000,6.176
44.4400,6.254
44.4800,6.301
44.5200,5.985
44.5600,5.576
44.6000,5.205
44.6400,4.783
44.6800,4.104
44.7200,3.679
44.7600,3.211
44.8000,2.826
44.8400,2.718
44.8800,2.528
44.9200,2.158
44.9600,2.101
45.0000,1.976
45.0400,1.878
45.0800,1.828
45.1200,1.676
45.1600,1.783
45.2000,1.582
45.2400,1.494
45.2800,1.593
45.3200,1.580
45.3600,1.411
45.4000,1.347
45.4400,1.432
45.4800,1.468
45.5200,1.422
45.5600,1.438
45.6000,1.280
45.6400,1.380
45.6800,1.380
45.7200,1.311
45.7600,1.184
45.8000,1.299
45.8400,1.265
45.8800,1.225
45.9200,1.303
45.9600,1.286
46.0000,1.204
46.0400,1.212
46.0800,1.175
46.1200,1.174
46.1600,1.279
46.2000,1.164
46.2400,1.168
46.2800,1.196
46.3200,1.109
46.3600,1.242
46.4000,1.138
46.4400,1.138
46.4800,1.260
46.5200,1.231
46.5600,1.232
46.6000,1.135
46.6400,1.138
46.6800,1.218
46.7200,1.110
46.7600,1.095
46.8000,1.151
46.8400,1.133
46.8800,1.104
46.9200,1.199
46.9600,1.120
47.0000,1.112
47.0400,1.132
47.0800,1.081
47.1200,1.062
47.1600,1.126
47.2000,1.203
47.2400,1.128
47.2800,1.142
47.3200,1.191
47.3600,1.077
47.4000,1.131
47.4400,1.113
47.4800,1.148
47.5200,1.109
47.5600,1.134
47.6000,1.015
47.6400,1.043
47.6800,1.090
47.7200,1.093
47.7600,1.179
47.8000,1.104
47.8400,1.095
47.8800,1.090
47.9200,1.156
47.9600,1.019
48.0000,1.091
48.0400,1.104
48.0800,1.102
48.1200,1.082
48.1600,1.050
48.2000,1.082
48.2400,1.040
48.2800,1.086
48.3200,1.017
48.3600,1.075
48.4000,1.058
48.4400,1.110
48.4800,1.034
48.5200,1.076
48.5600,0.984
48.6000,0.997
48.6400,1.120
48.6800,1.035
48.7200,1.066
48.7600,1.086
48.8000,1.014
48.8400,1.045
48.8800,1.071
48.9200,1.089
48.9600,0.904
49.0000,1.047
49.0400,1.050
49.0800,1.055
49.1200,1.045
49.1600,1.029
49.2000,1.049
49.2400,1.062
49.2800,1.034
49.3200,0.992
49.3600,1.080
49.4000,1.016
49.4400,0.967
49.4800,1.019
49.5200,1.029
49.5600,1.008
49.6000,0.993
49.6400,0.979
49.6800,1.023
49.7200,1.039
49.7600,1.049
49.8000,1.098
49.8400,1.053
49.8800,0.949
49.9200,1.080
49.9600,1.135
50.0000,1.051
50.0400,0.995
50.0800,1.019
50.1200,1.014
50.1600,1.020
50.2000,1.017
50.2400,0.944
50.2800,0.937
50.3200,1.010
50.3600,0.973
50.4000,0.953
50.4400,0.960
50.4800,1.044
50.5200,0.965
50.5600,1.037
50.6000,1.010
50.6400,0.939
50.6800,1.025
50.7200,0.934
50.7600,1.007
50.8000,0.957
50.8400,0.980
50.8800,0.983
50.9200,0.938
50.9600,0.954
51.0000,0.999
51.0400,0.926
51.0800,0.947
51.1200,0.931
51.1600,0.852
51.2000,0.911
51.2400,0.920
51.2800,0.948
51.3200,0.929
51.3600,1.069
51.4000,0.981
51.4400,0.971
51.4800,0.932
51.5200,1.002
51.5600,0.893
51.6000,0.947
51.6400,0.991
51.6800,0.941
51.7200,1.032
51.7600,0.949
51.8000,0.983
51.8400,0.943
51.8800,0.971
51.9200,0.960
51.9600,0.950
52.0000,0.907
52.0400,0.859
52.0800,0.944
52.1200,0.907
52.1600,0.877
52.2000,0.891
52.2400,0.913
52.2800,0.917
52.3200,0.999
52.3600,0.928
52.4000,0.963
52.4400,0.979
52.4800,0.829
52.5200,1.009
52.5600,0.942
52.6000,0.816
52.6400,0.880
52.6800,0.863
52.7200,0.911
52.7600,0.967
52.8000,0.996
52.8400,0.933
52.8800,0.906
52.9200,0.832
52.9600,0.845
53.0000,0.893
53.0400,0.894
53.0800,0.926
53.1200,0.829
53.1600,0.921
53.2000,0.854
53.2400,0.890
53.2800,0.877
53.3200,0.948
53.3600,0.873
53.4000,0.865
53.4400,0.890
53.4800,0.967
53.5200,0.832
53.5600,0.921
53.6000,0.874
53.6400,0.832
53.6800,0.883
53.7200,0.896
53.7600,0.921
53.8000,0.911
53.8400,0.818
53.8800,0.910
53.9200,0.869
53.9600,0.854
54.0000,0.878
54.0400,0.877
54.0800,0.819
54.1200,0.909
54.1600,0.826
54.2000,0.856
54.2400,0.853
54.2800,0.907
54.3200,0.834
54.3600,0.871
54.4000,0.871
54.4400,0.851
54.4800,0.846
54.5200,0.907
54.5600,0.807
54.6000,0.846
54.6400,0.853
54.6800,0.827
54.7200,0.841
54.7600,0.875
54.8000,0.839
54.8400,0.846
54.8800,0.789
54.9200,0.810
54.9600,0.854
55.0000,0.820
55.0400,0.863
55.0800,0.891
55.1200,0.823
55.1600,0.843
55.2000,0.802
55.2400,0.838
55.2800,0.758
55.3200,0.845
55.3600,0.723
55.4000,0.819
55.4400,0.878
55.4800,0.881
55.5200,0.896
55.5600,0.889
55.6000,0.881
55.6400,0.836
55.6800,0.820
55.7200,0.919
55.7600,0.818
55.8000,0.828
55.8400,0.879
55.8800,0.749
55.9200,0.843
55.9600,0.770
56.0000,0.871
56.0400,0.867
56.0800,0.767
56.1200,0.888
56.1600,0.836
56.2000,0.844
56.2400,0.864
56.2800,0.823
56.3200,0.870
56.3600,0.884
56.4000,0.926
56.4400,0.913
56.4800,0.802
56.5200,0.756
56.5600,0.862
56.6000,0.808
56.6400,0.775
56.6800,0.866
56.7200,0.862
56.7600,0.844
56.8000,0.851
56.8400,0.802
56.8800,0.769
56.9200,0.883
56.9600,0.820
57.0000,0.820
57.0400,0.847
57.0800,0.831
57.1200,0.847
57.1600,0.786
57.2000,0.809
57.2400,0.829
57.2800,0.790
57.3200,0.841
57.3600,0.762
57.4000,0.852
57.4400,0.806
57.4800,0.781
57.5200,0.825
57.5600,0.793
57.6000,0.855
57.6400,0.818
57.6800,0.869
57.7200,0.828
57.7600,0.818
57.8000,0.811
57.8400,0.800
57.8800,0.882
57.9200,0.735
57.9600,0.859
58.0000,0.839
58.0400,0.902
58.0800,0.817
58.1200,0.869
58.1600,0.777
58.2000,0.880
58.2400,0.805
58.2800,0.791
58.3200,0.789
58.3600,0.698
58.4000,0.724
58.4400,0.770
58.4800,0.686
58.5200,0.841
58.5600,0.830
58.6000,0.898
58.6400,0.867
58.6800,0.785
58.7200,0.774
58.7600,0.938
58.8000,0.820
58.8400,0.786
58.8800,0.874
58.9200,0.833
58.9600,0.851
59.0000,0.826
59.0400,0.813
59.0800,0.771
59.1200,0.803
59.1600,0.804
59.2000,0.769
59.2400,0.793
59.2800,0.773
59.3200,0.820
59.3600,0.770
59.4000,0.858
59.4400,0.858
59.4800,0.785
59.5200,0.775
59.5600,0.833
59.6000,0.761
59.6400,0.763
59.6800,0.861
59.7200,0.785
59.7600,0.818
59.8000,0.850
59.8400,0.833
59.8800,0.828
59.9200,0.812
59.9600,0.814
60.0000,0.755
60.0400,0.775
60.0800,0.861
60.1200,0.873
60.1600,0.824
60.2000,0.822
60.2400,0.822
60.2800,0.809
60.3200,0.908
60.3600,0.854
60.4000,0.738
60.4400,0.758
60.4800,0.758
60.5200,0.754
60.5600,0.773
60.6000,0.746
60.6400,0.753
60.6800,0.739
60.7200,0.813
60.7600,0.677
60.8000,0.692
60.8400,0.727
60.8800,0.755
60.9200,0.758
60.9600,0.747
61.0000,0.723
61.0400,0.698
61.0800,0.748
61.1200,0.742
61.1600,0.653
61.2000,0.793
61.2400,0.745
61.2800,0.685
61.3200,0.670
61.3600,0.718
61.4000,0.724
61.4400,0.799
61.4800,0.708
61.5200,0.692
61.5600,0.772
61.6000,0.696
61.6400,0.821
61.6800,0.888
61.7200,0.785
61.7600,0.765
61.8000,0.705
61.8400,0.714
61.8800,0.833
61.9200,0.725
61.9600,0.705
62.0000,0.758
62.0400,0.762
62.0800,0.754
62.1200,0.794
62.1600,0.790
62.2000,0.774
62.2400,0.743
62.2800,0.727
62.3200,0.782
62.3600,0.749
62.4000,0.678
62.4400,0.692
62.4800,0.678
62.5200,0.851
62.5600,0.744
62.6000,0.713
62.6400,0.780
62.6800,0.820
62.7200,0.743
62.7600,0.783
62.8000,0.740
62.8400,0.803
62.8800,0.736
62.9200,0.760
62.9600,0.776
63.0000,0.796
63.0400,0.827
63.0800,0.724
63.1200,0.756
63.1600,0.831
63.2000,0.778
63.2400,0.768
63.2800,0.710
63.3200,0.745
63.3600,0.840
63.4000,0.879
63.4400,0.843
63.4800,0.810
63.5200,0.803
63.5600,0.900
63.6000,0.937
63.6400,0.892
63.6800,0.832
63.7200,0.830
63.7600,0.889
63.8000,0.815
63.8400,0.833
63.8800,0.905
63.9200,0.914
63.9600,1.026
64.0000,0.904
64.0400,0.977
64.0800,1.022
64.1200,1.095
64.1600,1.148
64.2000,1.204
64.2400,1.259
64.2800,1.341
64.3200,1.413
64.3600,1.538
64.4000,1.698
64.4400,1.950
64.4800,2.138
64.5200,2.666
64.5600,2.837
64.6000,3.177
64.6400,3.503
64.6800,3.284
64.7200,3.532
64.7600,3.275
64.8000,3.015
64.8400,2.738
64.8800,2.663
64.9200,2.295
64.9600,1.963
65.0000,1.744
65.0400,1.523
65.0800,1.452
65.1200,1.372
65.1600,1.249
65.2000,1.084
65.2400,1.203
65.2800,1.043
65.3200,1.189
65.3600,1.100
65.4000,0.993
65.4400,1.067
65.4800,1.001
65.5200,0.861
65.5600,0.957
65.6000,0.993
65.6400,0.947
65.6800,0.945
65.7200,1.042
65.7600,0.920
65.8000,0.977
65.8400,0.943
65.8800,0.871
65.9200,0.925
65.9600,0.933
66.0000,0.985
66.0400,0.983
66.0800,0.930
66.1200,0.838
66.1600,0.903
66.2000,0.940
66.2400,0.907
66.2800,1.028
66.3200,0.979
66.3600,0.939
66.4000,0.984
66.4400,0.939
66.4800,0.969
66.5200,1.044
66.5600,1.056
66.6000,1.000
66.6400,0.967
66.6800,1.038
66.7200,0.956
66.7600,0.981
66.8000,1.055
66.8400,1.018
66.8800,1.070
66.9200,1.012
66.9600,1.081
67.0000,1.050
67.0400,1.116
67.0800,1.199
67.1200,1.149
67.1600,1.182
67.2000,1.074
67.2400,1.186
67.2800,1.154
67.3200,1.182
67.3600,1.276
67.4000,1.217
67.4400,1.307
67.4800,1.234
67.5200,1.277
67.5600,1.385
67.6000,1.310
67.6400,1.334
67.6800,1.319
67.7200,1.520
67.7600,1.436
67.8000,1.535
67.8400,1.420
67.8800,1.543
67.9200,1.618
67.9600,1.500
68.0000,1.636
68.0400,1.763
68.0800,1.577
68.1200,1.775
68.1600,1.754
68.2000,1.680
68.2400,1.823
68.2800,1.997
68.3200,1.955
68.3600,1.974
68.4000,2.113
68.4400,2.099
68.4800,2.224
68.5200,2.323
68.5600,2.303
68.6000,2.626
68.6400,2.800
68.6800,3.067
68.7200,3.749
68.7600,4.716
68.8000,5.744
68.8400,6.486
68.8800,6.586
68.9200,7.207
68.9600,8.457
69.0000,12.114
69.0400,21.720
69.0800,54.828
69.1200,246.540
69.1600,425.467
69.2000,237.759
69.2400,62.681
69.2800,50.018
69.3200,141.575
69.3600,216.942
69.4000,115.601
69.4400,30.643
69.4800,13.498
69.5200,8.763
69.5600,6.713
69.6000,5.653
69.6400,4.894
69.6800,4.045
69.7200,3.709
69.7600,3.342
69.8000,3.093
69.8400,2.709
69.8800,2.852
69.9200,2.607
69.9600,2.506
70.0000,2.464
70.0400,2.213
70.0800,2.183
70.1200,2.129
70.1600,2.101
70.2000,1.990
70.2400,1.962
70.2800,1.780
70.3200,1.793
70.3600,1.654
70.4000,1.647
70.4400,1.623
70.4800,1.762
70.5200,1.505
70.5600,1.506
70.6000,1.532
70.6400,1.514
70.6800,1.428
70.7200,1.497
70.7600,1.332
70.8000,1.342
70.8400,1.281
70.8800,1.155
70.9200,1.289
70.9600,1.261
71.0000,1.195
71.0400,1.165
71.0800,1.197
71.1200,1.246
71.1600,1.110
71.2000,1.034
71.2400,1.056
71.2800,1.049
71.3200,1.027
71.3600,0.994
71.4000,0.986
71.4400,0.900
71.4800,0.922
71.5200,0.935
71.5600,0.897
71.6000,0.972
71.6400,0.879
71.6800,0.949
71.7200,0.959
71.7600,0.889
71.8000,0.807
71.8400,0.800
71.8800,0.823
71.9200,0.902
71.9600,0.928
72.0000,0.868
72.0400,0.820
72.0800,0.782
72.1200,0.766
72.1600,0.714
72.2000,0.764
72.2400,0.775
72.2800,0.804
72.3200,0.805
72.3600,0.769
72.4000,0.738
72.4400,0.853
72.4800,0.789
72.5200,0.773
72.5600,0.800
72.6000,0.625
72.6400,0.727
72.6800,0.692
72.7200,0.635
72.7600,0.708
72.8000,0.673
72.8400,0.703
72.8800,0.712
72.9200,0.743
72.9600,0.650
73.0000,0.721
73.0400,0.622
73.0800,0.655
73.1200,0.719
73.1600,0.663
73.2000,0.678
73.2400,0.640
73.2800,0.662
73.3200,0.696
73.3600,0.752
73.4000,0.645
73.4400,0.627
73.4800,0.702
73.5200,0.633
73.5600,0.586
73.6000,0.614
73.6400,0.630
73.6800,0.635
73.7200,0.653
73.7600,0.590
73.8000,0.635
73.8400,0.545
73.8800,0.673
73.9200,0.702
73.9600,0.580
74.0000,0.616
74.0400,0.602
74.0800,0.579
74.1200,0.587
74.1600,0.576
74.2000,0.629
74.2400,0.576
74.2800,0.596
74.3200,0.596
74.3600,0.555
74.4000,0.567
74.4400,0.595
74.4800,0.545
74.5200,0.601
74.5600,0.660
74.6000,0.625
74.6400,0.632
74.6800,0.549
74.7200,0.583
74.7600,0.619
74.8000,0.589
74.8400,0.498
74.8800,0.519
74.9200,0.548
74.9600,0.561
75.0000,0.580
75.0400,0.552
75.0800,0.565
75.1200,0.610
75.1600,0.577
75.2000,0.549
75.2400,0.517
75.2800,0.555
75.3200,0.564
75.3600,0.485
75.4000,0.562
75.4400,0.557
75.4800,0.536
75.5200,0.562
75.5600,0.517
75.6000,0.563
75.6400,0.516
75.6800,0.549
75.7200,0.602
75.7600,0.567
75.8000,0.579
75.8400,0.590
75.8800,0.494
75.9200,0.525
75.9600,0.462
76.0000,0.534
76.0400,0.545
76.0800,0.535
76.1200,0.581
76.1600,0.580
76.2000,0.573
76.2400,0.557
76.2800,0.595
76.3200,0.597
76.3600,0.568
76.4000,0.605
76.4400,0.593
76.4800,0.617
76.5200,0.636
76.5600,0.603
76.6000,0.579
76.6400,0.656
76.6800,0.638
76.7200,0.705
76.7600,0.637
76.8000,0.675
76.8400,0.662
76.8800,0.670
76.9200,0.651
76.9600,0.745
77.0000,0.782
77.0400,0.779
77.0800,0.814
77.1200,0.848
77.1600,0.819
77.2000,1.032
77.2400,1.066
77.2800,1.087
77.3200,1.143
77.3600,1.335
77.4000,1.409
77.4400,1.710
77.4800,1.888
77.5200,2.157
77.5600,2.344
77.6000,2.629
77.6400,2.736
77.6800,2.675
77.7200,2.550
77.7600,2.527
77.8000,2.506
77.8400,2.309
77.8800,2.167
77.9200,1.986
77.9600,1.786
78.0000,1.546
78.0400,1.396
78.0800,1.175
78.1200,1.041
78.1600,1.005
78.2000,0.924
78.2400,0.911
78.2800,0.895
78.3200,0.782
78.3600,0.771
78.4000,0.712
78.4400,0.759
78.4800,0.678
78.5200,0.590
78.5600,0.634
78.6000,0.599
78.6400,0.600
78.6800,0.577
78.7200,0.534
78.7600,0.597
78.8000,0.622
78.8400,0.544
78.8800,0.620
78.9200,0.547
78.9600,0.522
79.0000,0.599
79.0400,0.595
79.0800,0.551
79.1200,0.508
79.1600,0.597
79.2000,0.545
79.2400,0.465
79.2800,0.419
79.3200,0.474
79.3600,0.529
79.4000,0.505
79.4400,0.544
79.4800,0.517
79.5200,0.509
79.5600,0.550
79.6000,0.518
79.6400,0.519
79.6800,0.513
79.7200,0.505
79.7600,0.542
79.8000,0.520
79.8400,0.487
79.8800,0.482
79.9200,0.503
79.9600,0.531
80.0000,0.540
80.0400,0.476
80.0800,0.511
80.1200,0.458
80.1600,0.463
80.2000,0.507
80.2400,0.501
80.2800,0.441
80.3200,0.508
80.3600,0.476
80.4000,0.528
80.4400,0.468
80.4800,0.502
80.5200,0.495
80.5600,0.456
80.6000,0.498
80.6400,0.465
80.6800,0.496
80.7200,0.491
80.7600,0.515
80.8000,0.460
80.8400,0.581
80.8800,0.512
80.9200,0.503
80.9600,0.579
81.0000,0.497
81.0400,0.508
81.0800,0.519
81.1200,0.466
81.1600,0.575
81.2000,0.538
81.2400,0.507
81.2800,0.471
81.3200,0.575
81.3600,0.569
81.4000,0.644
81.4400,0.607
81.4800,0.673
81.5200,0.754
81.5600,0.894
81.6000,0.933
81.6400,0.990
81.6800,1.008
81.7200,1.086
81.7600,1.218
81.8000,1.052
81.8400,1.289
81.8800,1.146
81.9200,0.986
81.9600,0.981
82.0000,0.992
82.0400,0.951
82.0800,0.913
82.1200,0.841
82.1600,0.801
82.2000,0.708
82.2400,0.663
82.2800,0.626
82.3200,0.617
82.3600,0.512
82.4000,0.485
82.4400,0.536
82.4800,0.535
82.5200,0.498
82.5600,0.454
82.6000,0.512
82.6400,0.466
82.6800,0.462
82.7200,0.449
82.7600,0.460
82.8000,0.423
82.8400,0.445
82.8800,0.506
82.9200,0.427
82.9600,0.408
83.0000,0.443
83.0400,0.475
83.0800,0.446
83.1200,0.450
83.1600,0.410
83.2000,0.425
83.2400,0.456
83.2800,0.458
83.3200,0.430
83.3600,0.414
83.4000,0.433
83.4400,0.488
83.4800,0.395
83.5200,0.406
83.5600,0.409
83.6000,0.455
83.6400,0.501
83.6800,0.434
83.7200,0.442
83.7600,0.444
83.8000,0.449
83.8400,0.479
83.8800,0.458
83.9200,0.509
83.9600,0.410
84.0000,0.410
84.0400,0.364
84.0800,0.439
84.1200,0.497
84.1600,0.404
84.2000,0.382
84.2400,0.448
84.2800,0.443
84.3200,0.408
84.3600,0.366
84.4000,0.424
84.4400,0.399
84.4800,0.445
84.5200,0.450
84.5600,0.423
84.6000,0.413
84.6400,0.466
84.6800,0.425
84.7200,0.434
84.7600,0.423
84.8000,0.405
84.8400,0.439
84.8800,0.374
84.9200,0.480
84.9600,0.408
85.0000,0.452
85.0400,0.385
85.0800,0.441
85.1200,0.445
85.1600,0.454
85.2000,0.406
85.2400,0.394
85.2800,0.446
85.3200,0.438
85.3600,0.363
85.4000,0.412
85.4400,0.429
85.4800,0.405
85.5200,0.407
85.5600,0.390
85.6000,0.389
85.6400,0.351
85.6800,0.413
85.7200,0.390
85.7600,0.403
85.8000,0.438
85.8400,0.478
85.8800,0.379
85.9200,0.431
85.9600,0.402
86.0000,0.430
86.0400,0.478
86.0800,0.399
86.1200,0.418
86.1600,0.416
86.2000,0.462
86.2400,0.407
86.2800,0.409
86.3200,0.377
86.3600,0.395
86.4000,0.399
86.4400,0.446
86.4800,0.488
86.5200,0.465
86.5600,0.412
86.6000,0.363
86.6400,0.398
86.6800,0.427
86.7200,0.407
86.7600,0.311
86.8000,0.379
86.8400,0.408
86.8800,0.414
86.9200,0.359
86.9600,0.415
87.0000,0.417
87.0400,0.399
87.0800,0.396
87.1200,0.417
87.1600,0.431
87.2000,0.379
87.2400,0.368
87.2800,0.402
87.3200,0.376
87.3600,0.340
87.4000,0.391
87.4400,0.356
87.4800,0.403
87.5200,0.367
87.5600,0.372
87.6000,0.369
87.6400,0.387
87.6800,0.405
87.7200,0.365
87.7600,0.362
87.8000,0.360
87.8400,0.376
87.8800,0.339
87.9200,0.392
87.9600,0.406
88.0000,0.410
88.0400,0.365
88.0800,0.412
88.1200,0.340
88.1600,0.416
88.2000,0.486
88.2400,0.456
88.2800,0.416
88.3200,0.423
88.3600,0.426
88.4000,0.398
88.4400,0.368
88.4800,0.378
88.5200,0.379
88.5600,0.417
88.6000,0.390
88.6400,0.399
88.6800,0.387
88.7200,0.349
88.7600,0.374
88.8000,0.398
88.8400,0.334
88.8800,0.382
88.9200,0.418
88.9600,0.393
89.0000,0.390
89.0400,0.357
89.0800,0.399
89.1200,0.377
89.1600,0.418
89.2000,0.346
89.2400,0.368
89.2800,0.361
89.3200,0.369
89.3600,0.329
89.4000,0.346
89.4400,0.407
89.4800,0.384
89.5200,0.396
89.5600,0.369
89.6000,0.424
89.6400,0.343
89.6800,0.349
89.7200,0.353
89.7600,0.322
89.8000,0.326
89.8400,0.381
89.8800,0.378
89.9200,0.373
89.9600,0.397
90.0000,0.398
