5.0400,8.882
5.0800,8.873
5.1200,8.844
5.1600,8.709
5.2000,8.978
5.2400,8.707
5.2800,8.641
5.3200,8.519
5.3600,8.679
5.4000,8.390
5.4400,8.450
5.4800,8.034
5.5200,8.114
5.5600,7.946
5.6000,7.969
5.6400,7.858
5.6800,7.535
5.7200,7.620
5.7600,7.407
5.8000,7.530
5.8400,7.263
5.8800,7.009
5.9200,6.943
5.9600,6.919
6.0000,6.519
6.0400,6.566
6.0800,6.459
6.1200,6.517
6.1600,6.387
6.2000,6.221
6.2400,6.403
6.2800,6.288
6.3200,6.299
6.3600,6.182
6.4000,5.956
6.4400,5.959
6.4800,5.602
6.5200,6.012
6.5600,5.751
6.6000,5.832
6.6400,5.617
6.6800,5.554
6.7200,5.821
6.7600,5.636
6.8000,5.382
6.8400,5.468
6.8800,5.313
6.9200,5.201
6.9600,5.258
7.0000,5.079
7.0400,5.029
7.0800,5.215
7.1200,5.309
7.1600,5.024
7.2000,5.051
7.2400,5.041
7.2800,5.007
7.3200,4.955
7.3600,4.902
7.4000,5.139
7.4400,4.818
7.4800,4.970
7.5200,4.831
7.5600,4.762
7.6000,4.551
7.6400,4.682
7.6800,4.665
7.7200,4.502
7.7600,4.552
7.8000,4.599
7.8400,4.564
7.8800,4.368
7.9200,4.553
7.9600,4.390
8.0000,4.388
8.0400,4.430
8.0800,4.347
8.1200,4.484
8.1600,4.391
8.2000,4.332
8.2400,4.220
8.2800,4.352
8.3200,4.414
8.3600,4.244
8.4000,4.240
8.4400,4.090
8.4800,4.052
8.5200,4.117
8.5600,4.121
8.6000,3.963
8.6400,4.338
8.6800,4.121
8.7200,4.100
8.7600,4.064
8.8000,4.009
8.8400,4.175
8.8800,4.294
8.9200,4.315
8.9600,4.226
9.0000,4.063
9.0400,3.999
9.0800,4.064
9.1200,4.129
9.1600,4.054
9.2000,3.840
9.2400,3.942
9.2800,3.914
9.3200,3.919
9.3600,3.879
9.4000,4.028
9.4400,3.936
9.4800,3.825
9.5200,3.915
9.5600,3.821
9.6000,3.927
9.6400,3.913
9.6800,3.918
9.7200,3.945
9.7600,3.836
9.8000,3.953
9.8400,3.766
9.8800,3.990
9.9200,3.923
9.9600,4.008
10.0000,3.848
10.0400,3.856
10.0800,3.913
10.1200,3.775
10.1600,3.805
10.2000,3.865
10.2400,3.784
10.2800,3.843
10.3200,3.733
10.3600,3.945
10.4000,3.812
10.4400,3.953
10.4800,3.669
10.5200,3.779
10.5600,3.732
10.6000,3.794
10.6400,3.727
10.6800,3.746
10.7200,3.859
10.7600,3.762
10.8000,3.758
10.8400,4.014
10.8800,3.701
10.9200,3.886
10.9600,3.698
11.0000,3.725
11.0400,3.678
11.0800,3.706
11.1200,3.745
11.1600,3.712
11.2000,3.784
11.2400,3.586
11.2800,3.784
11.3200,3.692
11.3600,3.625
11.4000,3.813
11.4400,3.798
11.4800,3.534
11.5200,3.575
11.5600,3.660
11.6000,3.704
11.6400,3.660
11.6800,3.581
11.7200,3.576
11.7600,3.574
11.8000,3.675
11.8400,3.736
11.8800,3.836
11.9200,3.716
11.9600,3.710
12.0000,3.529
12.0400,3.554
12.0800,3.650
12.1200,3.742
12.1600,3.624
12.2000,3.650
12.2400,3.626
12.2800,3.645
12.3200,3.624
12.3600,3.622
12.4000,3.511
12.4400,3.591
12.4800,3.687
12.5200,3.518
12.5600,3.697
12.6000,3.484
12.6400,3.559
12.6800,3.436
12.7200,3.375
12.7600,3.659
12.8000,3.621
12.8400,3.434
12.8800,3.492
12.9200,3.575
12.9600,3.527
13.0000,3.522
13.0400,3.567
13.0800,3.565
13.1200,3.640
13.1600,3.490
13.2000,3.542
13.2400,3.513
13.2800,3.478
13.3200,3.610
13.3600,3.415
13.4000,3.509
13.4400,3.376
13.4800,3.518
13.5200,3.565
13.5600,3.482
13.6000,3.375
13.6400,3.320
13.6800,3.692
13.7200,3.464
13.7600,3.501
13.8000,3.419
13.8400,3.429
13.8800,3.414
13.9200,3.484
13.9600,3.413
14.0000,3.543
14.0400,3.597
14.0800,3.538
14.1200,3.284
14.1600,3.356
14.2000,3.430
14.2400,3.432
14.2800,3.431
14.3200,3.356
14.3600,3.454
14.4000,3.292
14.4400,3.342
14.4800,3.353
14.5200,3.385
14.5600,3.379
14.6000,3.412
14.6400,3.215
14.6800,3.311
14.7200,3.458
14.7600,3.338
14.8000,3.456
14.8400,3.310
14.8800,3.384
14.9200,3.286
14.9600,3.409
15.0000,3.406
15.0400,3.224
15.0800,3.391
15.1200,3.317
15.1600,3.099
15.2000,3.429
15.2400,3.320
15.2800,3.156
15.3200,3.288
15.3600,3.298
15.4000,3.391
15.4400,3.216
15.4800,3.184
15.5200,3.359
15.5600,3.444
15.6000,3.268
15.6400,3.205
15.6800,3.188
15.7200,3.400
15.7600,3.345
15.8000,3.210
15.8400,3.175
15.8800,3.219
15.9200,3.175
15.9600,3.332
16.0000,3.205
16.0400,3.193
16.0800,3.353
16.1200,3.199
16.1600,3.193
16.2000,3.321
16.2400,3.428
16.2800,3.294
16.3200,3.233
16.3600,3.156
16.4000,3.163
16.4400,3.191
16.4800,3.376
16.5200,3.273
16.5600,3.197
16.6000,3.203
16.6400,3.285
16.6800,3.151
16.7200,3.213
16.7600,3.131
16.8000,3.168
16.8400,3.210
16.8800,3.294
16.9200,3.102
16.9600,3.175
17.0000,3.157
17.0400,3.188
17.0800,3.113
17.1200,2.937
17.1600,3.277
17.2000,3.090
17.2400,3.217
17.2800,3.118
17.3200,3.253
17.3600,3.207
17.4000,2.960
17.4400,3.131
17.4800,2.994
17.5200,3.230
17.5600,3.297
17.6000,3.097
17.6400,3.241
17.6800,3.069
17.7200,3.046
17.7600,3.009
17.8000,3.062
17.8400,3.129
17.8800,3.064
17.9200,3.120
17.9600,2.904
18.0000,2.961
18.0400,3.063
18.0800,3.087
18.1200,3.060
18.1600,3.115
18.2000,2.806
18.2400,3.230
18.2800,2.963
18.3200,3.039
18.3600,2.884
18.4000,3.065
18.4400,3.071
18.4800,3.126
18.5200,3.008
18.5600,3.094
18.6000,3.124
18.6400,2.957
18.6800,3.101
18.7200,3.142
18.7600,2.907
18.8000,3.057
18.8400,2.990
18.8800,2.908
18.9200,3.197
18.9600,3.011
19.0000,2.765
19.0400,2.981
19.0800,2.879
19.1200,3.009
19.1600,3.019
19.2000,2.951
19.2400,2.895
19.2800,2.964
19.3200,3.057
19.3600,2.919
19.4000,2.949
19.4400,2.751
19.4800,2.732
19.5200,2.928
19.5600,2.769
19.6000,2.935
19.6400,2.869
19.6800,2.771
19.7200,3.055
19.7600,2.927
19.8000,2.783
19.8400,3.138
19.8800,2.973
19.9200,2.852
19.9600,2.860
20.0000,2.890
20.0400,2.871
20.0800,2.879
20.1200,2.949
20.1600,2.912
20.2000,3.010
20.2400,2.813
20.2800,2.906
20.3200,2.946
20.3600,2.868
20.4000,2.895
20.4400,2.792
20.4800,2.921
20.5200,2.773
20.5600,2.714
20.6000,2.730
20.6400,2.726
20.6800,2.754
20.7200,2.776
20.7600,2.835
20.8000,2.895
20.8400,2.678
20.8800,2.853
20.9200,2.816
20.9600,2.821
21.0000,2.794
21.0400,2.714
21.0800,2.914
21.1200,2.821
21.1600,2.699
21.2000,2.649
21.2400,2.747
21.2800,2.605
21.3200,2.668
21.3600,2.694
21.4000,2.714
21.4400,2.731
21.4800,2.679
21.5200,2.791
21.5600,2.606
21.6000,2.849
21.6400,2.695
21.6800,2.726
21.7200,2.799
21.7600,2.692
21.8000,2.664
21.8400,2.796
21.8800,2.784
21.9200,2.766
21.9600,2.637
22.0000,2.747
22.0400,2.726
22.0800,2.852
22.1200,2.672
22.1600,2.588
22.2000,2.630
22.2400,2.620
22.2800,2.643
22.3200,2.622
22.3600,2.630
22.4000,2.576
22.4400,2.553
22.4800,2.635
22.5200,2.676
22.5600,2.630
22.6000,2.736
22.6400,2.664
22.6800,2.552
22.7200,2.696
22.7600,2.718
22.8000,2.846
22.8400,2.466
22.8800,2.464
22.9200,2.613
22.9600,2.629
23.0000,2.598
23.0400,2.574
23.0800,2.606
23.1200,2.575
23.1600,2.597
23.2000,2.551
23.2400,2.586
23.2800,2.639
23.3200,2.523
23.3600,2.587
23.4000,2.579
23.4400,2.642
23.4800,2.558
23.5200,2.558
23.5600,2.589
23.6000,2.539
23.6400,2.612
23.6800,2.549
23.7200,2.512
23.7600,2.386
23.8000,2.544
23.8400,2.512
23.8800,2.669
23.9200,2.613
23.9600,2.522
24.0000,2.574
24.0400,2.545
24.0800,2.533
24.1200,2.533
24.1600,2.473
24.2000,2.549
24.2400,2.499
24.2800,2.494
24.3200,2.476
24.3600,2.490
24.4000,2.398
24.4400,2.439
24.4800,2.346
24.5200,2.391
24.5600,2.401
24.6000,2.418
24.6400,2.478
24.6800,2.542
24.7200,2.438
24.7600,2.314
24.8000,2.340
24.8400,2.390
24.8800,2.447
24.9200,2.508
24.9600,2.426
25.0000,2.522
25.0400,2.491
25.0800,2.326
25.1200,2.435
25.1600,2.440
25.2000,2.319
25.2400,2.530
25.2800,2.382
25.3200,2.524
25.3600,2.399
25.4000,2.334
25.4400,2.451
25.4800,2.319
25.5200,2.369
25.5600,2.336
25.6000,2.609
25.6400,2.377
25.6800,2.339
25.7200,2.436
25.7600,2.421
25.8000,2.302
25.8400,2.287
25.8800,2.390
25.9200,2.340
25.9600,2.377
26.0000,2.457
26.0400,2.346
26.0800,2.105
26.1200,2.349
26.1600,2.216
26.2000,2.355
26.2400,2.216
26.2800,2.377
26.3200,2.313
26.3600,2.097
26.4000,2.314
26.4400,2.315
26.4800,2.243
26.5200,2.280
26.5600,2.321
26.6000,2.263
26.6400,2.384
26.6800,2.242
26.7200,2.346
26.7600,2.310
26.8000,2.174
26.8400,2.242
26.8800,2.202
26.9200,2.291
26.9600,2.305
27.0000,2.199
27.0400,2.312
27.0800,2.130
27.1200,2.360
27.1600,2.290
27.2000,2.241
27.2400,2.253
27.2800,2.228
27.3200,2.200
27.3600,2.080
27.4000,2.225
27.4400,2.176
27.4800,2.282
27.5200,2.292
27.5600,2.192
27.6000,2.198
27.6400,2.138
27.6800,2.115
27.7200,2.259
27.7600,2.256
27.8000,2.166
27.8400,2.165
27.8800,2.205
27.9200,2.149
27.9600,2.182
28.0000,2.222
28.0400,2.195
28.0800,2.196
28.1200,2.097
28.1600,2.155
28.2000,2.229
28.2400,2.040
28.2800,2.051
28.3200,2.235
28.3600,2.120
28.4000,2.072
28.4400,2.132
28.4800,2.172
28.5200,2.047
28.5600,2.025
28.6000,2.023
28.6400,2.091
28.6800,2.206
28.7200,2.184
28.7600,2.093
28.8000,2.120
28.8400,2.069
28.8800,1.977
28.9200,2.086
28.9600,2.125
29.0000,2.000
29.0400,2.198
29.0800,2.166
29.1200,2.231
29.1600,2.128
29.2000,2.093
29.2400,1.940
29.2800,1.998
29.3200,2.066
29.3600,1.992
29.4000,2.157
29.4400,2.060
29.4800,2.115
29.5200,2.120
29.5600,2.122
29.6000,2.085
29.6400,2.058
29.6800,1.966
29.7200,2.004
29.7600,2.012
29.8000,2.194
29.8400,2.031
29.8800,1.979
29.9200,1.945
29.9600,2.028
30.0000,2.010
30.0400,2.068
30.0800,1.921
30.1200,1.967
30.1600,2.062
30.2000,2.212
30.2400,2.000
30.2800,2.089
30.3200,1.952
30.3600,1.885
30.4000,1.916
30.4400,2.034
30.4800,1.949
30.5200,1.913
30.5600,2.016
30.6000,2.115
30.6400,1.832
30.6800,2.044
30.7200,2.002
30.7600,1.963
30.8000,1.993
30.8400,1.891
30.8800,1.861
30.9200,1.917
30.9600,1.910
31.0000,1.914
31.0400,2.096
31.0800,1.909
31.1200,2.058
31.1600,2.011
31.2000,2.006
31.2400,1.976
31.2800,1.997
31.3200,2.029
31.3600,1.832
31.4000,1.923
31.4400,1.963
31.4800,1.808
31.5200,1.883
31.5600,1.957
31.6000,1.916
31.6400,1.981
31.6800,1.823
31.7200,1.869
31.7600,1.923
31.8000,1.898
31.8400,1.964
31.8800,1.861
31.9200,1.938
31.9600,1.837
32.0000,1.876
32.0400,1.791
32.0800,1.948
32.1200,1.983
32.1600,1.946
32.2000,1.848
32.2400,1.862
32.2800,1.842
32.3200,1.910
32.3600,1.821
32.4000,1.792
32.4400,1.877
32.4800,1.877
32.5200,1.824
32.5600,1.885
32.6000,1.813
32.6400,2.032
32.6800,1.765
32.7200,1.830
32.7600,1.811
32.8000,1.768
32.8400,1.903
32.8800,1.955
32.9200,1.869
32.9600,1.807
33.0000,1.900
33.0400,1.820
33.0800,1.770
33.1200,1.849
33.1600,1.860
33.2000,1.856
33.2400,1.731
33.2800,1.777
33.3200,1.960
33.3600,1.837
33.4000,1.862
33.4400,1.730
33.4800,1.790
33.5200,1.836
33.5600,1.756
33.6000,1.768
33.6400,1.740
33.6800,1.805
33.7200,1.773
33.7600,1.699
33.8000,1.689
33.8400,1.748
33.8800,1.786
33.9200,1.685
33.9600,1.647
34.0000,1.723
34.0400,1.758
34.0800,1.725
34.1200,1.798
34.1600,1.696
34.2000,1.695
34.2400,1.708
34.2800,1.774
34.3200,1.813
34.3600,1.723
34.4000,1.675
34.4400,1.759
34.4800,1.847
34.5200,1.686
34.5600,1.681
34.6000,1.798
34.6400,1.719
34.6800,1.856
34.7200,1.926
34.7600,1.705
34.8000,1.685
34.8400,1.707
34.8800,1.703
34.9200,1.652
34.9600,1.746
35.0000,1.756
35.0400,1.818
35.0800,1.882
35.1200,1.747
35.1600,1.655
35.2000,1.764
35.2400,1.788
35.2800,1.770
35.3200,1.668
35.3600,1.682
35.4000,1.659
35.4400,1.756
35.4800,1.692
35.5200,1.756
35.5600,1.690
35.6000,1.691
35.6400,1.693
35.6800,1.784
35.7200,1.761
35.7600,1.723
35.8000,1.767
35.8400,1.900
35.8800,1.726
35.9200,1.820
35.9600,1.867
36.0000,1.749
36.0400,1.770
36.0800,1.743
36.1200,1.843
36.1600,1.912
36.2000,1.804
36.2400,1.810
36.2800,1.795
36.3200,1.699
36.3600,1.736
36.4000,1.845
36.4400,1.816
36.4800,1.860
36.5200,1.815
36.5600,1.729
36.6000,1.744
36.6400,1.787
36.6800,1.784
36.7200,1.831
36.7600,1.671
36.8000,1.801
36.8400,1.827
36.8800,1.852
36.9200,1.775
36.9600,1.829
37.0000,1.793
37.0400,1.908
37.0800,1.869
37.1200,1.875
37.1600,2.014
37.2000,2.026
37.2400,2.037
37.2800,2.053
37.3200,2.005
37.3600,2.073
37.4000,2.160
37.4400,2.245
37.4800,2.107
37.5200,2.455
37.5600,2.403
37.6000,2.386
37.6400,2.569
37.6800,2.595
37.7200,2.848
37.7600,3.209
37.8000,3.456
37.8400,3.746
37.8800,4.434
37.9200,5.019
37.9600,5.960
38.0000,7.563
38.0400,9.952
38.0800,13.388
38.1200,18.271
38.1600,24.322
38.2000,28.653
38.2400,30.094
38.2800,28.187
38.3200,23.829
38.3600,18.916
38.4000,14.114
38.4400,10.680
38.4800,8.151
38.5200,6.625
38.5600,5.504
38.6000,4.733
38.6400,4.077
38.6800,3.794
38.7200,3.337
38.7600,3.146
38.8000,2.846
38.8400,2.700
38.8800,2.609
38.9200,2.502
38.9600,2.351
39.0000,2.044
39.0400,2.105
39.0800,2.130
39.1200,2.009
39.1600,1.975
39.2000,1.907
39.2400,2.017
39.2800,1.843
39.3200,1.800
39.3600,1.830
39.4000,1.839
39.4400,1.754
39.4800,1.736
39.5200,1.672
39.5600,1.798
39.6000,1.765
39.6400,1.702
39.6800,1.613
39.7200,1.662
39.7600,1.714
39.8000,1.586
39.8400,1.632
39.8800,1.551
39.9200,1.603
39.9600,1.476
40.0000,1.506
40.0400,1.561
40.0800,1.543
40.1200,1.483
40.1600,1.430
40.2000,1.492
40.2400,1.606
40.2800,1.515
40.3200,1.494
40.3600,1.473
40.4000,1.411
40.4400,1.493
40.4800,1.480
40.5200,1.518
40.5600,1.558
40.6000,1.493
40.6400,1.546
40.6800,1.483
40.7200,1.418
40.7600,1.538
40.8000,1.453
40.8400,1.427
40.8800,1.485
40.9200,1.313
40.9600,1.441
41.0000,1.405
41.0400,1.456
41.0800,1.282
41.1200,1.357
41.1600,1.471
41.2000,1.479
41.2400,1.352
41.2800,1.477
41.3200,1.417
41.3600,1.412
41.4000,1.455
41.4400,1.474
41.4800,1.473
41.5200,1.499
41.5600,1.350
41.6000,1.281
41.6400,1.357
41.6800,1.426
41.7200,1.405
41.7600,1.319
41.8000,1.338
41.8400,1.280
41.8800,1.330
41.9200,1.333
41.9600,1.409
42.0000,1.368
42.0400,1.241
42.0800,1.344
42.1200,1.465
42.1600,1.494
42.2000,1.288
42.2400,1.343
42.2800,1.369
42.3200,1.393
42.3600,1.351
42.4000,1.292
42.4400,1.259
42.4800,1.347
42.5200,1.363
42.5600,1.386
42.6000,1.311
42.6400,1.386
42.6800,1.408
42.7200,1.414
42.7600,1.327
42.8000,1.366
42.8400,1.351
42.8800,1.420
42.9200,1.266
42.9600,1.384
43.0000,1.433
43.0400,1.420
43.0800,1.380
43.1200,1.442
43.1600,1.427
43.2000,1.467
43.2400,1.487
43.2800,1.451
43.3200,1.453
43.3600,1.457
43.4000,1.474
43.4400,1.480
43.4800,1.468
43.5200,1.486
43.5600,1.490
43.6000,1.481
43.6400,1.691
43.6800,1.646
43.7200,1.811
43.7600,1.869
43.8000,1.991
43.8400,1.851
43.8800,1.939
43.9200,2.020
43.9600,2.253
44.0000,2.216
44.0400,2.413
44.0800,2.730
44.1200,2.951
44.1600,3.362
44.2000,3.793
44.2400,4.201
44.2800,5.115
44.3200,5.776
44.3600,6.251
44.4000,6.826
44.4400,6.949
44.4800,7.039
44.5200,6.963
44.5600,6.078
44.6000,5.488
44.6400,4.895
44.6800,4.240
44.7200,3.672
44.7600,3.279
44.8000,2.930
44.8400,2.638
44.8800,2.373
44.9200,2.172
44.9600,2.068
45.0000,1.968
45.0400,1.805
45.0800,1.798
45.1200,1.545
45.1600,1.614
45.2000,1.557
45.2400,1.412
45.2800,1.392
45.3200,1.336
45.3600,1.444
45.4000,1.399
45.4400,1.291
45.4800,1.363
45.5200,1.257
45.5600,1.313
45.6000,1.315
45.6400,1.269
45.6800,1.197
45.7200,1.171
45.7600,1.193
45.8000,1.361
45.8400,1.271
45.8800,1.158
45.9200,1.173
45.9600,1.120
46.0000,1.171
46.0400,1.112
46.0800,1.248
46.1200,1.196
46.1600,1.123
46.2000,1.200
46.2400,1.172
46.2800,1.127
46.3200,1.072
46.3600,1.047
46.4000,1.093
46.4400,1.109
46.4800,1.063
46.5200,1.192
46.5600,1.070
46.6000,1.092
46.6400,1.128
46.6800,1.084
46.7200,0.962
46.7600,1.026
46.8000,1.058
46.8400,1.083
46.8800,1.156
46.9200,1.099
46.9600,1.164
47.0000,1.126
47.0400,1.013
47.0800,1.072
47.1200,0.981
47.1600,1.059
47.2000,1.007
47.2400,1.155
47.2800,1.044
47.3200,1.093
47.3600,1.075
47.4000,0.971
47.4400,1.044
47.4800,0.986
47.5200,1.066
47.5600,0.935
47.6000,1.127
47.6400,0.999
47.6800,0.976
47.7200,0.987
47.7600,1.014
47.8000,1.106
47.8400,1.026
47.8800,0.874
47.9200,1.000
47.9600,0.953
48.0000,1.171
48.0400,1.040
48.0800,0.977
48.1200,0.990
48.1600,1.059
48.2000,1.061
48.2400,1.055
48.2800,1.052
48.3200,1.148
48.3600,0.981
48.4000,1.073
48.4400,1.002
48.4800,1.010
48.5200,0.980
48.5600,0.965
48.6000,0.971
48.6400,1.012
48.6800,1.037
48.7200,1.074
48.7600,1.046
48.8000,1.063
48.8400,0.978
48.8800,0.936
48.9200,0.943
48.9600,0.983
49.0000,0.936
49.0400,0.966
49.0800,0.989
49.1200,0.971
49.1600,0.933
49.2000,0.936
49.2400,0.934
49.2800,0.919
49.3200,0.896
49.3600,0.908
49.4000,0.923
49.4400,0.935
49.4800,0.958
49.5200,0.906
49.5600,0.920
49.6000,0.923
49.6400,1.018
49.6800,0.909
49.7200,0.913
49.7600,0.938
49.8000,0.974
49.8400,0.929
49.8800,0.896
49.9200,0.892
49.9600,0.946
50.0000,0.899
50.0400,0.947
50.0800,0.959
50.1200,0.916
50.1600,0.989
50.2000,0.841
50.2400,0.910
50.2800,0.963
50.3200,0.919
50.3600,0.881
50.4000,1.001
50.4400,0.888
50.4800,0.931
50.5200,0.974
50.5600,0.926
50.6000,0.966
50.6400,0.939
50.6800,0.883
50.7200,0.921
50.7600,0.970
50.8000,0.927
50.8400,0.942
50.8800,0.984
50.9200,0.915
50.9600,0.915
51.0000,0.900
51.0400,0.935
51.0800,0.872
51.1200,0.826
51.1600,0.914
51.2000,0.901
51.2400,0.866
51.2800,0.834
51.3200,0.856
51.3600,0.899
51.4000,0.902
51.4400,0.858
51.4800,0.883
51.5200,0.909
51.5600,0.870
51.6000,0.970
51.6400,0.834
51.6800,0.847
51.7200,0.863
51.7600,0.881
51.8000,0.823
51.8400,0.887
51.8800,0.876
51.9200,0.864
51.9600,0.861
52.0000,0.911
52.0400,0.916
52.0800,0.811
52.1200,0.887
52.1600,0.897
52.2000,0.939
52.2400,0.856
52.2800,0.868
52.3200,0.798
52.3600,0.814
52.4000,0.892
52.4400,0.896
52.4800,0.885
52.5200,0.836
52.5600,0.933
52.6000,0.965
52.6400,0.881
52.6800,0.851
52.7200,0.784
52.7600,0.832
52.8000,0.887
52.8400,0.880
52.8800,0.729
52.9200,0.894
52.9600,0.874
53.0000,0.874
53.0400,0.850
53.0800,0.772
53.1200,0.852
53.1600,0.865
53.2000,0.915
53.2400,0.801
53.2800,0.806
53.3200,0.872
53.3600,0.870
53.4000,0.838
53.4400,0.830
53.4800,0.768
53.5200,0.890
53.5600,0.765
53.6000,0.795
53.6400,0.822
53.6800,0.895
53.7200,0.891
53.7600,0.831
53.8000,0.828
53.8400,0.818
53.8800,0.825
53.9200,0.825
53.9600,0.869
54.0000,0.824
54.0400,0.868
54.0800,0.913
54.1200,0.872
54.1600,0.831
54.2000,0.753
54.2400,0.814
54.2800,0.768
54.3200,0.776
54.3600,0.802
54.4000,0.785
54.4400,0.790
54.4800,0.769
54.5200,0.813
54.5600,0.854
54.6000,0.753
54.6400,0.808
54.6800,0.811
54.7200,0.832
54.7600,0.809
54.8000,0.762
54.8400,0.821
54.8800,0.775
54.9200,0.715
54.9600,0.771
55.0000,0.779
55.0400,0.860
55.0800,0.793
55.1200,0.866
55.1600,0.772
55.2000,0.791
55.2400,0.783
55.2800,0.815
55.3200,0.816
55.3600,0.834
55.4000,0.762
55.4400,0.815
55.4800,0.736
55.5200,0.737
55.5600,0.776
55.6000,0.720
55.6400,0.728
55.6800,0.721
55.7200,0.844
55.7600,0.820
55.8000,0.738
55.8400,0.740
55.8800,0.774
55.9200,0.744
55.9600,0.769
56.0000,0.755
56.0400,0.690
56.0800,0.798
56.1200,0.757
56.1600,0.730
56.2000,0.832
56.2400,0.830
56.2800,0.754
56.3200,0.828
56.3600,0.845
56.4000,0.801
56.4400,0.742
56.4800,0.808
56.5200,0.875
56.5600,0.693
56.6000,0.770
56.6400,0.688
56.6800,0.760
56.7200,0.740
56.7600,0.781
56.8000,0.744
56.8400,0.777
56.8800,0.793
56.9200,0.748
56.9600,0.701
57.0000,0.812
57.0400,0.763
57.0800,0.776
57.1200,0.796
57.1600,0.744
57.2000,0.754
57.2400,0.773
57.2800,0.841
57.3200,0.749
57.3600,0.711
57.4000,0.695
57.4400,0.714
57.4800,0.709
57.5200,0.694
57.5600,0.721
57.6000,0.691
57.6400,0.754
57.6800,0.836
57.7200,0.753
57.7600,0.746
57.8000,0.835
57.8400,0.763
57.8800,0.783
57.9200,0.757
57.9600,0.733
58.0000,0.744
58.0400,0.693
58.0800,0.722
58.1200,0.802
58.1600,0.736
58.2000,0.708
58.2400,0.765
58.2800,0.728
58.3200,0.736
58.3600,0.779
58.4000,0.761
58.4400,0.745
58.4800,0.687
58.5200,0.749
58.5600,0.748
58.6000,0.747
58.6400,0.775
58.6800,0.767
58.7200,0.781
58.7600,0.790
58.8000,0.714
58.8400,0.808
58.8800,0.774
58.9200,0.793
58.9600,0.797
59.0000,0.758
59.0400,0.718
59.0800,0.760
59.1200,0.714
59.1600,0.700
59.2000,0.712
59.2400,0.709
59.2800,0.664
59.3200,0.757
59.3600,0.741
59.4000,0.718
59.4400,0.653
59.4800,0.742
59.5200,0.732
59.5600,0.735
59.6000,0.687
59.6400,0.712
59.6800,0.665
59.7200,0.699
59.7600,0.813
59.8000,0.714
59.8400,0.805
59.8800,0.782
59.9200,0.724
59.9600,0.623
60.0000,0.751
60.0400,0.783
60.0800,0.623
60.1200,0.696
60.1600,0.724
60.2000,0.755
60.2400,0.701
60.2800,0.750
60.3200,0.771
60.3600,0.740
60.4000,0.711
60.4400,0.716
60.4800,0.688
60.5200,0.719
60.5600,0.754
60.6000,0.648
60.6400,0.757
60.6800,0.654
60.7200,0.675
60.7600,0.701
60.8000,0.767
60.8400,0.656
60.8800,0.709
60.9200,0.726
60.9600,0.686
61.0000,0.717
61.0400,0.689
61.0800,0.717
61.1200,0.621
61.1600,0.719
61.2000,0.680
61.2400,0.664
61.2800,0.705
61.3200,0.705
61.3600,0.682
61.4000,0.586
61.4400,0.755
61.4800,0.685
61.5200,0.649
61.5600,0.737
61.6000,0.685
61.6400,0.779
61.6800,0.777
61.7200,0.751
61.7600,0.777
61.8000,0.612
61.8400,0.647
61.8800,0.667
61.9200,0.617
61.9600,0.690
62.0000,0.700
62.0400,0.700
62.0800,0.750
62.1200,0.710
62.1600,0.664
62.2000,0.670
62.2400,0.672
62.2800,0.644
62.3200,0.759
62.3600,0.685
62.4000,0.734
62.4400,0.670
62.4800,0.693
62.5200,0.624
62.5600,0.682
62.6000,0.648
62.6400,0.638
62.6800,0.654
62.7200,0.679
62.7600,0.707
62.8000,0.681
62.8400,0.692
62.8800,0.711
62.9200,0.715
62.9600,0.749
63.0000,0.638
63.0400,0.693
63.0800,0.777
63.1200,0.769
63.1600,0.697
63.2000,0.637
63.2400,0.712
63.2800,0.744
63.3200,0.728
63.3600,0.767
63.4000,0.832
63.4400,0.746
63.4800,0.762
63.5200,0.734
63.5600,0.739
63.6000,0.787
63.6400,0.791
63.6800,0.756
63.7200,0.772
63.7600,0.793
63.8000,0.893
63.8400,0.952
63.8800,0.879
63.9200,0.871
63.9600,0.923
64.0000,0.979
64.0400,1.023
64.0800,1.016
64.1200,0.987
64.1600,1.007
64.2000,1.212
64.2400,1.276
64.2800,1.291
64.3200,1.468
64.3600,1.727
64.4000,1.893
64.4400,2.236
64.4800,2.488
64.5200,2.903
64.5600,3.389
64.6000,4.202
64.6400,4.100
64.6800,4.021
64.7200,3.946
64.7600,3.647
64.8000,3.415
64.8400,3.006
64.8800,2.764
64.9200,2.429
64.9600,2.110
65.0000,1.757
65.0400,1.739
65.0800,1.405
65.1200,1.385
65.1600,1.293
65.2000,1.186
65.2400,1.173
65.2800,1.094
65.3200,1.075
65.3600,0.994
65.4000,0.911
65.4400,1.068
65.4800,0.937
65.5200,0.969
65.5600,0.945
65.6000,0.921
65.6400,0.927
65.6800,0.886
65.7200,0.876
65.7600,0.886
65.8000,0.888
65.8400,0.855
65.8800,0.872
65.9200,0.914
65.9600,0.935
66.0000,0.915
66.0400,0.883
66.0800,0.868
66.1200,0.900
66.1600,0.863
66.2000,0.894
66.2400,0.891
66.2800,0.894
66.3200,0.893
66.3600,0.867
66.4000,0.780
66.4400,0.888
66.4800,1.003
66.5200,0.909
66.5600,0.854
66.6000,0.919
66.6400,0.977
66.6800,0.910
66.7200,0.969
66.7600,0.937
66.8000,0.906
66.8400,0.911
66.8800,0.959
66.9200,1.020
66.9600,1.067
67.0000,1.010
67.0400,1.085
67.0800,1.067
67.1200,0.986
67.1600,1.118
67.2000,1.096
67.2400,1.070
67.2800,1.140
67.3200,1.077
67.3600,1.093
67.4000,1.202
67.4400,1.132
67.4800,1.227
67.5200,1.230
67.5600,1.257
67.6000,1.221
67.6400,1.262
67.6800,1.344
67.7200,1.263
67.7600,1.371
67.8000,1.221
67.8400,1.411
67.8800,1.405
67.9200,1.433
67.9600,1.408
68.0000,1.475
68.0400,1.587
68.0800,1.594
68.1200,1.524
68.1600,1.684
68.2000,1.757
68.2400,1.741
68.2800,1.765
68.3200,1.832
68.3600,1.941
68.4000,2.063
68.4400,2.024
68.4800,2.209
68.5200,2.220
68.5600,2.279
68.6000,2.500
68.6400,2.732
68.6800,3.083
68.7200,3.683
68.7600,4.750
68.8000,5.593
68.8400,6.440
68.8800,6.332
68.9200,6.668
68.9600,8.735
69.0000,13.214
69.0400,24.873
69.0800,85.979
69.1200,319.289
69.1600,382.236
69.2000,151.533
69.2400,46.215
69.2800,64.227
69.3200,173.343
69.3600,191.500
69.4000,74.736
69.4400,21.166
69.4800,11.138
69.5200,7.719
69.5600,5.926
69.6000,5.063
69.6400,4.163
69.6800,3.642
69.7200,3.391
69.7600,3.158
69.8000,2.934
69.8400,2.752
69.8800,2.584
69.9200,2.376
69.9600,2.385
70.0000,2.131
70.0400,2.080
70.0800,2.117
70.1200,1.905
70.1600,1.873
70.2000,2.002
70.2400,1.744
70.2800,1.795
70.3200,1.670
70.3600,1.695
70.4000,1.656
70.4400,1.588
70.4800,1.500
70.5200,1.474
70.5600,1.458
70.6000,1.492
70.6400,1.414
70.6800,1.332
70.7200,1.276
70.7600,1.252
70.8000,1.176
70.8400,1.226
70.8800,1.177
70.9200,1.103
70.9600,1.189
71.0000,1.067
71.0400,1.120
71.0800,1.083
71.1200,1.050
71.1600,1.024
71.2000,1.013
71.2400,1.075
71.2800,0.998
71.3200,0.911
71.3600,0.982
71.4000,1.027
71.4400,0.880
71.4800,0.897
71.5200,0.819
71.5600,0.897
71.6000,0.820
71.6400,0.849
71.6800,0.850
71.7200,0.903
71.7600,0.779
71.8000,0.909
71.8400,0.862
71.8800,0.761
71.9200,0.785
71.9600,0.837
72.0000,0.756
72.0400,0.740
72.0800,0.774
72.1200,0.734
72.1600,0.785
72.2000,0.718
72.2400,0.737
72.2800,0.784
72.3200,0.719
72.3600,0.688
72.4000,0.677
72.4400,0.679
72.4800,0.679
72.5200,0.685
72.5600,0.653
72.6000,0.679
72.6400,0.673
72.6800,0.692
72.7200,0.678
72.7600,0.666
72.8000,0.694
72.8400,0.687
72.8800,0.646
72.9200,0.652
72.9600,0.563
73.0000,0.626
73.0400,0.544
73.0800,0.579
73.1200,0.589
73.1600,0.613
73.2000,0.507
73.2400,0.584
73.2800,0.646
73.3200,0.612
73.3600,0.666
73.4000,0.559
73.4400,0.548
73.4800,0.609
73.5200,0.664
73.5600,0.585
73.6000,0.542
73.6400,0.569
73.6800,0.574
73.7200,0.571
73.7600,0.557
73.8000,0.569
73.8400,0.524
73.8800,0.562
73.9200,0.601
73.9600,0.616
74.0000,0.568
74.0400,0.546
74.0800,0.546
74.1200,0.537
74.1600,0.568
74.2000,0.538
74.2400,0.585
74.2800,0.541
74.3200,0.503
74.3600,0.514
74.4000,0.455
74.4400,0.466
74.4800,0.566
74.5200,0.582
74.5600,0.545
74.6000,0.522
74.6400,0.539
74.6800,0.579
74.7200,0.616
74.7600,0.460
74.8000,0.542
74.8400,0.542
74.8800,0.522
74.9200,0.478
74.9600,0.539
75.0000,0.480
75.0400,0.550
75.0800,0.529
75.1200,0.500
75.1600,0.523
75.2000,0.505
75.2400,0.483
75.2800,0.495
75.3200,0.580
75.3600,0.584
75.4000,0.501
75.4400,0.496
75.4800,0.588
75.5200,0.529
75.5600,0.520
75.6000,0.544
75.6400,0.498
75.6800,0.505
75.7200,0.490
75.7600,0.500
75.8000,0.555
75.8400,0.529
75.8800,0.533
75.9200,0.541
75.9600,0.542
76.0000,0.476
76.0400,0.501
76.0800,0.536
76.1200,0.487
76.1600,0.500
76.2000,0.602
76.2400,0.614
76.2800,0.588
76.3200,0.518
76.3600,0.453
76.4000,0.506
76.4400,0.550
76.4800,0.484
76.5200,0.496
76.5600,0.623
76.6000,0.628
76.6400,0.557
76.6800,0.668
76.7200,0.581
76.7600,0.572
76.8000,0.694
76.8400,0.602
76.8800,0.695
76.9200,0.655
76.9600,0.675
77.0000,0.748
77.0400,0.713
77.0800,0.842
77.1200,0.924
77.1600,0.886
77.2000,0.954
77.2400,1.017
77.2800,1.156
77.3200,1.265
77.3600,1.388
77.4000,1.528
77.4400,1.870
77.4800,2.160
77.5200,2.404
77.5600,2.929
77.6000,3.217
77.6400,3.248
77.6800,3.070
77.7200,3.018
77.7600,2.912
77.8000,2.775
77.8400,2.550
77.8800,2.527
77.9200,2.052
77.9600,1.956
78.0000,1.557
78.0400,1.569
78.0800,1.330
78.1200,1.150
78.1600,1.046
78.2000,0.933
78.2400,0.850
78.2800,0.817
78.3200,0.719
78.3600,0.695
78.4000,0.751
78.4400,0.617
78.4800,0.643
78.5200,0.633
78.5600,0.594
78.6000,0.590
78.6400,0.626
78.6800,0.522
78.7200,0.565
78.7600,0.561
78.8000,0.557
78.8400,0.491
78.8800,0.512
78.9200,0.574
78.9600,0.535
79.0000,0.534
79.0400,0.525
79.0800,0.487
79.1200,0.484
79.1600,0.514
79.2000,0.496
79.2400,0.518
79.2800,0.464
79.3200,0.506
79.3600,0.495
79.4000,0.473
79.4400,0.510
79.4800,0.481
79.5200,0.509
79.5600,0.430
79.6000,0.450
79.6400,0.462
79.6800,0.490
79.7200,0.459
79.7600,0.474
79.8000,0.445
79.8400,0.475
79.8800,0.458
79.9200,0.463
79.9600,0.447
80.0000,0.451
80.0400,0.468
80.0800,0.427
80.1200,0.417
80.1600,0.509
80.2000,0.403
80.2400,0.447
80.2800,0.476
80.3200,0.418
80.3600,0.434
80.4000,0.415
80.4400,0.470
80.4800,0.439
80.5200,0.437
80.5600,0.437
80.6000,0.483
80.6400,0.444
80.6800,0.517
80.7200,0.430
80.7600,0.461
80.8000,0.519
80.8400,0.509
80.8800,0.428
80.9200,0.465
80.9600,0.442
81.0000,0.469
81.0400,0.536
81.0800,0.423
81.1200,0.449
81.1600,0.474
81.2000,0.487
81.2400,0.528
81.2800,0.549
81.3200,0.502
81.3600,0.598
81.4000,0.600
81.4400,0.582
81.4800,0.645
81.5200,0.759
81.5600,0.787
81.6000,0.875
81.6400,1.031
81.6800,1.242
81.7200,1.341
81.7600,1.312
81.8000,1.369
81.8400,1.325
81.8800,1.251
81.9200,1.201
81.9600,0.996
82.0000,1.083
82.0400,0.920
82.0800,0.855
82.1200,0.806
82.1600,0.804
82.2000,0.718
82.2400,0.630
82.2800,0.638
82.3200,0.562
82.3600,0.455
82.4000,0.507
82.4400,0.516
82.4800,0.431
82.5200,0.446
82.5600,0.449
82.6000,0.448
82.6400,0.450
82.6800,0.420
82.7200,0.419
82.7600,0.373
82.8000,0.414
82.8400,0.431
82.8800,0.422
82.9200,0.458
82.9600,0.453
83.0000,0.410
83.0400,0.390
83.0800,0.399
83.1200,0.374
83.1600,0.413
83.2000,0.443
83.2400,0.415
83.2800,0.434
83.3200,0.411
83.3600,0.389
83.4000,0.396
83.4400,0.414
83.4800,0.380
83.5200,0.389
83.5600,0.326
83.6000,0.364
83.6400,0.367
83.6800,0.419
83.7200,0.397
83.7600,0.374
83.8000,0.367
83.8400,0.337
83.8800,0.359
83.9200,0.415
83.9600,0.367
84.0000,0.389
84.0400,0.393
84.0800,0.379
84.1200,0.391
84.1600,0.377
84.2000,0.341
84.2400,0.394
84.2800,0.361
84.3200,0.318
84.3600,0.409
84.4000,0.370
84.4400,0.367
84.4800,0.395
84.5200,0.383
84.5600,0.368
84.6000,0.401
84.6400,0.366
84.6800,0.347
84.7200,0.372
84.7600,0.398
84.8000,0.329
84.8400,0.354
84.8800,0.413
84.9200,0.367
84.9600,0.378
85.0000,0.376
85.0400,0.352
85.0800,0.381
85.1200,0.327
85.1600,0.348
85.2000,0.329
85.2400,0.357
85.2800,0.385
85.3200,0.340
85.3600,0.356
85.4000,0.409
85.4400,0.451
85.4800,0.391
85.5200,0.319
85.5600,0.357
85.6000,0.334
85.6400,0.348
85.6800,0.359
85.7200,0.419
85.7600,0.375
85.8000,0.364
85.8400,0.376
85.8800,0.324
85.9200,0.342
85.9600,0.380
86.0000,0.379
86.0400,0.384
86.0800,0.359
86.1200,0.356
86.1600,0.367
86.2000,0.391
86.2400,0.358
86.2800,0.421
86.3200,0.375
86.3600,0.374
86.4000,0.386
86.4400,0.343
86.4800,0.344
86.5200,0.340
86.5600,0.353
86.6000,0.336
86.6400,0.297
86.6800,0.354
86.7200,0.383
86.7600,0.334
86.8000,0.310
86.8400,0.346
86.8800,0.337
86.9200,0.360
86.9600,0.400
87.0000,0.368
87.0400,0.398
87.0800,0.353
87.1200,0.365
87.1600,0.348
87.2000,0.359
87.2400,0.303
87.2800,0.356
87.3200,0.375
87.3600,0.349
87.4000,0.322
87.4400,0.309
87.4800,0.313
87.5200,0.354
87.5600,0.268
87.6000,0.349
87.6400,0.360
87.6800,0.355
87.7200,0.385
87.7600,0.363
87.8000,0.348
87.8400,0.328
87.8800,0.337
87.9200,0.383
87.9600,0.353
88.0000,0.330
88.0400,0.342
88.0800,0.394
88.1200,0.347
88.1600,0.414
88.2000,0.355
88.2400,0.361
88.2800,0.350
88.3200,0.340
88.3600,0.317
88.4000,0.364
88.4400,0.336
88.4800,0.322
88.5200,0.288
88.5600,0.284
88.6000,0.329
88.6400,0.354
88.6800,0.351
88.7200,0.302
88.7600,0.334
88.8000,0.312
88.8400,0.364
88.8800,0.369
88.9200,0.357
88.9600,0.324
89.0000,0.342
89.0400,0.344
89.0800,0.333
89.1200,0.324
89.1600,0.358
89.2000,0.361
89.2400,0.340
89.2800,0.313
89.3200,0.304
89.3600,0.303
89.4000,0.372
89.4400,0.328
89.4800,0.331
89.5200,0.395
89.5600,0.346
89.6000,0.338
89.6400,0.325
89.6800,0.323
89.7200,0.340
89.7600,0.329
89.8000,0.354
89.8400,0.314
89.8800,0.348
89.9200,0.343
89.9600,0.352
90.0000,0.326
