5.0400,6.252
5.0800,6.400
5.1200,6.190
5.1600,6.115
5.2000,6.237
5.2400,6.201
5.2800,6.083
5.3200,5.956
5.3600,6.068
5.4000,5.778
5.4400,5.947
5.4800,5.841
5.5200,5.820
5.5600,5.682
5.6000,5.377
5.6400,5.421
5.6800,5.249
5.7200,5.246
5.7600,5.095
5.8000,5.305
5.8400,5.087
5.8800,4.982
5.9200,4.904
5.9600,4.788
6.0000,4.572
6.0400,4.527
6.0800,4.596
6.1200,4.453
6.1600,4.529
6.2000,4.450
6.2400,4.577
6.2800,4.555
6.3200,4.485
6.3600,4.534
6.4000,4.332
6.4400,4.247
6.4800,4.174
6.5200,4.165
6.5600,4.360
6.6000,4.095
6.6400,4.284
6.6800,4.261
6.7200,4.084
6.7600,4.243
6.8000,4.148
6.8400,4.306
6.8800,4.169
6.9200,4.193
6.9600,4.108
7.0000,4.227
7.0400,4.106
7.0800,4.119
7.1200,4.185
7.1600,4.022
7.2000,4.034
7.2400,4.032
7.2800,4.213
7.3200,4.012
7.3600,4.118
7.4000,3.961
7.4400,4.074
7.4800,4.166
7.5200,4.116
7.5600,4.047
7.6000,4.148
7.6400,4.055
7.6800,4.076
7.7200,4.078
7.7600,3.903
7.8000,4.176
7.8400,4.108
7.8800,4.049
7.9200,3.981
7.9600,3.997
8.0000,3.811
8.0400,3.886
8.0800,3.763
8.1200,3.905
8.1600,3.876
8.2000,4.091
8.2400,3.846
8.2800,3.933
8.3200,3.861
8.3600,3.874
8.4000,3.990
8.4400,4.035
8.4800,4.080
8.5200,3.945
8.5600,3.819
8.6000,3.830
8.6400,3.878
8.6800,4.027
8.7200,3.888
8.7600,3.951
8.8000,3.891
8.8400,3.890
8.8800,3.746
8.9200,3.786
8.9600,3.856
9.0000,3.744
9.0400,3.663
9.0800,3.745
9.1200,3.893
9.1600,3.774
9.2000,3.858
9.2400,3.805
9.2800,3.981
9.3200,3.740
9.3600,3.647
9.4000,3.705
9.4400,3.889
9.4800,3.769
9.5200,3.812
9.5600,3.876
9.6000,3.990
9.6400,3.675
9.6800,3.677
9.7200,3.954
9.7600,3.849
9.8000,3.702
9.8400,3.626
9.8800,3.880
9.9200,3.904
9.9600,3.737
10.0000,3.862
10.0400,3.872
10.0800,3.751
10.1200,3.651
10.1600,3.465
10.2000,3.665
10.2400,3.761
10.2800,3.670
10.3200,3.777
10.3600,3.744
10.4000,3.775
10.4400,3.661
10.4800,3.756
10.5200,3.748
10.5600,3.703
10.6000,3.654
10.6400,3.767
10.6800,3.714
10.7200,3.708
10.7600,3.620
10.8000,3.646
10.8400,3.832
10.8800,3.725
10.9200,3.654
10.9600,3.647
11.0000,3.565
11.0400,3.522
11.0800,3.601
11.1200,3.714
11.1600,3.659
11.2000,3.645
11.2400,3.699
11.2800,3.571
11.3200,3.523
11.3600,3.364
11.4000,3.473
11.4400,3.589
11.4800,3.495
11.5200,3.597
11.5600,3.578
11.6000,3.671
11.6400,3.811
11.6800,3.544
11.7200,3.636
11.7600,3.644
11.8000,3.548
11.8400,3.419
11.8800,3.634
11.9200,3.520
11.9600,3.624
12.0000,3.521
12.0400,3.584
12.0800,3.612
12.1200,3.588
12.1600,3.566
12.2000,3.383
12.2400,3.365
12.2800,3.476
12.3200,3.392
12.3600,3.480
12.4000,3.474
12.4400,3.408
12.4800,3.448
12.5200,3.325
12.5600,3.525
12.6000,3.323
12.6400,3.507
12.6800,3.464
12.7200,3.370
12.7600,3.540
12.8000,3.511
12.8400,3.406
12.8800,3.471
12.9200,3.548
12.9600,3.409
13.0000,3.449
13.0400,3.560
13.0800,3.379
13.1200,3.438
13.1600,3.262
13.2000,3.492
13.2400,3.408
13.2800,3.437
13.3200,3.440
13.3600,3.572
13.4000,3.380
13.4400,3.408
13.4800,3.152
13.5200,3.366
13.5600,3.260
13.6000,3.385
13.6400,3.487
13.6800,3.381
13.7200,3.355
13.7600,3.402
13.8000,3.482
13.8400,3.263
13.8800,3.491
13.9200,3.383
13.9600,3.201
14.0000,3.518
14.0400,3.458
14.0800,3.182
14.1200,3.297
14.1600,3.428
14.2000,3.239
14.2400,3.355
14.2800,3.495
14.3200,3.276
14.3600,3.329
14.4000,3.264
14.4400,3.123
14.4800,3.306
14.5200,3.372
14.5600,3.333
14.6000,3.318
14.6400,3.198
14.6800,3.188
14.7200,3.492
14.7600,3.250
14.8000,3.207
14.8400,3.309
14.8800,3.233
14.9200,3.244
14.9600,3.242
15.0000,3.099
15.0400,3.286
15.0800,3.267
15.1200,3.310
15.1600,3.118
15.2000,3.257
15.2400,3.064
15.2800,3.229
15.3200,3.274
15.3600,3.134
15.4000,3.244
15.4400,3.200
15.4800,3.388
15.5200,3.169
15.5600,3.304
15.6000,3.121
15.6400,3.259
15.6800,3.259
15.7200,3.215
15.7600,3.051
15.8000,3.195
15.8400,3.184
15.8800,3.275
15.9200,3.054
15.9600,3.196
16.0000,3.216
16.0400,3.138
16.0800,3.141
16.1200,3.055
16.1600,3.140
16.2000,3.248
16.2400,3.042
16.2800,3.086
16.3200,3.197
16.3600,3.259
16.4000,3.148
16.4400,3.075
16.4800,3.108
16.5200,3.045
16.5600,3.123
16.6000,3.176
16.6400,3.171
16.6800,3.126
16.7200,3.119
16.7600,3.026
16.8000,2.986
16.8400,3.094
16.8800,2.884
16.9200,2.996
16.9600,2.961
17.0000,2.951
17.0400,2.998
17.0800,3.040
17.1200,3.140
17.1600,3.038
17.2000,2.996
17.2400,3.106
17.2800,2.955
17.3200,3.090
17.3600,3.103
17.4000,3.037
17.4400,3.046
17.4800,3.126
17.5200,2.972
17.5600,3.025
17.6000,2.773
17.6400,2.943
17.6800,3.086
17.7200,2.954
17.7600,2.747
17.8000,2.924
17.8400,2.935
17.8800,2.918
17.9200,2.942
17.9600,2.955
18.0000,3.175
18.0400,3.015
18.0800,2.906
18.1200,2.971
18.1600,2.955
18.2000,3.089
18.2400,2.928
18.2800,3.027
18.3200,3.047
18.3600,2.874
18.4000,2.882
18.4400,2.876
18.4800,3.023
18.5200,2.925
18.5600,2.942
18.6000,2.937
18.6400,2.989
18.6800,2.661
18.7200,2.797
18.7600,2.754
18.8000,2.956
18.8400,2.954
18.8800,2.801
18.9200,2.822
18.9600,2.891
19.0000,3.005
19.0400,2.983
19.0800,2.775
19.1200,2.917
19.1600,2.899
19.2000,2.818
19.2400,2.849
19.2800,2.839
19.3200,2.897
19.3600,2.814
19.4000,2.799
19.4400,2.993
19.4800,2.692
19.5200,2.830
19.5600,2.700
19.6000,2.799
19.6400,2.858
19.6800,2.808
19.7200,2.781
19.7600,2.766
19.8000,2.867
19.8400,2.919
19.8800,2.883
19.9200,2.783
19.9600,2.827
20.0000,2.904
20.0400,2.786
20.0800,2.771
20.1200,2.805
20.1600,2.690
20.2000,2.761
20.2400,2.709
20.2800,2.818
20.3200,2.739
20.3600,2.624
20.4000,2.608
20.4400,2.845
20.4800,2.721
20.5200,2.815
20.5600,2.851
20.6000,2.875
20.6400,2.533
20.6800,2.589
20.7200,2.803
20.7600,2.721
20.8000,2.787
20.8400,2.588
20.8800,2.680
20.9200,2.707
20.9600,2.716
21.0000,2.578
21.0400,2.782
21.0800,2.697
21.1200,2.757
21.1600,2.642
21.2000,2.663
21.2400,2.604
21.2800,2.565
21.3200,2.506
21.3600,2.593
21.4000,2.766
21.4400,2.686
21.4800,2.497
21.5200,2.519
21.5600,2.701
21.6000,2.665
21.6400,2.755
21.6800,2.538
21.7200,2.720
21.7600,2.718
21.8000,2.596
21.8400,2.593
21.8800,2.656
21.9200,2.594
21.9600,2.613
22.0000,2.593
22.0400,2.663
22.0800,2.512
22.1200,2.752
22.1600,2.702
22.2000,2.659
22.2400,2.633
22.2800,2.415
22.3200,2.656
22.3600,2.512
22.4000,2.441
22.4400,2.787
22.4800,2.645
22.5200,2.424
22.5600,2.606
22.6000,2.503
22.6400,2.577
22.6800,2.481
22.7200,2.464
22.7600,2.595
22.8000,2.441
22.8400,2.531
22.8800,2.637
22.9200,2.487
22.9600,2.607
23.0000,2.413
23.0400,2.400
23.0800,2.491
23.1200,2.474
23.1600,2.501
23.2000,2.540
23.2400,2.367
23.2800,2.436
23.3200,2.565
23.3600,2.292
23.4000,2.460
23.4400,2.585
23.4800,2.517
23.5200,2.534
23.5600,2.491
23.6000,2.380
23.6400,2.580
23.6800,2.421
23.7200,2.452
23.7600,2.467
23.8000,2.463
23.8400,2.429
23.8800,2.461
23.9200,2.388
23.9600,2.362
24.0000,2.420
24.0400,2.376
24.0800,2.340
24.1200,2.389
24.1600,2.428
24.2000,2.500
24.2400,2.403
24.2800,2.419
24.3200,2.467
24.3600,2.337
24.4000,2.293
24.4400,2.391
24.4800,2.334
24.5200,2.262
24.5600,2.253
24.6000,2.267
24.6400,2.401
24.6800,2.282
24.7200,2.367
24.7600,2.427
24.8000,2.498
24.8400,2.324
24.8800,2.359
24.9200,2.348
24.9600,2.336
25.0000,2.409
25.0400,2.257
25.0800,2.283
25.1200,2.313
25.1600,2.349
25.2000,2.399
25.2400,2.265
25.2800,2.295
25.3200,2.314
25.3600,2.275
25.4000,2.168
25.4400,2.245
25.4800,2.275
25.5200,2.187
25.5600,2.278
25.6000,2.300
25.6400,2.197
25.6800,2.268
25.7200,2.180
25.7600,2.269
25.8000,2.192
25.8400,2.264
25.8800,2.186
25.9200,2.281
25.9600,2.204
26.0000,2.324
26.0400,2.163
26.0800,2.226
26.1200,2.338
26.1600,2.223
26.2000,2.234
26.2400,2.298
26.2800,2.286
26.3200,2.345
26.3600,2.170
26.4000,2.208
26.4400,2.193
26.4800,2.282
26.5200,2.212
26.5600,2.164
26.6000,2.129
26.6400,2.188
26.6800,2.168
26.7200,2.242
26.7600,2.252
26.8000,2.206
26.8400,2.179
26.8800,2.267
26.9200,2.071
26.9600,2.217
27.0000,2.104
27.0400,2.305
27.0800,2.316
27.1200,2.164
27.1600,2.159
27.2000,2.132
27.2400,2.106
27.2800,2.110
27.3200,2.117
27.3600,2.131
27.4000,2.059
27.4400,2.146
27.4800,2.029
27.5200,2.115
27.5600,2.096
27.6000,2.124
27.6400,2.078
27.6800,1.976
27.7200,2.190
27.7600,2.120
27.8000,1.990
27.8400,2.118
27.8800,2.255
27.9200,2.040
27.9600,2.177
28.0000,2.154
28.0400,2.169
28.0800,2.094
28.1200,2.071
28.1600,2.172
28.2000,2.008
28.2400,1.954
28.2800,1.988
28.3200,2.054
28.3600,2.041
28.4000,2.005
28.4400,2.053
28.4800,2.162
28.5200,2.047
28.5600,2.040
28.6000,1.939
28.6400,2.001
28.6800,2.280
28.7200,1.936
28.7600,2.072
28.8000,1.909
28.8400,1.895
28.8800,2.095
28.9200,2.023
28.9600,2.012
29.0000,2.040
29.0400,1.946
29.0800,1.967
29.1200,2.043
29.1600,1.996
29.2000,2.027
29.2400,1.991
29.2800,1.975
29.3200,2.100
29.3600,1.979
29.4000,1.915
29.4400,1.893
29.4800,1.912
29.5200,2.004
29.5600,1.940
29.6000,2.084
29.6400,1.972
29.6800,1.954
29.7200,1.977
29.7600,2.025
29.8000,1.925
29.8400,1.923
29.8800,2.021
29.9200,1.925
29.9600,1.899
30.0000,1.952
30.0400,1.906
30.0800,1.932
30.1200,1.977
30.1600,1.834
30.2000,1.882
30.2400,1.878
30.2800,1.935
30.3200,1.914
30.3600,1.898
30.4000,1.851
30.4400,1.993
30.4800,1.809
30.5200,1.892
30.5600,1.956
30.6000,1.911
30.6400,1.874
30.6800,1.925
30.7200,1.881
30.7600,1.944
30.8000,1.983
30.8400,1.822
30.8800,1.863
30.9200,1.859
30.9600,2.025
31.0000,1.932
31.0400,1.869
31.0800,1.860
31.1200,1.870
31.1600,1.842
31.2000,1.724
31.2400,1.840
31.2800,1.827
31.3200,1.841
31.3600,1.857
31.4000,1.872
31.4400,1.766
31.4800,1.884
31.5200,1.794
31.5600,1.843
31.6000,1.764
31.6400,1.873
31.6800,1.787
31.7200,1.764
31.7600,1.777
31.8000,1.814
31.8400,1.861
31.8800,1.762
31.9200,1.754
31.9600,1.852
32.0000,1.865
32.0400,1.693
32.0800,1.688
32.1200,1.810
32.1600,1.915
32.2000,1.860
32.2400,1.910
32.2800,1.837
32.3200,1.787
32.3600,1.820
32.4000,1.716
32.4400,1.819
32.4800,1.678
32.5200,1.792
32.5600,1.800
32.6000,1.658
32.6400,1.714
32.6800,1.712
32.7200,1.816
32.7600,1.771
32.8000,1.674
32.8400,1.781
32.8800,1.717
32.9200,1.708
32.9600,1.759
33.0000,1.752
33.0400,1.731
33.0800,1.921
33.1200,1.703
33.1600,1.770
33.2000,1.660
33.2400,1.657
33.2800,1.628
33.3200,1.702
33.3600,1.797
33.4000,1.788
33.4400,1.690
33.4800,1.634
33.5200,1.635
33.5600,1.715
33.6000,1.720
33.6400,1.711
33.6800,1.692
33.7200,1.756
33.7600,1.779
33.8000,1.573
33.8400,1.693
33.8800,1.656
33.9200,1.553
33.9600,1.583
34.0000,1.651
34.0400,1.636
34.0800,1.631
34.1200,1.696
34.1600,1.649
34.2000,1.702
34.2400,1.618
34.2800,1.660
34.3200,1.640
34.3600,1.722
34.4000,1.729
34.4400,1.682
34.4800,1.624
34.5200,1.706
34.5600,1.674
34.6000,1.602
34.6400,1.622
34.6800,1.670
34.7200,1.632
34.7600,1.660
34.8000,1.614
34.8400,1.520
34.8800,1.658
34.9200,1.641
34.9600,1.612
35.0000,1.665
35.0400,1.732
35.0800,1.584
35.1200,1.678
35.1600,1.706
35.2000,1.638
35.2400,1.563
35.2800,1.515
35.3200,1.624
35.3600,1.607
35.4000,1.736
35.4400,1.732
35.4800,1.596
35.5200,1.642
35.5600,1.537
35.6000,1.669
35.6400,1.606
35.6800,1.580
35.7200,1.550
35.7600,1.610
35.8000,1.697
35.8400,1.599
35.8800,1.630
35.9200,1.567
35.9600,1.600
36.0000,1.624
36.0400,1.637
36.0800,1.658
36.1200,1.662
36.1600,1.686
36.2000,1.662
36.2400,1.651
36.2800,1.587
36.3200,1.660
36.3600,1.644
36.4000,1.756
36.4400,1.714
36.4800,1.647
36.5200,1.654
36.5600,1.687
36.6000,1.579
36.6400,1.698
36.6800,1.571
36.7200,1.584
36.7600,1.786
36.8000,1.734
36.8400,1.673
36.8800,1.759
36.9200,1.762
36.9600,1.634
37.0000,1.653
37.0400,1.750
37.0800,1.830
37.1200,1.677
37.1600,1.851
37.2000,1.803
37.2400,1.832
37.2800,1.848
37.3200,1.861
37.3600,1.841
37.4000,1.959
37.4400,1.950
37.4800,2.071
37.5200,2.134
37.5600,2.151
37.6000,2.126
37.6400,2.310
37.6800,2.460
37.7200,2.583
37.7600,2.791
37.8000,3.033
37.8400,3.287
37.8800,3.637
37.9200,4.399
37.9600,5.012
38.0000,6.225
38.0400,7.904
38.0800,11.054
38.1200,15.424
38.1600,23.300
38.2000,30.752
38.2400,34.897
38.2800,34.155
38.3200,29.917
38.3600,24.049
38.4000,17.719
38.4400,12.574
38.4800,9.013
38.5200,6.759
38.5600,5.270
38.6000,4.506
38.6400,3.941
38.6800,3.334
38.7200,3.106
38.7600,2.633
38.8000,2.699
38.8400,2.545
38.8800,2.295
38.9200,2.259
38.9600,2.240
39.0000,2.084
39.0400,1.960
39.0800,1.931
39.1200,1.900
39.1600,1.911
39.2000,1.774
39.2400,1.787
39.2800,1.695
39.3200,1.805
39.3600,1.669
39.4000,1.758
39.4400,1.672
39.4800,1.631
39.5200,1.653
39.5600,1.553
39.6000,1.541
39.6400,1.512
39.6800,1.465
39.7200,1.467
39.7600,1.489
39.8000,1.548
39.8400,1.383
39.8800,1.433
39.9200,1.425
39.9600,1.440
40.0000,1.309
40.0400,1.383
40.0800,1.436
40.1200,1.466
40.1600,1.468
40.2000,1.388
40.2400,1.365
40.2800,1.439
40.3200,1.443
40.3600,1.515
40.4000,1.429
40.4400,1.435
40.4800,1.330
40.5200,1.274
40.5600,1.459
40.6000,1.493
40.6400,1.443
40.6800,1.475
40.7200,1.390
40.7600,1.399
40.8000,1.275
40.8400,1.335
40.8800,1.333
40.9200,1.470
40.9600,1.317
41.0000,1.376
41.0400,1.381
41.0800,1.369
41.1200,1.344
41.1600,1.361
41.2000,1.317
41.2400,1.332
41.2800,1.262
41.3200,1.310
41.3600,1.379
41.4000,1.286
41.4400,1.367
41.4800,1.278
41.5200,1.294
41.5600,1.277
41.6000,1.242
41.6400,1.270
41.6800,1.221
41.7200,1.179
41.7600,1.280
41.8000,1.390
41.8400,1.251
41.8800,1.287
41.9200,1.334
41.9600,1.381
42.0000,1.273
42.0400,1.420
42.0800,1.313
42.1200,1.245
42.1600,1.334
42.2000,1.213
42.2400,1.269
42.2800,1.317
42.3200,1.225
42.3600,1.171
42.4000,1.302
42.4400,1.267
42.4800,1.197
42.5200,1.233
42.5600,1.324
42.6000,1.193
42.6400,1.440
42.6800,1.309
42.7200,1.309
42.7600,1.313
42.8000,1.329
42.8400,1.324
42.8800,1.205
42.9200,1.369
42.9600,1.257
43.0000,1.247
43.0400,1.246
43.0800,1.363
43.1200,1.309
43.1600,1.228
43.2000,1.302
43.2400,1.401
43.2800,1.396
43.3200,1.244
43.3600,1.250
43.4000,1.193
43.4400,1.358
43.4800,1.395
43.5200,1.409
43.5600,1.487
43.6000,1.424
43.6400,1.454
43.6800,1.558
43.7200,1.437
43.7600,1.487
43.8000,1.612
43.8400,1.601
43.8800,1.679
43.9200,1.627
43.9600,1.850
44.0000,2.086
44.0400,2.017
44.0800,2.186
44.1200,2.466
44.1600,2.673
44.2000,3.012
44.2400,3.500
44.2800,3.946
44.3200,4.642
44.3600,5.583
44.4000,6.718
44.4400,6.885
44.4800,7.595
44.5200,7.373
44.5600,6.960
44.6000,6.324
44.6400,5.433
44.6800,4.679
44.7200,3.902
44.7600,3.380
44.8000,2.848
44.8400,2.462
44.8800,2.222
44.9200,1.979
44.9600,1.917
45.0000,1.721
45.0400,1.620
45.0800,1.610
45.1200,1.604
45.1600,1.482
45.2000,1.382
45.2400,1.489
45.2800,1.345
45.3200,1.462
45.3600,1.346
45.4000,1.288
45.4400,1.264
45.4800,1.151
45.5200,1.187
45.5600,1.220
45.6000,1.159
45.6400,1.159
45.6800,1.245
45.7200,1.151
45.7600,1.144
45.8000,1.152
45.8400,1.126
45.8800,1.098
45.9200,1.153
45.9600,1.068
46.0000,1.125
46.0400,1.073
46.0800,1.075
46.1200,1.048
46.1600,1.067
46.2000,1.094
46.2400,1.053
46.2800,1.127
46.3200,0.966
46.3600,1.057
46.4000,0.964
46.4400,1.060
46.4800,1.027
46.5200,1.046
46.5600,1.028
46.6000,1.033
46.6400,1.076
46.6800,1.004
46.7200,0.991
46.7600,0.951
46.8000,0.990
46.8400,0.957
46.8800,1.006
46.9200,0.996
46.9600,0.926
47.0000,0.945
47.0400,1.071
47.0800,1.036
47.1200,0.977
47.1600,1.020
47.2000,1.033
47.2400,0.963
47.2800,0.977
47.3200,1.005
47.3600,0.893
47.4000,1.028
47.4400,1.038
47.4800,0.923
47.5200,0.933
47.5600,0.843
47.6000,0.928
47.6400,0.907
47.6800,1.008
47.7200,0.966
47.7600,0.955
47.8000,0.884
47.8400,0.969
47.8800,0.926
47.9200,0.926
47.9600,0.934
48.0000,0.952
48.0400,0.999
48.0800,0.982
48.1200,0.911
48.1600,0.936
48.2000,0.933
48.2400,0.927
48.2800,0.876
48.3200,0.894
48.3600,0.944
48.4000,0.927
48.4400,0.794
48.4800,0.932
48.5200,0.853
48.5600,0.935
48.6000,0.904
48.6400,0.981
48.6800,0.882
48.7200,0.929
48.7600,0.884
48.8000,0.889
48.8400,0.862
48.8800,0.924
48.9200,1.004
48.9600,0.915
49.0000,0.897
49.0400,0.941
49.0800,0.935
49.1200,0.857
49.1600,0.847
49.2000,0.848
49.2400,0.816
49.2800,0.937
49.3200,0.896
49.3600,0.860
49.4000,0.872
49.4400,0.874
49.4800,0.900
49.5200,0.903
49.5600,0.891
49.6000,0.874
49.6400,0.880
49.6800,0.891
49.7200,0.872
49.7600,0.902
49.8000,0.870
49.8400,0.906
49.8800,0.909
49.9200,0.994
49.9600,0.882
50.0000,0.845
50.0400,0.761
50.0800,0.834
50.1200,0.887
50.1600,0.824
50.2000,0.882
50.2400,0.890
50.2800,0.879
50.3200,0.931
50.3600,0.821
50.4000,0.841
50.4400,0.834
50.4800,0.843
50.5200,0.814
50.5600,0.886
50.6000,0.859
50.6400,0.875
50.6800,0.795
50.7200,0.860
50.7600,0.866
50.8000,0.875
50.8400,0.866
50.8800,0.852
50.9200,0.898
50.9600,0.738
51.0000,0.921
51.0400,0.852
51.0800,0.861
51.1200,0.854
51.1600,0.837
51.2000,0.749
51.2400,0.903
51.2800,0.863
51.3200,0.813
51.3600,0.824
51.4000,0.782
51.4400,0.864
51.4800,0.836
51.5200,0.845
51.5600,0.771
51.6000,0.844
51.6400,0.897
51.6800,0.860
51.7200,0.801
51.7600,0.826
51.8000,0.769
51.8400,0.813
51.8800,0.838
51.9200,0.809
51.9600,0.834
52.0000,0.783
52.0400,0.822
52.0800,0.796
52.1200,0.837
52.1600,0.801
52.2000,0.760
52.2400,0.760
52.2800,0.835
52.3200,0.834
52.3600,0.804
52.4000,0.803
52.4400,0.707
52.4800,0.821
52.5200,0.825
52.5600,0.784
52.6000,0.765
52.6400,0.751
52.6800,0.796
52.7200,0.753
52.7600,0.789
52.8000,0.707
52.8400,0.739
52.8800,0.797
52.9200,0.759
52.9600,0.808
53.0000,0.818
53.0400,0.804
53.0800,0.741
53.1200,0.737
53.1600,0.835
53.2000,0.793
53.2400,0.757
53.2800,0.719
53.3200,0.803
53.3600,0.811
53.4000,0.845
53.4400,0.765
53.4800,0.740
53.5200,0.721
53.5600,0.815
53.6000,0.785
53.6400,0.809
53.6800,0.827
53.7200,0.812
53.7600,0.813
53.8000,0.740
53.8400,0.734
53.8800,0.719
53.9200,0.723
53.9600,0.722
54.0000,0.767
54.0400,0.844
54.0800,0.766
54.1200,0.693
54.1600,0.758
54.2000,0.750
54.2400,0.711
54.2800,0.765
54.3200,0.717
54.3600,0.717
54.4000,0.796
54.4400,0.710
54.4800,0.687
54.5200,0.732
54.5600,0.732
54.6000,0.778
54.6400,0.723
54.6800,0.765
54.7200,0.740
54.7600,0.765
54.8000,0.717
54.8400,0.834
54.8800,0.762
54.9200,0.784
54.9600,0.698
55.0000,0.719
55.0400,0.670
55.0800,0.688
55.1200,0.762
55.1600,0.708
55.2000,0.683
55.2400,0.760
55.2800,0.795
55.3200,0.758
55.3600,0.654
55.4000,0.673
55.4400,0.762
55.4800,0.746
55.5200,0.727
55.5600,0.688
55.6000,0.656
55.6400,0.753
55.6800,0.697
55.7200,0.729
55.7600,0.640
55.8000,0.786
55.8400,0.651
55.8800,0.719
55.9200,0.778
55.9600,0.667
56.0000,0.690
56.0400,0.671
56.0800,0.722
56.1200,0.672
56.1600,0.635
56.2000,0.652
56.2400,0.681
56.2800,0.759
56.3200,0.640
56.3600,0.681
56.4000,0.749
56.4400,0.762
56.4800,0.700
56.5200,0.733
56.5600,0.692
56.6000,0.724
56.6400,0.679
56.6800,0.704
56.7200,0.728
56.7600,0.712
56.8000,0.650
56.8400,0.773
56.8800,0.723
56.9200,0.679
56.9600,0.719
57.0000,0.697
57.0400,0.621
57.0800,0.701
57.1200,0.661
57.1600,0.661
57.2000,0.689
57.2400,0.700
57.2800,0.704
57.3200,0.757
57.3600,0.687
57.4000,0.654
57.4400,0.744
57.4800,0.651
57.5200,0.649
57.5600,0.646
57.6000,0.695
57.6400,0.668
57.6800,0.662
57.7200,0.657
57.7600,0.652
57.8000,0.625
57.8400,0.631
57.8800,0.702
57.9200,0.667
57.9600,0.646
58.0000,0.656
58.0400,0.644
58.0800,0.681
58.1200,0.705
58.1600,0.639
58.2000,0.664
58.2400,0.635
58.2800,0.640
58.3200,0.756
58.3600,0.677
58.4000,0.696
58.4400,0.637
58.4800,0.694
58.5200,0.687
58.5600,0.607
58.6000,0.673
58.6400,0.729
58.6800,0.670
58.7200,0.773
58.7600,0.726
58.8000,0.712
58.8400,0.717
58.8800,0.691
58.9200,0.636
58.9600,0.668
59.0000,0.685
59.0400,0.670
59.0800,0.653
59.1200,0.670
59.1600,0.669
59.2000,0.691
59.2400,0.707
59.2800,0.600
59.3200,0.624
59.3600,0.625
59.4000,0.667
59.4400,0.642
59.4800,0.670
59.5200,0.703
59.5600,0.639
59.6000,0.631
59.6400,0.659
59.6800,0.642
59.7200,0.685
59.7600,0.674
59.8000,0.655
59.8400,0.650
59.8800,0.629
59.9200,0.656
59.9600,0.616
60.0000,0.729
60.0400,0.646
60.0800,0.627
60.1200,0.623
60.1600,0.669
60.2000,0.624
60.2400,0.589
60.2800,0.673
60.3200,0.661
60.3600,0.604
60.4000,0.661
60.4400,0.592
60.4800,0.606
60.5200,0.639
60.5600,0.641
60.6000,0.699
60.6400,0.569
60.6800,0.607
60.7200,0.651
60.7600,0.681
60.8000,0.631
60.8400,0.624
60.8800,0.635
60.9200,0.570
60.9600,0.675
61.0000,0.692
61.0400,0.565
61.0800,0.601
61.1200,0.593
61.1600,0.603
61.2000,0.695
61.2400,0.627
61.2800,0.631
61.3200,0.588
61.3600,0.585
61.4000,0.633
61.4400,0.609
61.4800,0.565
61.5200,0.585
61.5600,0.613
61.6000,0.614
61.6400,0.726
61.6800,0.733
61.7200,0.646
61.7600,0.631
61.8000,0.487
61.8400,0.622
61.8800,0.584
61.9200,0.617
61.9600,0.638
62.0000,0.651
62.0400,0.643
62.0800,0.593
62.1200,0.570
62.1600,0.579
62.2000,0.666
62.2400,0.581
62.2800,0.650
62.3200,0.647
62.3600,0.664
62.4000,0.609
62.4400,0.612
62.4800,0.612
62.5200,0.668
62.5600,0.597
62.6000,0.624
62.6400,0.644
62.6800,0.604
62.7200,0.641
62.7600,0.613
62.8000,0.653
62.8400,0.651
62.8800,0.624
62.9200,0.666
62.9600,0.624
63.0000,0.537
63.0400,0.668
63.0800,0.679
63.1200,0.631
63.1600,0.627
63.2000,0.637
63.2400,0.682
63.2800,0.764
63.3200,0.698
63.3600,0.674
63.4000,0.636
63.4400,0.720
63.4800,0.675
63.5200,0.671
63.5600,0.658
63.6000,0.706
63.6400,0.715
63.6800,0.738
63.7200,0.661
63.7600,0.703
63.8000,0.762
63.8400,0.728
63.8800,0.745
63.9200,0.787
63.9600,0.757
64.0000,0.782
64.0400,0.896
64.0800,0.930
64.1200,0.886
64.1600,0.936
64.2000,0.943
64.2400,0.995
64.2800,1.084
64.3200,1.205
64.3600,1.374
64.4000,1.507
64.4400,1.836
64.4800,2.137
64.5200,2.559
64.5600,3.120
64.6000,3.665
64.6400,4.150
64.6800,4.251
64.7200,4.287
64.7600,3.731
64.8000,3.569
64.8400,3.279
64.8800,2.977
64.9200,2.649
64.9600,2.069
65.0000,1.746
65.0400,1.592
65.0800,1.466
65.1200,1.276
65.1600,1.182
65.2000,1.146
65.2400,0.988
65.2800,0.928
65.3200,0.925
65.3600,0.944
65.4000,0.884
65.4400,0.942
65.4800,0.822
65.5200,0.796
65.5600,0.812
65.6000,0.929
65.6400,0.759
65.6800,0.895
65.7200,0.840
65.7600,0.823
65.8000,0.824
65.8400,0.777
65.8800,0.824
65.9200,0.741
65.9600,0.811
66.0000,0.805
66.0400,0.807
66.0800,0.863
66.1200,0.856
66.1600,0.822
66.2000,0.891
66.2400,0.837
66.2800,0.814
66.3200,0.796
66.3600,0.905
66.4000,0.828
66.4400,0.845
66.4800,0.840
66.5200,0.921
66.5600,0.848
66.6000,0.927
66.6400,0.829
66.6800,0.936
66.7200,0.934
66.7600,0.952
66.8000,0.936
66.8400,0.872
66.8800,0.895
66.9200,0.988
66.9600,0.976
67.0000,0.967
67.0400,0.971
67.0800,1.027
67.1200,1.040
67.1600,1.072
67.2000,1.003
67.2400,0.980
67.2800,1.064
67.3200,1.099
67.3600,1.069
67.4000,1.152
67.4400,1.138
67.4800,1.245
67.5200,1.209
67.5600,1.170
67.6000,1.235
67.6400,1.324
67.6800,1.291
67.7200,1.321
67.7600,1.301
67.8000,1.317
67.8400,1.400
67.8800,1.452
67.9200,1.361
67.9600,1.510
68.0000,1.537
68.0400,1.561
68.0800,1.566
68.1200,1.652
68.1600,1.714
68.2000,1.765
68.2400,1.777
68.2800,1.705
68.3200,1.891
68.3600,1.894
68.4000,1.882
68.4400,2.197
68.4800,2.257
68.5200,2.367
68.5600,2.453
68.6000,2.530
68.6400,2.584
68.6800,3.121
68.7200,3.829
68.7600,4.871
68.8000,5.791
68.8400,6.584
68.8800,6.503
68.9200,6.985
68.9600,8.620
69.0000,12.326
69.0400,21.940
69.0800,61.743
69.1200,277.468
69.1600,443.738
69.2000,229.936
69.2400,59.733
69.2800,52.741
69.3200,156.667
69.3600,224.214
69.4000,112.140
69.4400,28.608
69.4800,12.691
69.5200,8.300
69.5600,6.346
69.6000,5.253
69.6400,4.340
69.6800,3.874
69.7200,3.586
69.7600,3.278
69.8000,2.933
69.8400,2.840
69.8800,2.562
69.9200,2.465
69.9600,2.378
70.0000,2.134
70.0400,2.249
70.0800,2.106
70.1200,2.033
70.1600,1.891
70.2000,1.918
70.2400,1.794
70.2800,1.857
70.3200,1.693
70.3600,1.678
70.4000,1.587
70.4400,1.546
70.4800,1.543
70.5200,1.469
70.5600,1.384
70.6000,1.409
70.6400,1.353
70.6800,1.399
70.7200,1.348
70.7600,1.261
70.8000,1.111
70.8400,1.192
70.8800,1.190
70.9200,1.155
70.9600,1.035
71.0000,1.020
71.0400,1.082
71.0800,1.070
71.1200,1.028
71.1600,1.055
71.2000,0.927
71.2400,1.053
71.2800,0.984
71.3200,0.887
71.3600,0.894
71.4000,0.872
71.4400,0.863
71.4800,0.868
71.5200,0.838
71.5600,0.973
71.6000,0.906
71.6400,0.836
71.6800,0.715
71.7200,0.844
71.7600,0.813
71.8000,0.833
71.8400,0.730
71.8800,0.774
71.9200,0.766
71.9600,0.725
72.0000,0.708
72.0400,0.712
72.0800,0.711
72.1200,0.654
72.1600,0.685
72.2000,0.629
72.2400,0.701
72.2800,0.691
72.3200,0.683
72.3600,0.671
72.4000,0.637
72.4400,0.588
72.4800,0.625
72.5200,0.603
72.5600,0.574
72.6000,0.639
72.6400,0.604
72.6800,0.600
72.7200,0.639
72.7600,0.666
72.8000,0.608
72.8400,0.522
72.8800,0.497
72.9200,0.519
72.9600,0.502
73.0000,0.551
73.0400,0.576
73.0800,0.606
73.1200,0.513
73.1600,0.606
73.2000,0.534
73.2400,0.509
73.2800,0.568
73.3200,0.523
73.3600,0.606
73.4000,0.515
73.4400,0.578
73.4800,0.563
73.5200,0.487
73.5600,0.513
73.6000,0.513
73.6400,0.507
73.6800,0.474
73.7200,0.521
73.7600,0.507
73.8000,0.516
73.8400,0.526
73.8800,0.553
73.9200,0.617
73.9600,0.543
74.0000,0.549
74.0400,0.490
74.0800,0.514
74.1200,0.500
74.1600,0.548
74.2000,0.507
74.2400,0.460
74.2800,0.496
74.3200,0.521
74.3600,0.444
74.4000,0.438
74.4400,0.498
74.4800,0.417
74.5200,0.465
74.5600,0.459
74.6000,0.454
74.6400,0.508
74.6800,0.496
74.7200,0.470
74.7600,0.461
74.8000,0.475
74.8400,0.457
74.8800,0.493
74.9200,0.516
74.9600,0.422
75.0000,0.475
75.0400,0.429
75.0800,0.414
75.1200,0.496
75.1600,0.438
75.2000,0.461
75.2400,0.482
75.2800,0.465
75.3200,0.412
75.3600,0.449
75.4000,0.444
75.4400,0.504
75.4800,0.468
75.5200,0.447
75.5600,0.508
75.6000,0.466
75.6400,0.480
75.6800,0.436
75.7200,0.461
75.7600,0.443
75.8000,0.460
75.8400,0.473
75.8800,0.463
75.9200,0.456
75.9600,0.470
76.0000,0.467
76.0400,0.478
76.0800,0.453
76.1200,0.453
76.1600,0.447
76.2000,0.482
76.2400,0.461
76.2800,0.470
76.3200,0.461
76.3600,0.478
76.4000,0.476
76.4400,0.458
76.4800,0.506
76.5200,0.529
76.5600,0.565
76.6000,0.467
76.6400,0.464
76.6800,0.507
76.7200,0.491
76.7600,0.542
76.8000,0.498
76.8400,0.540
76.8800,0.569
76.9200,0.591
76.9600,0.584
77.0000,0.601
77.0400,0.594
77.0800,0.628
77.1200,0.613
77.1600,0.614
77.2000,0.730
77.2400,0.889
77.2800,0.897
77.3200,0.953
77.3600,1.223
77.4000,1.294
77.4400,1.454
77.4800,1.775
77.5200,2.060
77.5600,2.387
77.6000,2.745
77.6400,3.047
77.6800,3.200
77.7200,3.216
77.7600,2.991
77.8000,2.740
77.8400,2.732
77.8800,2.442
77.9200,2.309
77.9600,2.050
78.0000,1.805
78.0400,1.582
78.0800,1.366
78.1200,1.111
78.1600,0.947
78.2000,0.917
78.2400,0.753
78.2800,0.786
78.3200,0.791
78.3600,0.703
78.4000,0.602
78.4400,0.576
78.4800,0.561
78.5200,0.554
78.5600,0.535
78.6000,0.549
78.6400,0.600
78.6800,0.474
78.7200,0.471
78.7600,0.439
78.8000,0.527
78.8400,0.523
78.8800,0.454
78.9200,0.476
78.9600,0.381
79.0000,0.489
79.0400,0.465
79.0800,0.425
79.1200,0.540
79.1600,0.411
79.2000,0.453
79.2400,0.511
79.2800,0.421
79.3200,0.405
79.3600,0.451
79.4000,0.465
79.4400,0.356
79.4800,0.390
79.5200,0.401
79.5600,0.364
79.6000,0.397
79.6400,0.437
79.6800,0.411
79.7200,0.364
79.7600,0.395
79.8000,0.373
79.8400,0.432
79.8800,0.394
79.9200,0.384
79.9600,0.359
80.0000,0.413
80.0400,0.350
80.0800,0.385
80.1200,0.369
80.1600,0.362
80.2000,0.389
80.2400,0.372
80.2800,0.365
80.3200,0.385
80.3600,0.416
80.4000,0.401
80.4400,0.374
80.4800,0.427
80.5200,0.403
80.5600,0.421
80.6000,0.381
80.6400,0.379
80.6800,0.327
80.7200,0.408
80.7600,0.407
80.8000,0.425
80.8400,0.365
80.8800,0.397
80.9200,0.407
80.9600,0.381
81.0000,0.417
81.0400,0.361
81.0800,0.379
81.1200,0.416
81.1600,0.423
81.2000,0.484
81.2400,0.497
81.2800,0.428
81.3200,0.459
81.3600,0.443
81.4000,0.485
81.4400,0.587
81.4800,0.638
81.5200,0.618
81.5600,0.665
81.6000,0.797
81.6400,0.889
81.6800,1.110
81.7200,1.321
81.7600,1.417
81.8000,1.431
81.8400,1.438
81.8800,1.388
81.9200,1.226
81.9600,1.199
82.0000,1.081
82.0400,1.057
82.0800,0.972
82.1200,0.863
82.1600,0.738
82.2000,0.647
82.2400,0.637
82.2800,0.546
82.3200,0.502
82.3600,0.511
82.4000,0.448
82.4400,0.471
82.4800,0.389
82.5200,0.373
82.5600,0.455
82.6000,0.395
82.6400,0.420
82.6800,0.405
82.7200,0.413
82.7600,0.397
82.8000,0.365
82.8400,0.394
82.8800,0.380
82.9200,0.371
82.9600,0.382
83.0000,0.362
83.0400,0.349
83.0800,0.299
83.1200,0.343
83.1600,0.325
83.2000,0.322
83.2400,0.355
83.2800,0.346
83.3200,0.308
83.3600,0.376
83.4000,0.357
83.4400,0.362
83.4800,0.344
83.5200,0.372
83.5600,0.360
83.6000,0.303
83.6400,0.320
83.6800,0.335
83.7200,0.333
83.7600,0.387
83.8000,0.329
83.8400,0.316
83.8800,0.368
83.9200,0.309
83.9600,0.317
84.0000,0.292
84.0400,0.352
84.0800,0.334
84.1200,0.357
84.1600,0.271
84.2000,0.271
84.2400,0.308
84.2800,0.373
84.3200,0.320
84.3600,0.293
84.4000,0.321
84.4400,0.301
84.4800,0.315
84.5200,0.321
84.5600,0.335
84.6000,0.326
84.6400,0.330
84.6800,0.297
84.7200,0.280
84.7600,0.287
84.8000,0.306
84.8400,0.322
84.8800,0.303
84.9200,0.371
84.9600,0.326
85.0000,0.268
85.0400,0.291
85.0800,0.282
85.1200,0.344
85.1600,0.293
85.2000,0.354
85.2400,0.339
85.2800,0.297
85.3200,0.293
85.3600,0.284
85.4000,0.312
85.4400,0.322
85.4800,0.338
85.5200,0.290
85.5600,0.285
85.6000,0.323
85.6400,0.311
85.6800,0.267
85.7200,0.292
85.7600,0.280
85.8000,0.318
85.8400,0.264
85.8800,0.336
85.9200,0.259
85.9600,0.299
86.0000,0.324
86.0400,0.305
86.0800,0.264
86.1200,0.342
86.1600,0.277
86.2000,0.353
86.2400,0.278
86.2800,0.285
86.3200,0.309
86.3600,0.320
86.4000,0.333
86.4400,0.285
86.4800,0.331
86.5200,0.303
86.5600,0.335
86.6000,0.285
86.6400,0.299
86.6800,0.342
86.7200,0.326
86.7600,0.307
86.8000,0.303
86.8400,0.284
86.8800,0.320
86.9200,0.278
86.9600,0.369
87.0000,0.306
87.0400,0.266
87.0800,0.297
87.1200,0.297
87.1600,0.292
87.2000,0.313
87.2400,0.300
87.2800,0.320
87.3200,0.336
87.3600,0.309
87.4000,0.275
87.4400,0.312
87.4800,0.281
87.5200,0.270
87.5600,0.281
87.6000,0.308
87.6400,0.349
87.6800,0.299
87.7200,0.320
87.7600,0.277
87.8000,0.341
87.8400,0.343
87.8800,0.317
87.9200,0.310
87.9600,0.259
88.0000,0.351
88.0400,0.325
88.0800,0.302
88.1200,0.329
88.1600,0.304
88.2000,0.230
88.2400,0.270
88.2800,0.303
88.3200,0.292
88.3600,0.342
88.4000,0.295
88.4400,0.279
88.4800,0.321
88.5200,0.327
88.5600,0.265
88.6000,0.250
88.6400,0.320
88.6800,0.288
88.7200,0.299
88.7600,0.314
88.8000,0.313
88.8400,0.288
88.8800,0.272
88.9200,0.263
88.9600,0.314
89.0000,0.254
89.0400,0.280
89.0800,0.236
89.1200,0.291
89.1600,0.298
89.2000,0.250
89.2400,0.313
89.2800,0.307
89.3200,0.298
89.3600,0.232
89.4000,0.289
89.4400,0.280
89.4800,0.303
89.5200,0.295
89.5600,0.269
89.6000,0.303
89.6400,0.300
89.6800,0.272
89.7200,0.267
89.7600,0.250
89.8000,0.287
89.8400,0.290
89.8800,0.309
89.9200,0.315
89.9600,0.297
90.0000,0.267
