5.0400,6.482
5.0800,6.123
5.1200,6.301
5.1600,6.212
5.2000,5.890
5.2400,5.914
5.2800,5.839
5.3200,5.888
5.3600,5.736
5.4000,5.415
5.4400,5.652
5.4800,5.291
5.5200,5.401
5.5600,5.390
5.6000,5.257
5.6400,5.022
5.6800,4.966
5.7200,4.828
5.7600,4.768
5.8000,4.692
5.8400,4.797
5.8800,4.568
5.9200,4.724
5.9600,4.396
6.0000,4.574
6.0400,4.204
6.0800,4.353
6.1200,4.480
6.1600,4.134
6.2000,4.317
6.2400,4.447
6.2800,4.327
6.3200,4.462
6.3600,4.249
6.4000,4.323
6.4400,4.158
6.4800,4.105
6.5200,4.097
6.5600,4.286
6.6000,4.339
6.6400,4.134
6.6800,4.304
6.7200,4.140
6.7600,4.242
6.8000,4.090
6.8400,4.185
6.8800,4.215
6.9200,4.117
6.9600,4.152
7.0000,4.230
7.0400,4.122
7.0800,4.058
7.1200,4.127
7.1600,3.956
7.2000,4.082
7.2400,4.335
7.2800,4.288
7.3200,4.055
7.3600,4.001
7.4000,4.089
7.4400,4.032
7.4800,4.058
7.5200,4.161
7.5600,3.975
7.6000,4.087
7.6400,3.963
7.6800,3.976
7.7200,4.023
7.7600,3.969
7.8000,3.897
7.8400,4.154
7.8800,3.984
7.9200,4.008
7.9600,3.946
8.0000,3.994
8.0400,4.104
8.0800,4.064
8.1200,4.082
8.1600,3.990
8.2000,4.061
8.2400,3.873
8.2800,4.106
8.3200,4.060
8.3600,4.056
8.4000,4.007
8.4400,3.987
8.4800,3.828
8.5200,3.907
8.5600,3.913
8.6000,3.860
8.6400,3.860
8.6800,4.058
8.7200,3.973
8.7600,4.007
8.8000,3.892
8.8400,3.961
8.8800,3.899
8.9200,3.889
8.9600,3.919
9.0000,3.812
9.0400,3.747
9.0800,3.902
9.1200,3.813
9.1600,3.825
9.2000,3.752
9.2400,3.962
9.2800,4.047
9.3200,3.773
9.3600,3.748
9.4000,3.986
9.4400,3.898
9.4800,3.728
9.5200,3.628
9.5600,3.839
9.6000,3.800
9.6400,3.851
9.6800,3.921
9.7200,3.822
9.7600,3.814
9.8000,3.843
9.8400,3.824
9.8800,3.917
9.9200,3.839
9.9600,3.940
10.0000,3.666
10.0400,3.731
10.0800,3.895
10.1200,3.874
10.1600,3.854
10.2000,3.750
10.2400,3.721
10.2800,3.850
10.3200,3.778
10.3600,3.658
10.4000,3.802
10.4400,3.749
10.4800,3.752
10.5200,3.806
10.5600,3.604
10.6000,3.809
10.6400,3.722
10.6800,3.688
10.7200,3.622
10.7600,3.645
10.8000,3.715
10.8400,3.737
10.8800,3.709
10.9200,3.672
10.9600,3.767
11.0000,3.834
11.0400,3.894
11.0800,3.585
11.1200,3.500
11.1600,3.625
11.2000,3.660
11.2400,3.779
11.2800,3.630
11.3200,3.678
11.3600,3.651
11.4000,3.627
11.4400,3.523
11.4800,3.676
11.5200,3.657
11.5600,3.663
11.6000,3.575
11.6400,3.759
11.6800,3.659
11.7200,3.719
11.7600,3.686
11.8000,3.691
11.8400,3.484
11.8800,3.455
11.9200,3.560
11.9600,3.470
12.0000,3.582
12.0400,3.553
12.0800,3.538
12.1200,3.670
12.1600,3.666
12.2000,3.703
12.2400,3.543
12.2800,3.421
12.3200,3.485
12.3600,3.494
12.4000,3.465
12.4400,3.679
12.4800,3.502
12.5200,3.508
12.5600,3.634
12.6000,3.536
12.6400,3.485
12.6800,3.489
12.7200,3.381
12.7600,3.336
12.8000,3.430
12.8400,3.477
12.8800,3.629
12.9200,3.520
12.9600,3.543
13.0000,3.421
13.0400,3.289
13.0800,3.436
13.1200,3.611
13.1600,3.346
13.2000,3.617
13.2400,3.434
13.2800,3.461
13.3200,3.516
13.3600,3.459
13.4000,3.393
13.4400,3.537
13.4800,3.353
13.5200,3.488
13.5600,3.436
13.6000,3.563
13.6400,3.484
13.6800,3.472
13.7200,3.419
13.7600,3.425
13.8000,3.430
13.8400,3.304
13.8800,3.493
13.9200,3.495
13.9600,3.286
14.0000,3.455
14.0400,3.658
14.0800,3.452
14.1200,3.378
14.1600,3.441
14.2000,3.531
14.2400,3.476
14.2800,3.483
14.3200,3.442
14.3600,3.513
14.4000,3.462
14.4400,3.232
14.4800,3.242
14.5200,3.350
14.5600,3.292
14.6000,3.218
14.6400,3.474
14.6800,3.320
14.7200,3.454
14.7600,3.447
14.8000,3.331
14.8400,3.454
14.8800,3.412
14.9200,3.503
14.9600,3.216
15.0000,3.348
15.0400,3.238
15.0800,3.204
15.1200,3.278
15.1600,3.288
15.2000,3.483
15.2400,3.252
15.2800,3.271
15.3200,3.324
15.3600,3.302
15.4000,3.396
15.4400,3.227
15.4800,3.282
15.5200,3.194
15.5600,3.265
15.6000,3.245
15.6400,3.123
15.6800,3.198
15.7200,3.071
15.7600,3.212
15.8000,3.188
15.8400,3.086
15.8800,3.185
15.9200,3.171
15.9600,3.169
16.0000,3.210
16.0400,3.263
16.0800,3.128
16.1200,3.111
16.1600,3.227
16.2000,3.048
16.2400,3.083
16.2800,3.197
16.3200,3.224
16.3600,3.175
16.4000,3.095
16.4400,3.180
16.4800,3.262
16.5200,3.208
16.5600,3.095
16.6000,3.247
16.6400,3.107
16.6800,3.188
16.7200,3.294
16.7600,3.076
16.8000,3.122
16.8400,3.139
16.8800,3.263
16.9200,3.075
16.9600,3.089
17.0000,2.931
17.0400,3.102
17.0800,3.005
17.1200,3.061
17.1600,3.210
17.2000,3.094
17.2400,3.046
17.2800,2.976
17.3200,2.984
17.3600,3.191
17.4000,3.144
17.4400,2.989
17.4800,3.054
17.5200,3.060
17.5600,3.042
17.6000,3.136
17.6400,3.069
17.6800,2.991
17.7200,3.004
17.7600,3.171
17.8000,3.122
17.8400,3.254
17.8800,3.107
17.9200,3.119
17.9600,3.118
18.0000,3.073
18.0400,2.918
18.0800,3.087
18.1200,3.136
18.1600,2.996
18.2000,2.823
18.2400,2.892
18.2800,2.888
18.3200,2.889
18.3600,2.963
18.4000,2.961
18.4400,2.857
18.4800,3.067
18.5200,3.048
18.5600,2.935
18.6000,2.832
18.6400,2.948
18.6800,3.018
18.7200,3.003
18.7600,2.886
18.8000,2.941
18.8400,3.116
18.8800,2.997
18.9200,2.984
18.9600,2.926
19.0000,2.900
19.0400,2.910
19.0800,3.019
19.1200,2.864
19.1600,2.941
19.2000,2.993
19.2400,3.088
19.2800,2.991
19.3200,3.083
19.3600,2.878
19.4000,2.921
19.4400,2.869
19.4800,2.858
19.5200,3.062
19.5600,2.889
19.6000,2.782
19.6400,2.841
19.6800,2.861
19.7200,2.757
19.7600,2.845
19.8000,2.676
19.8400,2.896
19.8800,2.766
19.9200,2.962
19.9600,2.938
20.0000,2.837
20.0400,2.824
20.0800,2.819
20.1200,2.857
20.1600,2.985
20.2000,2.718
20.2400,2.839
20.2800,2.762
20.3200,2.854
20.3600,2.833
20.4000,2.673
20.4400,2.874
20.4800,2.790
20.5200,2.689
20.5600,2.888
20.6000,2.823
20.6400,2.855
20.6800,2.678
20.7200,2.789
20.7600,2.798
20.8000,2.708
20.8400,2.810
20.8800,2.591
20.9200,2.720
20.9600,2.693
21.0000,2.646
21.0400,2.958
21.0800,2.688
21.1200,2.698
21.1600,2.798
21.2000,2.692
21.2400,2.719
21.2800,2.787
21.3200,2.622
21.3600,2.742
21.4000,2.715
21.4400,2.674
21.4800,2.575
21.5200,2.539
21.5600,2.636
21.6000,2.571
21.6400,2.745
21.6800,2.738
21.7200,2.613
21.7600,2.722
21.8000,2.638
21.8400,2.548
21.8800,2.579
21.9200,2.683
21.9600,2.772
22.0000,2.571
22.0400,2.613
22.0800,2.668
22.1200,2.584
22.1600,2.643
22.2000,2.626
22.2400,2.598
22.2800,2.601
22.3200,2.781
22.3600,2.491
22.4000,2.751
22.4400,2.653
22.4800,2.758
22.5200,2.606
22.5600,2.721
22.6000,2.446
22.6400,2.634
22.6800,2.512
22.7200,2.610
22.7600,2.807
22.8000,2.614
22.8400,2.543
22.8800,2.551
22.9200,2.543
22.9600,2.436
23.0000,2.619
23.0400,2.570
23.0800,2.531
23.1200,2.620
23.1600,2.417
23.2000,2.574
23.2400,2.414
23.2800,2.573
23.3200,2.673
23.3600,2.678
23.4000,2.535
23.4400,2.569
23.4800,2.627
23.5200,2.538
23.5600,2.582
23.6000,2.597
23.6400,2.529
23.6800,2.465
23.7200,2.656
23.7600,2.529
23.8000,2.448
23.8400,2.433
23.8800,2.491
23.9200,2.525
23.9600,2.495
24.0000,2.560
24.0400,2.404
24.0800,2.461
24.1200,2.415
24.1600,2.325
24.2000,2.478
24.2400,2.359
24.2800,2.504
24.3200,2.337
24.3600,2.384
24.4000,2.395
24.4400,2.379
24.4800,2.450
24.5200,2.419
24.5600,2.380
24.6000,2.502
24.6400,2.371
24.6800,2.415
24.7200,2.432
24.7600,2.331
24.8000,2.353
24.8400,2.401
24.8800,2.387
24.9200,2.480
24.9600,2.401
25.0000,2.348
25.0400,2.403
25.0800,2.250
25.1200,2.283
25.1600,2.360
25.2000,2.376
25.2400,2.294
25.2800,2.354
25.3200,2.421
25.3600,2.405
25.4000,2.297
25.4400,2.405
25.4800,2.306
25.5200,2.278
25.5600,2.446
25.6000,2.356
25.6400,2.204
25.6800,2.285
25.7200,2.444
25.7600,2.337
25.8000,2.269
25.8400,2.265
25.8800,2.277
25.9200,2.243
25.9600,2.311
26.0000,2.339
26.0400,2.303
26.0800,2.184
26.1200,2.204
26.1600,2.245
26.2000,2.190
26.2400,2.244
26.2800,2.306
26.3200,2.354
26.3600,2.218
26.4000,2.326
26.4400,2.169
26.4800,2.235
26.5200,2.215
26.5600,2.218
26.6000,2.363
26.6400,2.325
26.6800,2.258
26.7200,2.210
26.7600,2.231
26.8000,2.172
26.8400,2.202
26.8800,2.237
26.9200,2.248
26.9600,2.180
27.0000,2.186
27.0400,2.197
27.0800,2.248
27.1200,2.230
27.1600,2.211
27.2000,2.240
27.2400,2.211
27.2800,2.227
27.3200,2.132
27.3600,2.205
27.4000,2.172
27.4400,2.273
27.4800,2.128
27.5200,2.208
27.5600,2.146
27.6000,2.130
27.6400,2.053
27.6800,2.040
27.7200,2.251
27.7600,2.145
27.8000,2.096
27.8400,2.069
27.8800,2.248
27.9200,2.183
27.9600,2.117
28.0000,2.251
28.0400,2.127
28.0800,2.215
28.1200,2.099
28.1600,2.163
28.2000,2.125
28.2400,2.186
28.2800,1.994
28.3200,2.118
28.3600,2.160
28.4000,2.198
28.4400,2.232
28.4800,2.123
28.5200,2.034
28.5600,2.074
28.6000,1.995
28.6400,2.112
28.6800,2.181
28.7200,1.997
28.7600,2.139
28.8000,2.205
28.8400,2.243
28.8800,2.096
28.9200,2.069
28.9600,2.003
29.0000,2.181
29.0400,1.977
29.0800,2.054
29.1200,2.091
29.1600,2.038
29.2000,2.165
29.2400,2.133
29.2800,2.204
29.3200,1.987
29.3600,2.048
29.4000,2.161
29.4400,2.095
29.4800,2.149
29.5200,2.040
29.5600,2.171
29.6000,2.060
29.6400,2.023
29.6800,1.968
29.7200,1.938
29.7600,2.028
29.8000,2.011
29.8400,1.917
29.8800,2.074
29.9200,1.932
29.9600,2.046
30.0000,2.046
30.0400,2.003
30.0800,1.948
30.1200,1.952
30.1600,1.922
30.2000,2.002
30.2400,1.950
30.2800,1.945
30.3200,2.009
30.3600,1.860
30.4000,2.002
30.4400,2.014
30.4800,1.924
30.5200,1.985
30.5600,1.914
30.6000,1.985
30.6400,1.928
30.6800,1.899
30.7200,1.857
30.7600,1.950
30.8000,1.859
30.8400,1.996
30.8800,1.890
30.9200,1.875
30.9600,1.940
31.0000,1.844
31.0400,1.941
31.0800,1.921
31.1200,1.860
31.1600,1.916
31.2000,1.961
31.2400,1.898
31.2800,2.055
31.3200,1.856
31.3600,1.879
31.4000,1.950
31.4400,1.929
31.4800,1.975
31.5200,1.894
31.5600,1.925
31.6000,1.963
31.6400,1.756
31.6800,1.922
31.7200,1.927
31.7600,1.820
31.8000,1.878
31.8400,1.951
31.8800,1.834
31.9200,1.863
31.9600,1.968
32.0000,1.934
32.0400,1.836
32.0800,1.831
32.1200,1.941
32.1600,1.899
32.2000,1.880
32.2400,1.982
32.2800,1.801
32.3200,1.933
32.3600,1.752
32.4000,1.783
32.4400,1.908
32.4800,1.901
32.5200,1.938
32.5600,1.726
32.6000,1.875
32.6400,1.878
32.6800,1.926
32.7200,1.723
32.7600,1.784
32.8000,1.803
32.8400,1.840
32.8800,1.874
32.9200,1.750
32.9600,1.801
33.0000,1.863
33.0400,1.843
33.0800,1.763
33.1200,1.829
33.1600,1.859
33.2000,1.843
33.2400,1.771
33.2800,1.878
33.3200,1.789
33.3600,1.817
33.4000,1.804
33.4400,1.768
33.4800,1.824
33.5200,1.815
33.5600,1.864
33.6000,1.796
33.6400,1.728
33.6800,1.776
33.7200,1.764
33.7600,1.718
33.8000,1.799
33.8400,1.712
33.8800,1.681
33.9200,1.705
33.9600,1.874
34.0000,1.719
34.0400,1.700
34.0800,1.762
34.1200,1.777
34.1600,1.658
34.2000,1.728
34.2400,1.698
34.2800,1.733
34.3200,1.639
34.3600,1.749
34.4000,1.786
34.4400,1.749
34.4800,1.730
34.5200,1.694
34.5600,1.733
34.6000,1.681
34.6400,1.721
34.6800,1.674
34.7200,1.644
34.7600,1.632
34.8000,1.760
34.8400,1.837
34.8800,1.631
34.9200,1.696
34.9600,1.735
35.0000,1.683
35.0400,1.701
35.0800,1.658
35.1200,1.685
35.1600,1.649
35.2000,1.661
35.2400,1.758
35.2800,1.649
35.3200,1.652
35.3600,1.690
35.4000,1.723
35.4400,1.773
35.4800,1.713
35.5200,1.780
35.5600,1.768
35.6000,1.807
35.6400,1.598
35.6800,1.639
35.7200,1.725
35.7600,1.780
35.8000,1.720
35.8400,1.876
35.8800,1.743
35.9200,1.801
35.9600,1.799
36.0000,1.666
36.0400,1.841
36.0800,1.799
36.1200,1.819
36.1600,1.750
36.2000,1.827
36.2400,1.775
36.2800,1.811
36.3200,1.720
36.3600,1.858
36.4000,1.689
36.4400,1.819
36.4800,1.847
36.5200,1.689
36.5600,1.699
36.6000,1.669
36.6400,1.927
36.6800,1.808
36.7200,1.802
36.7600,1.865
36.8000,1.830
36.8400,1.815
36.8800,1.796
36.9200,1.675
36.9600,1.922
37.0000,1.917
37.0400,1.819
37.0800,1.822
37.1200,1.951
37.1600,1.832
37.2000,1.972
37.2400,1.895
37.2800,2.032
37.3200,1.935
37.3600,2.046
37.4000,2.192
37.4400,2.145
37.4800,2.203
37.5200,2.317
37.5600,2.555
37.6000,2.565
37.6400,2.549
37.6800,2.673
37.7200,2.937
37.7600,3.187
37.8000,3.469
37.8400,3.701
37.8800,4.429
37.9200,5.097
37.9600,6.365
38.0000,7.763
38.0400,9.994
38.0800,14.050
38.1200,19.126
38.1600,25.452
38.2000,30.205
38.2400,31.631
38.2800,28.706
38.3200,24.107
38.3600,19.057
38.4000,14.237
38.4400,10.716
38.4800,8.149
38.5200,6.436
38.5600,5.279
38.6000,4.648
38.6400,3.982
38.6800,3.576
38.7200,3.281
38.7600,2.989
38.8000,2.810
38.8400,2.493
38.8800,2.614
38.9200,2.349
38.9600,2.308
39.0000,2.352
39.0400,2.094
39.0800,2.219
39.1200,2.081
39.1600,1.950
39.2000,1.939
39.2400,1.859
39.2800,1.819
39.3200,1.829
39.3600,1.778
39.4000,1.733
39.4400,1.709
39.4800,1.736
39.5200,1.732
39.5600,1.712
39.6000,1.661
39.6400,1.645
39.6800,1.597
39.7200,1.646
39.7600,1.652
39.8000,1.530
39.8400,1.525
39.8800,1.596
39.9200,1.429
39.9600,1.470
40.0000,1.550
40.0400,1.565
40.0800,1.555
40.1200,1.498
40.1600,1.523
40.2000,1.519
40.2400,1.532
40.2800,1.567
40.3200,1.501
40.3600,1.610
40.4000,1.387
40.4400,1.467
40.4800,1.388
40.5200,1.538
40.5600,1.579
40.6000,1.544
40.6400,1.523
40.6800,1.511
40.7200,1.449
40.7600,1.536
40.8000,1.507
40.8400,1.521
40.8800,1.458
40.9200,1.389
40.9600,1.451
41.0000,1.351
41.0400,1.410
41.0800,1.366
41.1200,1.448
41.1600,1.306
41.2000,1.387
41.2400,1.413
41.2800,1.459
41.3200,1.420
41.3600,1.367
41.4000,1.412
41.4400,1.393
41.4800,1.447
41.5200,1.329
41.5600,1.394
41.6000,1.354
41.6400,1.424
41.6800,1.443
41.7200,1.332
41.7600,1.419
41.8000,1.414
41.8400,1.328
41.8800,1.285
41.9200,1.344
41.9600,1.413
42.0000,1.433
42.0400,1.475
42.0800,1.306
42.1200,1.412
42.1600,1.332
42.2000,1.414
42.2400,1.324
42.2800,1.394
42.3200,1.408
42.3600,1.433
42.4000,1.287
42.4400,1.425
42.4800,1.395
42.5200,1.453
42.5600,1.400
42.6000,1.438
42.6400,1.445
42.6800,1.358
42.7200,1.315
42.7600,1.349
42.8000,1.247
42.8400,1.267
42.8800,1.327
42.9200,1.316
42.9600,1.406
43.0000,1.458
43.0400,1.393
43.0800,1.356
43.1200,1.356
43.1600,1.422
43.2000,1.453
43.2400,1.562
43.2800,1.502
43.3200,1.529
43.3600,1.404
43.4000,1.458
43.4400,1.400
43.4800,1.476
43.5200,1.543
43.5600,1.504
43.6000,1.609
43.6400,1.564
43.6800,1.707
43.7200,1.642
43.7600,1.811
43.8000,1.863
43.8400,1.856
43.8800,1.993
43.9200,2.132
43.9600,2.160
44.0000,2.408
44.0400,2.613
44.0800,2.739
44.1200,2.962
44.1600,3.590
44.2000,3.894
44.2400,4.530
44.2800,5.312
44.3200,6.140
44.3600,6.888
44.4000,7.366
44.4400,7.620
44.4800,7.706
44.5200,7.207
44.5600,6.517
44.6000,5.662
44.6400,4.882
44.6800,4.206
44.7200,3.633
44.7600,3.309
44.8000,2.793
44.8400,2.640
44.8800,2.250
44.9200,2.073
44.9600,2.130
45.0000,1.855
45.0400,1.778
45.0800,1.691
45.1200,1.602
45.1600,1.543
45.2000,1.392
45.2400,1.447
45.2800,1.475
45.3200,1.498
45.3600,1.361
45.4000,1.415
45.4400,1.405
45.4800,1.318
45.5200,1.410
45.5600,1.360
45.6000,1.326
45.6400,1.198
45.6800,1.247
45.7200,1.254
45.7600,1.272
45.8000,1.212
45.8400,1.229
45.8800,1.194
45.9200,1.160
45.9600,1.124
46.0000,1.258
46.0400,1.189
46.0800,1.093
46.1200,1.084
46.1600,1.158
46.2000,1.140
46.2400,1.113
46.2800,1.117
46.3200,1.126
46.3600,1.190
46.4000,1.122
46.4400,1.112
46.4800,1.138
46.5200,1.102
46.5600,1.116
46.6000,1.029
46.6400,1.094
46.6800,1.148
46.7200,1.130
46.7600,1.071
46.8000,1.034
46.8400,1.145
46.8800,1.093
46.9200,0.961
46.9600,1.055
47.0000,0.987
47.0400,0.945
47.0800,0.966
47.1200,1.064
47.1600,1.095
47.2000,1.066
47.2400,1.134
47.2800,1.155
47.3200,1.026
47.3600,1.063
47.4000,1.057
47.4400,1.068
47.4800,1.080
47.5200,1.035
47.5600,0.932
47.6000,1.022
47.6400,1.031
47.6800,1.004
47.7200,1.065
47.7600,1.073
47.8000,1.103
47.8400,1.033
47.8800,1.026
47.9200,0.965
47.9600,1.031
48.0000,1.004
48.0400,0.966
48.0800,0.986
48.1200,0.996
48.1600,0.963
48.2000,0.934
48.2400,0.955
48.2800,0.941
48.3200,1.021
48.3600,1.063
48.4000,1.003
48.4400,0.997
48.4800,0.993
48.5200,1.060
48.5600,0.948
48.6000,0.986
48.6400,0.999
48.6800,1.052
48.7200,1.041
48.7600,1.019
48.8000,1.007
48.8400,1.008
48.8800,0.925
48.9200,0.966
48.9600,0.921
49.0000,0.951
49.0400,1.029
49.0800,0.996
49.1200,0.963
49.1600,0.992
49.2000,0.935
49.2400,0.932
49.2800,0.879
49.3200,0.969
49.3600,0.887
49.4000,0.886
49.4400,0.929
49.4800,0.974
49.5200,0.920
49.5600,0.883
49.6000,0.943
49.6400,0.939
49.6800,0.875
49.7200,0.916
49.7600,0.932
49.8000,0.986
49.8400,0.988
49.8800,0.918
49.9200,0.943
49.9600,0.930
50.0000,0.978
50.0400,0.978
50.0800,0.933
50.1200,0.947
50.1600,1.006
50.2000,0.937
50.2400,0.925
50.2800,0.876
50.3200,0.908
50.3600,0.938
50.4000,0.970
50.4400,0.925
50.4800,0.954
50.5200,0.963
50.5600,0.891
50.6000,0.935
50.6400,0.908
50.6800,0.838
50.7200,0.981
50.7600,0.950
50.8000,0.873
50.8400,0.858
50.8800,1.019
50.9200,0.924
50.9600,0.898
51.0000,0.924
51.0400,0.948
51.0800,0.895
51.1200,0.940
51.1600,0.894
51.2000,0.901
51.2400,0.948
51.2800,0.888
51.3200,0.855
51.3600,0.837
51.4000,0.903
51.4400,0.919
51.4800,0.869
51.5200,0.877
51.5600,0.896
51.6000,0.864
51.6400,0.882
51.6800,0.839
51.7200,0.876
51.7600,0.827
51.8000,0.920
51.8400,0.885
51.8800,0.908
51.9200,0.894
51.9600,0.849
52.0000,0.884
52.0400,0.917
52.0800,0.956
52.1200,0.867
52.1600,0.868
52.2000,0.866
52.2400,0.859
52.2800,0.878
52.3200,0.980
52.3600,0.795
52.4000,0.772
52.4400,0.868
52.4800,0.830
52.5200,0.910
52.5600,0.792
52.6000,0.847
52.6400,0.886
52.6800,0.866
52.7200,0.898
52.7600,0.876
52.8000,0.868
52.8400,0.761
52.8800,0.873
52.9200,0.917
52.9600,0.802
53.0000,0.876
53.0400,0.807
53.0800,0.858
53.1200,0.896
53.1600,0.867
53.2000,0.907
53.2400,0.825
53.2800,0.787
53.3200,0.794
53.3600,0.810
53.4000,0.877
53.4400,0.793
53.4800,0.823
53.5200,0.800
53.5600,0.819
53.6000,0.770
53.6400,0.883
53.6800,0.795
53.7200,0.848
53.7600,0.830
53.8000,0.801
53.8400,0.865
53.8800,0.894
53.9200,0.775
53.9600,0.804
54.0000,0.805
54.0400,0.779
54.0800,0.786
54.1200,0.893
54.1600,0.826
54.2000,0.814
54.2400,0.842
54.2800,0.818
54.3200,0.819
54.3600,0.853
54.4000,0.719
54.4400,0.759
54.4800,0.882
54.5200,0.868
54.5600,0.836
54.6000,0.755
54.6400,0.869
54.6800,0.818
54.7200,0.816
54.7600,0.795
54.8000,0.830
54.8400,0.883
54.8800,0.792
54.9200,0.797
54.9600,0.861
55.0000,0.803
55.0400,0.817
55.0800,0.824
55.1200,0.836
55.1600,0.788
55.2000,0.760
55.2400,0.816
55.2800,0.764
55.3200,0.824
55.3600,0.804
55.4000,0.844
55.4400,0.799
55.4800,0.807
55.5200,0.751
55.5600,0.745
55.6000,0.751
55.6400,0.800
55.6800,0.770
55.7200,0.769
55.7600,0.785
55.8000,0.720
55.8400,0.744
55.8800,0.756
55.9200,0.732
55.9600,0.795
56.0000,0.829
56.0400,0.818
56.0800,0.736
56.1200,0.709
56.1600,0.749
56.2000,0.829
56.2400,0.759
56.2800,0.760
56.3200,0.781
56.3600,0.769
56.4000,0.759
56.4400,0.767
56.4800,0.796
56.5200,0.764
56.5600,0.743
56.6000,0.751
56.6400,0.731
56.6800,0.778
56.7200,0.802
56.7600,0.750
56.8000,0.720
56.8400,0.760
56.8800,0.793
56.9200,0.800
56.9600,0.737
57.0000,0.807
57.0400,0.787
57.0800,0.784
57.1200,0.692
57.1600,0.702
57.2000,0.739
57.2400,0.750
57.2800,0.781
57.3200,0.757
57.3600,0.739
57.4000,0.716
57.4400,0.791
57.4800,0.748
57.5200,0.716
57.5600,0.696
57.6000,0.737
57.6400,0.788
57.6800,0.779
57.7200,0.793
57.7600,0.757
57.8000,0.785
57.8400,0.850
57.8800,0.681
57.9200,0.625
57.9600,0.785
58.0000,0.751
58.0400,0.736
58.0800,0.755
58.1200,0.744
58.1600,0.778
58.2000,0.796
58.2400,0.787
58.2800,0.655
58.3200,0.793
58.3600,0.758
58.4000,0.730
58.4400,0.709
58.4800,0.740
58.5200,0.827
58.5600,0.833
58.6000,0.732
58.6400,0.734
58.6800,0.754
58.7200,0.788
58.7600,0.787
58.8000,0.727
58.8400,0.758
58.8800,0.710
58.9200,0.714
58.9600,0.724
59.0000,0.747
59.0400,0.803
59.0800,0.680
59.1200,0.751
59.1600,0.711
59.2000,0.712
59.2400,0.738
59.2800,0.759
59.3200,0.709
59.3600,0.727
59.4000,0.763
59.4400,0.724
59.4800,0.778
59.5200,0.740
59.5600,0.790
59.6000,0.818
59.6400,0.721
59.6800,0.733
59.7200,0.718
59.7600,0.718
59.8000,0.712
59.8400,0.712
59.8800,0.743
59.9200,0.783
59.9600,0.718
60.0000,0.784
60.0400,0.769
60.0800,0.759
60.1200,0.738
60.1600,0.720
60.2000,0.669
60.2400,0.656
60.2800,0.717
60.3200,0.731
60.3600,0.714
60.4000,0.749
60.4400,0.764
60.4800,0.751
60.5200,0.745
60.5600,0.683
60.6000,0.732
60.6400,0.681
60.6800,0.724
60.7200,0.697
60.7600,0.709
60.8000,0.775
60.8400,0.666
60.8800,0.685
60.9200,0.690
60.9600,0.645
61.0000,0.732
61.0400,0.656
61.0800,0.734
61.1200,0.697
61.1600,0.667
61.2000,0.725
61.2400,0.727
61.2800,0.714
61.3200,0.721
61.3600,0.692
61.4000,0.724
61.4400,0.664
61.4800,0.708
61.5200,0.662
61.5600,0.713
61.6000,0.692
61.6400,0.781
61.6800,0.819
61.7200,0.669
61.7600,0.727
61.8000,0.680
61.8400,0.700
61.8800,0.771
61.9200,0.663
61.9600,0.642
62.0000,0.669
62.0400,0.778
62.0800,0.759
62.1200,0.662
62.1600,0.666
62.2000,0.703
62.2400,0.665
62.2800,0.720
62.3200,0.662
62.3600,0.692
62.4000,0.598
62.4400,0.681
62.4800,0.696
62.5200,0.674
62.5600,0.728
62.6000,0.668
62.6400,0.726
62.6800,0.676
62.7200,0.671
62.7600,0.640
62.8000,0.715
62.8400,0.712
62.8800,0.710
62.9200,0.653
62.9600,0.669
63.0000,0.676
63.0400,0.696
63.0800,0.728
63.1200,0.783
63.1600,0.750
63.2000,0.709
63.2400,0.741
63.2800,0.678
63.3200,0.732
63.3600,0.668
63.4000,0.748
63.4400,0.762
63.4800,0.701
63.5200,0.790
63.5600,0.792
63.6000,0.818
63.6400,0.771
63.6800,0.775
63.7200,0.845
63.7600,0.845
63.8000,0.831
63.8400,0.923
63.8800,0.893
63.9200,0.888
63.9600,0.862
64.0000,0.935
64.0400,0.983
64.0800,1.037
64.1200,1.159
64.1600,1.087
64.2000,1.128
64.2400,1.318
64.2800,1.352
64.3200,1.463
64.3600,1.746
64.4000,1.971
64.4400,2.283
64.4800,2.608
64.5200,3.205
64.5600,3.751
64.6000,4.173
64.6400,4.251
64.6800,4.201
64.7200,4.174
64.7600,3.822
64.8000,3.645
64.8400,2.950
64.8800,2.750
64.9200,2.343
64.9600,2.012
65.0000,1.931
65.0400,1.602
65.0800,1.418
65.1200,1.378
65.1600,1.230
65.2000,1.124
65.2400,1.180
65.2800,1.071
65.3200,1.019
65.3600,1.043
65.4000,0.939
65.4400,0.949
65.4800,0.947
65.5200,0.978
65.5600,0.910
65.6000,1.001
65.6400,0.897
65.6800,0.824
65.7200,0.909
65.7600,0.834
65.8000,0.856
65.8400,0.784
65.8800,0.870
65.9200,0.948
65.9600,0.898
66.0000,0.848
66.0400,0.867
66.0800,0.925
66.1200,0.898
66.1600,0.896
66.2000,0.860
66.2400,0.907
66.2800,0.873
66.3200,0.837
66.3600,0.821
66.4000,0.899
66.4400,0.893
66.4800,0.952
66.5200,0.861
66.5600,0.924
66.6000,0.986
66.6400,0.973
66.6800,0.875
66.7200,0.960
66.7600,0.954
66.8000,0.985
66.8400,0.912
66.8800,0.980
66.9200,0.970
66.9600,0.977
67.0000,0.992
67.0400,0.980
67.0800,1.103
67.1200,1.048
67.1600,1.113
67.2000,1.120
67.2400,1.057
67.2800,1.009
67.3200,1.130
67.3600,1.084
67.4000,1.196
67.4400,1.211
67.4800,1.259
67.5200,1.168
67.5600,1.142
67.6000,1.230
67.6400,1.294
67.6800,1.328
67.7200,1.299
67.7600,1.330
67.8000,1.402
67.8400,1.404
67.8800,1.388
67.9200,1.453
67.9600,1.417
68.0000,1.450
68.0400,1.711
68.0800,1.496
68.1200,1.699
68.1600,1.640
68.2000,1.691
68.2400,1.843
68.2800,1.702
68.3200,1.901
68.3600,1.898
68.4000,2.008
68.4400,2.172
68.4800,2.087
68.5200,2.148
68.5600,2.368
68.6000,2.700
68.6400,2.608
68.6800,2.943
68.7200,3.938
68.7600,4.861
68.8000,5.803
68.8400,6.363
68.8800,6.573
68.9200,7.003
68.9600,9.174
69.0000,13.674
69.0400,25.910
69.0800,86.961
69.1200,323.156
69.1600,383.769
69.2000,147.503
69.2400,46.752
69.2800,64.067
69.3200,175.259
69.3600,191.251
69.4000,72.796
69.4400,20.463
69.4800,11.080
69.5200,7.652
69.5600,5.742
69.6000,4.900
69.6400,4.155
69.6800,3.668
69.7200,3.244
69.7600,3.199
69.8000,2.850
69.8400,2.607
69.8800,2.592
69.9200,2.375
69.9600,2.366
70.0000,2.219
70.0400,2.120
70.0800,1.842
70.1200,1.917
70.1600,1.909
70.2000,1.688
70.2400,1.701
70.2800,1.673
70.3200,1.631
70.3600,1.563
70.4000,1.566
70.4400,1.591
70.4800,1.457
70.5200,1.441
70.5600,1.359
70.6000,1.467
70.6400,1.377
70.6800,1.302
70.7200,1.299
70.7600,1.224
70.8000,1.183
70.8400,1.236
70.8800,1.189
70.9200,1.088
70.9600,1.130
71.0000,1.113
71.0400,1.144
71.0800,1.099
71.1200,0.977
71.1600,1.010
71.2000,1.069
71.2400,0.946
71.2800,1.035
71.3200,0.930
71.3600,0.962
71.4000,0.931
71.4400,0.835
71.4800,0.984
71.5200,0.933
71.5600,0.965
71.6000,0.945
71.6400,0.886
71.6800,0.895
71.7200,0.813
71.7600,0.769
71.8000,0.758
71.8400,0.805
71.8800,0.805
71.9200,0.806
71.9600,0.756
72.0000,0.733
72.0400,0.797
72.0800,0.785
72.1200,0.722
72.1600,0.776
72.2000,0.727
72.2400,0.777
72.2800,0.706
72.3200,0.699
72.3600,0.731
72.4000,0.596
72.4400,0.587
72.4800,0.678
72.5200,0.704
72.5600,0.595
72.6000,0.682
72.6400,0.645
72.6800,0.689
72.7200,0.655
72.7600,0.668
72.8000,0.637
72.8400,0.574
72.8800,0.642
72.9200,0.729
72.9600,0.569
73.0000,0.531
73.0400,0.611
73.0800,0.555
73.1200,0.638
73.1600,0.665
73.2000,0.578
73.2400,0.639
73.2800,0.601
73.3200,0.586
73.3600,0.640
73.4000,0.584
73.4400,0.601
73.4800,0.611
73.5200,0.657
73.5600,0.561
73.6000,0.549
73.6400,0.582
73.6800,0.574
73.7200,0.494
73.7600,0.599
73.8000,0.554
73.8400,0.536
73.8800,0.567
73.9200,0.527
73.9600,0.514
74.0000,0.576
74.0400,0.563
74.0800,0.558
74.1200,0.544
74.1600,0.536
74.2000,0.596
74.2400,0.503
74.2800,0.551
74.3200,0.548
74.3600,0.512
74.4000,0.534
74.4400,0.566
74.4800,0.531
74.5200,0.598
74.5600,0.556
74.6000,0.598
74.6400,0.549
74.6800,0.439
74.7200,0.520
74.7600,0.490
74.8000,0.511
74.8400,0.586
74.8800,0.500
74.9200,0.534
74.9600,0.559
75.0000,0.544
75.0400,0.549
75.0800,0.545
75.1200,0.524
75.1600,0.575
75.2000,0.500
75.2400,0.573
75.2800,0.561
75.3200,0.482
75.3600,0.576
75.4000,0.551
75.4400,0.547
75.4800,0.508
75.5200,0.496
75.5600,0.498
75.6000,0.457
75.6400,0.543
75.6800,0.485
75.7200,0.601
75.7600,0.570
75.8000,0.497
75.8400,0.545
75.8800,0.536
75.9200,0.554
75.9600,0.602
76.0000,0.499
76.0400,0.533
76.0800,0.536
76.1200,0.488
76.1600,0.530
76.2000,0.562
76.2400,0.534
76.2800,0.563
76.3200,0.565
76.3600,0.553
76.4000,0.549
76.4400,0.516
76.4800,0.631
76.5200,0.628
76.5600,0.584
76.6000,0.556
76.6400,0.607
76.6800,0.586
76.7200,0.602
76.7600,0.666
76.8000,0.634
76.8400,0.651
76.8800,0.668
76.9200,0.693
76.9600,0.686
77.0000,0.757
77.0400,0.747
77.0800,0.880
77.1200,0.976
77.1600,0.958
77.2000,1.033
77.2400,1.086
77.2800,1.226
77.3200,1.343
77.3600,1.488
77.4000,1.761
77.4400,1.939
77.4800,2.229
77.5200,2.857
77.5600,3.008
77.6000,3.402
77.6400,3.330
77.6800,3.540
77.7200,3.239
77.7600,3.102
77.8000,2.784
77.8400,2.737
77.8800,2.546
77.9200,2.141
77.9600,1.908
78.0000,1.689
78.0400,1.473
78.0800,1.260
78.1200,1.110
78.1600,1.068
78.2000,0.907
78.2400,0.828
78.2800,0.882
78.3200,0.802
78.3600,0.722
78.4000,0.668
78.4400,0.672
78.4800,0.667
78.5200,0.653
78.5600,0.643
78.6000,0.583
78.6400,0.598
78.6800,0.623
78.7200,0.556
78.7600,0.565
78.8000,0.485
78.8400,0.540
78.8800,0.529
78.9200,0.508
78.9600,0.492
79.0000,0.514
79.0400,0.475
79.0800,0.544
79.1200,0.571
79.1600,0.475
79.2000,0.523
79.2400,0.458
79.2800,0.495
79.3200,0.479
79.3600,0.428
79.4000,0.452
79.4400,0.422
79.4800,0.414
79.5200,0.495
79.5600,0.511
79.6000,0.519
79.6400,0.460
79.6800,0.447
79.7200,0.443
79.7600,0.489
79.8000,0.421
79.8400,0.463
79.8800,0.479
79.9200,0.450
79.9600,0.469
80.0000,0.475
80.0400,0.471
80.0800,0.473
80.1200,0.422
80.1600,0.472
80.2000,0.459
80.2400,0.436
80.2800,0.456
80.3200,0.460
80.3600,0.411
80.4000,0.445
80.4400,0.453
80.4800,0.411
80.5200,0.466
80.5600,0.438
80.6000,0.415
80.6400,0.467
80.6800,0.436
80.7200,0.443
80.7600,0.471
80.8000,0.460
80.8400,0.403
80.8800,0.457
80.9200,0.453
80.9600,0.501
81.0000,0.468
81.0400,0.448
81.0800,0.479
81.1200,0.454
81.1600,0.438
81.2000,0.524
81.2400,0.532
81.2800,0.535
81.3200,0.511
81.3600,0.573
81.4000,0.619
81.4400,0.631
81.4800,0.757
81.5200,0.784
81.5600,0.858
81.6000,0.975
81.6400,1.139
81.6800,1.184
81.7200,1.420
81.7600,1.349
81.8000,1.286
81.8400,1.264
81.8800,1.203
81.9200,1.173
81.9600,1.175
82.0000,1.044
82.0400,0.985
82.0800,0.981
82.1200,0.810
82.1600,0.764
82.2000,0.681
82.2400,0.634
82.2800,0.629
82.3200,0.582
82.3600,0.536
82.4000,0.507
82.4400,0.489
82.4800,0.505
82.5200,0.538
82.5600,0.421
82.6000,0.474
82.6400,0.467
82.6800,0.474
82.7200,0.426
82.7600,0.470
82.8000,0.357
82.8400,0.435
82.8800,0.374
82.9200,0.389
82.9600,0.470
83.0000,0.448
83.0400,0.428
83.0800,0.422
83.1200,0.375
83.1600,0.463
83.2000,0.402
83.2400,0.365
83.2800,0.407
83.3200,0.359
83.3600,0.423
83.4000,0.422
83.4400,0.387
83.4800,0.398
83.5200,0.388
83.5600,0.359
83.6000,0.403
83.6400,0.450
83.6800,0.420
83.7200,0.398
83.7600,0.405
83.8000,0.401
83.8400,0.402
83.8800,0.410
83.9200,0.383
83.9600,0.429
84.0000,0.382
84.0400,0.370
84.0800,0.441
84.1200,0.429
84.1600,0.344
84.2000,0.403
84.2400,0.383
84.2800,0.444
84.3200,0.345
84.3600,0.374
84.4000,0.325
84.4400,0.424
84.4800,0.371
84.5200,0.332
84.5600,0.361
84.6000,0.385
84.6400,0.365
84.6800,0.404
84.7200,0.361
84.7600,0.325
84.8000,0.360
84.8400,0.368
84.8800,0.371
84.9200,0.333
84.9600,0.378
85.0000,0.414
85.0400,0.364
85.0800,0.341
85.1200,0.361
85.1600,0.362
85.2000,0.355
85.2400,0.413
85.2800,0.426
85.3200,0.391
85.3600,0.370
85.4000,0.377
85.4400,0.332
85.4800,0.336
85.5200,0.361
85.5600,0.361
85.6000,0.371
85.6400,0.332
85.6800,0.350
85.7200,0.370
85.7600,0.339
85.8000,0.391
85.8400,0.356
85.8800,0.383
85.9200,0.335
85.9600,0.385
86.0000,0.388
86.0400,0.389
86.0800,0.350
86.1200,0.378
86.1600,0.354
86.2000,0.307
86.2400,0.346
86.2800,0.373
86.3200,0.370
86.3600,0.341
86.4000,0.371
86.4400,0.383
86.4800,0.359
86.5200,0.319
86.5600,0.383
86.6000,0.357
86.6400,0.334
86.6800,0.301
86.7200,0.379
86.7600,0.361
86.8000,0.319
86.8400,0.367
86.8800,0.364
86.9200,0.369
86.9600,0.365
87.0000,0.420
87.0400,0.374
87.0800,0.352
87.1200,0.382
87.1600,0.344
87.2000,0.353
87.2400,0.335
87.2800,0.323
87.3200,0.326
87.3600,0.343
87.4000,0.373
87.4400,0.390
87.4800,0.362
87.5200,0.359
87.5600,0.384
87.6000,0.381
87.6400,0.368
87.6800,0.365
87.7200,0.328
87.7600,0.420
87.8000,0.372
87.8400,0.371
87.8800,0.314
87.9200,0.362
87.9600,0.333
88.0000,0.395
88.0400,0.376
88.0800,0.337
88.1200,0.349
88.1600,0.385
88.2000,0.347
88.2400,0.311
88.2800,0.327
88.3200,0.327
88.3600,0.313
88.4000,0.288
88.4400,0.360
88.4800,0.354
88.5200,0.307
88.5600,0.378
88.6000,0.364
88.6400,0.371
88.6800,0.313
88.7200,0.348
88.7600,0.373
88.8000,0.334
88.8400,0.352
88.8800,0.317
88.9200,0.309
88.9600,0.278
89.0000,0.349
89.0400,0.318
89.0800,0.359
89.1200,0.334
89.1600,0.287
89.2000,0.300
89.2400,0.352
89.2800,0.291
89.3200,0.329
89.3600,0.334
89.4000,0.357
89.4400,0.338
89.4800,0.275
89.5200,0.308
89.5600,0.355
89.6000,0.332
89.6400,0.335
89.6800,0.358
89.7200,0.360
89.7600,0.321
89.8000,0.300
89.8400,0.357
89.8800,0.289
89.9200,0.346
89.9600,0.384
90.0000,0.359
