5.0400,6.491
5.0800,6.439
5.1200,6.353
5.1600,6.265
5.2000,6.401
5.2400,5.849
5.2800,5.601
5.3200,5.662
5.3600,5.599
5.4000,5.435
5.4400,5.455
5.4800,5.331
5.5200,5.477
5.5600,5.246
5.6000,5.368
5.6400,5.070
5.6800,4.834
5.7200,4.906
5.7600,5.098
5.8000,4.931
5.8400,4.746
5.8800,4.812
5.9200,4.621
5.9600,4.549
6.0000,4.512
6.0400,4.455
6.0800,4.503
6.1200,4.560
6.1600,4.302
6.2000,4.423
6.2400,4.377
6.2800,4.504
6.3200,4.536
6.3600,4.248
6.4000,4.519
6.4400,4.352
6.4800,4.308
6.5200,4.428
6.5600,4.271
6.6000,4.234
6.6400,4.309
6.6800,4.296
6.7200,4.346
6.7600,4.413
6.8000,4.219
6.8400,4.442
6.8800,4.348
6.9200,4.139
6.9600,4.381
7.0000,4.308
7.0400,4.208
7.0800,4.292
7.1200,4.202
7.1600,4.328
7.2000,4.316
7.2400,4.274
7.2800,4.175
7.3200,4.304
7.3600,4.290
7.4000,4.198
7.4400,4.149
7.4800,4.066
7.5200,4.053
7.5600,4.239
7.6000,4.119
7.6400,4.192
7.6800,4.202
7.7200,4.150
7.7600,4.228
7.8000,4.081
7.8400,3.987
7.8800,4.257
7.9200,4.208
7.9600,4.030
8.0000,4.190
8.0400,4.093
8.0800,4.103
8.1200,4.003
8.1600,4.148
8.2000,4.010
8.2400,4.034
8.2800,3.898
8.3200,4.067
8.3600,4.160
8.4000,4.019
8.4400,4.057
8.4800,4.031
8.5200,4.122
8.5600,3.933
8.6000,3.995
8.6400,4.010
8.6800,3.909
8.7200,4.068
8.7600,3.913
8.8000,3.931
8.8400,3.947
8.8800,4.025
8.9200,3.991
8.9600,3.873
9.0000,3.961
9.0400,4.044
9.0800,3.959
9.1200,4.007
9.1600,3.934
9.2000,3.743
9.2400,3.901
9.2800,4.033
9.3200,4.084
9.3600,3.711
9.4000,3.739
9.4400,3.742
9.4800,3.925
9.5200,3.809
9.5600,3.888
9.6000,3.878
9.6400,3.834
9.6800,3.991
9.7200,3.894
9.7600,3.848
9.8000,3.800
9.8400,3.927
9.8800,3.940
9.9200,3.874
9.9600,3.844
10.0000,3.831
10.0400,3.783
10.0800,3.959
10.1200,3.951
10.1600,3.863
10.2000,3.878
10.2400,3.852
10.2800,3.887
10.3200,3.724
10.3600,4.019
10.4000,3.874
10.4400,3.749
10.4800,3.957
10.5200,3.758
10.5600,4.022
10.6000,3.861
10.6400,3.781
10.6800,3.732
10.7200,3.810
10.7600,3.698
10.8000,3.743
10.8400,3.841
10.8800,3.837
10.9200,4.013
10.9600,3.732
11.0000,3.757
11.0400,3.793
11.0800,3.830
11.1200,3.886
11.1600,3.730
11.2000,3.689
11.2400,3.871
11.2800,3.592
11.3200,3.619
11.3600,3.803
11.4000,3.732
11.4400,3.666
11.4800,3.519
11.5200,3.733
11.5600,3.935
11.6000,3.888
11.6400,3.672
11.6800,3.739
11.7200,3.656
11.7600,3.670
11.8000,3.591
11.8400,3.603
11.8800,3.669
11.9200,3.760
11.9600,3.627
12.0000,3.562
12.0400,3.598
12.0800,3.750
12.1200,3.770
12.1600,3.617
12.2000,3.798
12.2400,3.632
12.2800,3.562
12.3200,3.597
12.3600,3.744
12.4000,3.411
12.4400,3.555
12.4800,3.850
12.5200,3.782
12.5600,3.708
12.6000,3.546
12.6400,3.638
12.6800,3.728
12.7200,3.578
12.7600,3.676
12.8000,3.646
12.8400,3.548
12.8800,3.620
12.9200,3.660
12.9600,3.605
13.0000,3.658
13.0400,3.601
13.0800,3.727
13.1200,3.556
13.1600,3.633
13.2000,3.536
13.2400,3.496
13.2800,3.644
13.3200,3.522
13.3600,3.714
13.4000,3.458
13.4400,3.719
13.4800,3.422
13.5200,3.564
13.5600,3.371
13.6000,3.541
13.6400,3.323
13.6800,3.582
13.7200,3.494
13.7600,3.510
13.8000,3.587
13.8400,3.465
13.8800,3.532
13.9200,3.600
13.9600,3.367
14.0000,3.573
14.0400,3.621
14.0800,3.461
14.1200,3.595
14.1600,3.499
14.2000,3.459
14.2400,3.470
14.2800,3.425
14.3200,3.393
14.3600,3.498
14.4000,3.392
14.4400,3.375
14.4800,3.460
14.5200,3.426
14.5600,3.535
14.6000,3.391
14.6400,3.490
14.6800,3.464
14.7200,3.428
14.7600,3.329
14.8000,3.264
14.8400,3.463
14.8800,3.260
14.9200,3.423
14.9600,3.544
15.0000,3.450
15.0400,3.446
15.0800,3.149
15.1200,3.316
15.1600,3.449
15.2000,3.250
15.2400,3.374
15.2800,3.339
15.3200,3.490
15.3600,3.358
15.4000,3.485
15.4400,3.358
15.4800,3.469
15.5200,3.237
15.5600,3.326
15.6000,3.409
15.6400,3.354
15.6800,3.202
15.7200,3.179
15.7600,3.317
15.8000,3.341
15.8400,3.256
15.8800,3.222
15.9200,3.138
15.9600,3.306
16.0000,3.333
16.0400,3.317
16.0800,3.300
16.1200,3.210
16.1600,3.445
16.2000,3.201
16.2400,3.070
16.2800,3.169
16.3200,3.278
16.3600,3.338
16.4000,3.181
16.4400,3.328
16.4800,3.290
16.5200,3.254
16.5600,3.190
16.6000,3.143
16.6400,3.196
16.6800,3.318
16.7200,3.311
16.7600,3.251
16.8000,3.189
16.8400,3.259
16.8800,3.150
16.9200,3.266
16.9600,3.144
17.0000,3.242
17.0400,3.203
17.0800,3.098
17.1200,3.106
17.1600,3.040
17.2000,3.035
17.2400,3.196
17.2800,3.326
17.3200,3.237
17.3600,3.093
17.4000,3.292
17.4400,3.316
17.4800,3.344
17.5200,3.122
17.5600,3.132
17.6000,3.197
17.6400,3.026
17.6800,3.189
17.7200,3.204
17.7600,3.198
17.8000,3.113
17.8400,3.233
17.8800,3.326
17.9200,3.197
17.9600,3.112
18.0000,3.294
18.0400,3.088
18.0800,2.922
18.1200,3.027
18.1600,3.061
18.2000,3.177
18.2400,3.123
18.2800,3.079
18.3200,3.108
18.3600,3.006
18.4000,3.199
18.4400,3.099
18.4800,2.972
18.5200,2.908
18.5600,2.940
18.6000,3.041
18.6400,3.092
18.6800,3.118
18.7200,3.177
18.7600,2.910
18.8000,3.145
18.8400,3.004
18.8800,2.972
18.9200,3.092
18.9600,3.051
19.0000,2.935
19.0400,2.947
19.0800,2.937
19.1200,2.907
19.1600,2.789
19.2000,3.199
19.2400,2.960
19.2800,2.964
19.3200,2.880
19.3600,2.935
19.4000,2.892
19.4400,3.031
19.4800,2.962
19.5200,2.870
19.5600,2.880
19.6000,2.948
19.6400,2.872
19.6800,2.909
19.7200,3.093
19.7600,2.956
19.8000,2.925
19.8400,2.820
19.8800,2.924
19.9200,2.861
19.9600,3.077
20.0000,3.022
20.0400,3.037
20.0800,2.972
20.1200,2.794
20.1600,2.829
20.2000,2.836
20.2400,2.879
20.2800,2.860
20.3200,2.836
20.3600,2.941
20.4000,2.940
20.4400,2.914
20.4800,2.896
20.5200,2.817
20.5600,2.735
20.6000,2.871
20.6400,2.867
20.6800,2.773
20.7200,2.781
20.7600,2.835
20.8000,2.884
20.8400,2.756
20.8800,2.834
20.9200,2.806
20.9600,2.850
21.0000,2.811
21.0400,2.782
21.0800,2.773
21.1200,2.854
21.1600,2.913
21.2000,2.751
21.2400,2.704
21.2800,2.825
21.3200,2.805
21.3600,2.890
21.4000,2.739
21.4400,2.731
21.4800,2.719
21.5200,2.841
21.5600,2.602
21.6000,2.552
21.6400,2.627
21.6800,2.781
21.7200,2.753
21.7600,2.667
21.8000,2.560
21.8400,2.616
21.8800,2.793
21.9200,2.883
21.9600,2.769
22.0000,2.667
22.0400,2.750
22.0800,2.813
22.1200,2.711
22.1600,2.656
22.2000,2.619
22.2400,2.710
22.2800,2.738
22.3200,2.710
22.3600,2.521
22.4000,2.586
22.4400,2.569
22.4800,2.747
22.5200,2.675
22.5600,2.555
22.6000,2.705
22.6400,2.598
22.6800,2.673
22.7200,2.677
22.7600,2.722
22.8000,2.755
22.8400,2.644
22.8800,2.454
22.9200,2.638
22.9600,2.480
23.0000,2.558
23.0400,2.505
23.0800,2.522
23.1200,2.550
23.1600,2.503
23.2000,2.587
23.2400,2.598
23.2800,2.601
23.3200,2.585
23.3600,2.624
23.4000,2.536
23.4400,2.552
23.4800,2.548
23.5200,2.507
23.5600,2.382
23.6000,2.495
23.6400,2.533
23.6800,2.452
23.7200,2.562
23.7600,2.665
23.8000,2.495
23.8400,2.569
23.8800,2.628
23.9200,2.633
23.9600,2.508
24.0000,2.487
24.0400,2.565
24.0800,2.503
24.1200,2.545
24.1600,2.424
24.2000,2.356
24.2400,2.489
24.2800,2.429
24.3200,2.532
24.3600,2.365
24.4000,2.487
24.4400,2.386
24.4800,2.533
24.5200,2.462
24.5600,2.518
24.6000,2.529
24.6400,2.420
24.6800,2.476
24.7200,2.436
24.7600,2.470
24.8000,2.492
24.8400,2.417
24.8800,2.372
24.9200,2.486
24.9600,2.406
25.0000,2.437
25.0400,2.415
25.0800,2.303
25.1200,2.477
25.1600,2.352
25.2000,2.477
25.2400,2.283
25.2800,2.403
25.3200,2.462
25.3600,2.363
25.4000,2.400
25.4400,2.382
25.4800,2.420
25.5200,2.473
25.5600,2.381
25.6000,2.388
25.6400,2.419
25.6800,2.256
25.7200,2.292
25.7600,2.503
25.8000,2.388
25.8400,2.317
25.8800,2.322
25.9200,2.242
25.9600,2.292
26.0000,2.297
26.0400,2.291
26.0800,2.351
26.1200,2.392
26.1600,2.278
26.2000,2.330
26.2400,2.301
26.2800,2.308
26.3200,2.293
26.3600,2.241
26.4000,2.306
26.4400,2.429
26.4800,2.255
26.5200,2.353
26.5600,2.366
26.6000,2.288
26.6400,2.274
26.6800,2.294
26.7200,2.158
26.7600,2.380
26.8000,2.259
26.8400,2.237
26.8800,2.295
26.9200,2.296
26.9600,2.322
27.0000,2.294
27.0400,2.308
27.0800,2.198
27.1200,2.253
27.1600,2.327
27.2000,2.254
27.2400,2.247
27.2800,2.187
27.3200,2.160
27.3600,2.237
27.4000,2.344
27.4400,2.455
27.4800,2.232
27.5200,2.122
27.5600,2.202
27.6000,2.268
27.6400,2.232
27.6800,2.164
27.7200,2.168
27.7600,2.206
27.8000,2.239
27.8400,2.303
27.8800,2.086
27.9200,2.136
27.9600,2.204
28.0000,2.212
28.0400,2.074
28.0800,2.116
28.1200,2.136
28.1600,2.027
28.2000,2.198
28.2400,2.150
28.2800,2.196
28.3200,2.228
28.3600,2.139
28.4000,2.058
28.4400,2.177
28.4800,2.170
28.5200,2.152
28.5600,2.047
28.6000,2.153
28.6400,2.134
28.6800,2.224
28.7200,2.193
28.7600,2.156
28.8000,2.156
28.8400,2.144
28.8800,2.133
28.9200,2.164
28.9600,2.049
29.0000,2.121
29.0400,2.116
29.0800,2.123
29.1200,2.186
29.1600,2.116
29.2000,2.134
29.2400,2.115
29.2800,2.015
29.3200,2.064
29.3600,2.109
29.4000,2.200
29.4400,2.082
29.4800,2.019
29.5200,2.014
29.5600,2.124
29.6000,1.945
29.6400,2.098
29.6800,2.052
29.7200,2.031
29.7600,2.104
29.8000,2.032
29.8400,2.054
29.8800,2.175
29.9200,2.012
29.9600,2.000
30.0000,2.011
30.0400,2.013
30.0800,1.988
30.1200,1.935
30.1600,1.993
30.2000,2.049
30.2400,1.852
30.2800,2.059
30.3200,2.025
30.3600,1.969
30.4000,1.987
30.4400,1.968
30.4800,2.148
30.5200,2.010
30.5600,2.070
30.6000,1.916
30.6400,1.956
30.6800,2.048
30.7200,1.963
30.7600,1.994
30.8000,1.991
30.8400,1.941
30.8800,1.934
30.9200,2.072
30.9600,1.970
31.0000,1.928
31.0400,1.879
31.0800,2.014
31.1200,1.884
31.1600,1.997
31.2000,1.980
31.2400,1.878
31.2800,1.914
31.3200,1.936
31.3600,1.938
31.4000,2.059
31.4400,2.018
31.4800,1.799
31.5200,1.944
31.5600,1.882
31.6000,1.949
31.6400,2.117
31.6800,1.970
31.7200,1.879
31.7600,1.941
31.8000,1.895
31.8400,1.940
31.8800,1.927
31.9200,1.715
31.9600,1.926
32.0000,1.882
32.0400,1.964
32.0800,1.898
32.1200,1.912
32.1600,1.966
32.2000,2.016
32.2400,1.904
32.2800,1.905
32.3200,1.921
32.3600,1.896
32.4000,1.888
32.4400,1.910
32.4800,1.909
32.5200,1.929
32.5600,1.854
32.6000,1.883
32.6400,1.901
32.6800,1.827
32.7200,1.842
32.7600,1.876
32.8000,1.904
32.8400,1.857
32.8800,1.961
32.9200,1.900
32.9600,1.769
33.0000,1.881
33.0400,1.701
33.0800,1.759
33.1200,1.904
33.1600,1.859
33.2000,1.773
33.2400,1.807
33.2800,1.823
33.3200,1.705
33.3600,1.745
33.4000,1.785
33.4400,1.906
33.4800,1.774
33.5200,1.653
33.5600,1.744
33.6000,1.971
33.6400,1.734
33.6800,1.782
33.7200,1.654
33.7600,1.846
33.8000,1.745
33.8400,1.768
33.8800,1.641
33.9200,1.681
33.9600,1.832
34.0000,1.762
34.0400,1.721
34.0800,1.760
34.1200,1.809
34.1600,1.692
34.2000,1.769
34.2400,1.735
34.2800,1.666
34.3200,1.730
34.3600,1.612
34.4000,1.734
34.4400,1.728
34.4800,1.806
34.5200,1.640
34.5600,1.687
34.6000,1.798
34.6400,1.730
34.6800,1.726
34.7200,1.755
34.7600,1.800
34.8000,1.650
34.8400,1.772
34.8800,1.794
34.9200,1.822
34.9600,1.860
35.0000,1.764
35.0400,1.710
35.0800,1.728
35.1200,1.723
35.1600,1.712
35.2000,1.583
35.2400,1.680
35.2800,1.811
35.3200,1.745
35.3600,1.707
35.4000,1.703
35.4400,1.726
35.4800,1.826
35.5200,1.637
35.5600,1.755
35.6000,1.633
35.6400,1.716
35.6800,1.758
35.7200,1.598
35.7600,1.777
35.8000,1.712
35.8400,1.687
35.8800,1.748
35.9200,1.675
35.9600,1.733
36.0000,1.715
36.0400,1.842
36.0800,1.801
36.1200,1.772
36.1600,1.801
36.2000,1.844
36.2400,1.790
36.2800,1.781
36.3200,1.743
36.3600,1.712
36.4000,1.899
36.4400,1.895
36.4800,1.804
36.5200,1.811
36.5600,1.752
36.6000,1.720
36.6400,1.768
36.6800,1.674
36.7200,1.796
36.7600,1.720
36.8000,1.716
36.8400,1.753
36.8800,1.731
36.9200,1.814
36.9600,1.776
37.0000,1.774
37.0400,1.779
37.0800,1.936
37.1200,1.740
37.1600,1.996
37.2000,2.040
37.2400,1.957
37.2800,1.978
37.3200,1.976
37.3600,1.967
37.4000,2.061
37.4400,2.118
37.4800,2.179
37.5200,2.337
37.5600,2.332
37.6000,2.398
37.6400,2.551
37.6800,2.610
37.7200,2.885
37.7600,3.001
37.8000,3.174
37.8400,3.582
37.8800,4.264
37.9200,4.832
37.9600,5.648
38.0000,7.019
38.0400,9.416
38.0800,12.803
38.1200,18.341
38.1600,26.011
38.2000,31.630
38.2400,33.264
38.2800,30.282
38.3200,25.149
38.3600,19.483
38.4000,13.975
38.4400,9.872
38.4800,7.469
38.5200,5.869
38.5600,4.837
38.6000,4.135
38.6400,3.756
38.6800,3.284
38.7200,2.984
38.7600,2.833
38.8000,2.653
38.8400,2.563
38.8800,2.379
38.9200,2.339
38.9600,2.060
39.0000,2.141
39.0400,2.186
39.0800,2.007
39.1200,1.950
39.1600,1.844
39.2000,1.906
39.2400,1.897
39.2800,1.718
39.3200,1.770
39.3600,1.720
39.4000,1.614
39.4400,1.731
39.4800,1.799
39.5200,1.659
39.5600,1.617
39.6000,1.589
39.6400,1.603
39.6800,1.620
39.7200,1.538
39.7600,1.628
39.8000,1.578
39.8400,1.502
39.8800,1.572
39.9200,1.480
39.9600,1.585
40.0000,1.536
40.0400,1.448
40.0800,1.441
40.1200,1.537
40.1600,1.511
40.2000,1.450
40.2400,1.496
40.2800,1.471
40.3200,1.418
40.3600,1.430
40.4000,1.440
40.4400,1.517
40.4800,1.477
40.5200,1.445
40.5600,1.530
40.6000,1.516
40.6400,1.506
40.6800,1.461
40.7200,1.407
40.7600,1.514
40.8000,1.459
40.8400,1.390
40.8800,1.402
40.9200,1.417
40.9600,1.423
41.0000,1.390
41.0400,1.329
41.0800,1.404
41.1200,1.421
41.1600,1.332
41.2000,1.386
41.2400,1.340
41.2800,1.338
41.3200,1.325
41.3600,1.323
41.4000,1.403
41.4400,1.378
41.4800,1.410
41.5200,1.355
41.5600,1.385
41.6000,1.300
41.6400,1.419
41.6800,1.338
41.7200,1.313
41.7600,1.302
41.8000,1.359
41.8400,1.423
41.8800,1.384
41.9200,1.341
41.9600,1.315
42.0000,1.278
42.0400,1.288
42.0800,1.254
42.1200,1.284
42.1600,1.356
42.2000,1.292
42.2400,1.284
42.2800,1.332
42.3200,1.293
42.3600,1.363
42.4000,1.221
42.4400,1.385
42.4800,1.500
42.5200,1.302
42.5600,1.330
42.6000,1.259
42.6400,1.330
42.6800,1.329
42.7200,1.315
42.7600,1.330
42.8000,1.439
42.8400,1.346
42.8800,1.337
42.9200,1.457
42.9600,1.402
43.0000,1.363
43.0400,1.434
43.0800,1.348
43.1200,1.354
43.1600,1.399
43.2000,1.374
43.2400,1.402
43.2800,1.346
43.3200,1.373
43.3600,1.476
43.4000,1.519
43.4400,1.444
43.4800,1.419
43.5200,1.400
43.5600,1.515
43.6000,1.609
43.6400,1.521
43.6800,1.626
43.7200,1.585
43.7600,1.728
43.8000,1.743
43.8400,1.851
43.8800,1.780
43.9200,1.819
43.9600,1.962
44.0000,2.136
44.0400,2.298
44.0800,2.516
44.1200,2.674
44.1600,3.029
44.2000,3.374
44.2400,3.875
44.2800,4.479
44.3200,5.290
44.3600,6.378
44.4000,6.807
44.4400,7.640
44.4800,7.461
44.5200,7.321
44.5600,6.580
44.6000,5.750
44.6400,5.195
44.6800,4.243
44.7200,3.609
44.7600,3.045
44.8000,2.673
44.8400,2.372
44.8800,2.155
44.9200,2.005
44.9600,1.989
45.0000,1.751
45.0400,1.636
45.0800,1.674
45.1200,1.562
45.1600,1.540
45.2000,1.481
45.2400,1.442
45.2800,1.379
45.3200,1.508
45.3600,1.263
45.4000,1.421
45.4400,1.305
45.4800,1.315
45.5200,1.237
45.5600,1.276
45.6000,1.227
45.6400,1.227
45.6800,1.186
45.7200,1.173
45.7600,1.192
45.8000,1.277
45.8400,1.178
45.8800,1.167
45.9200,1.168
45.9600,1.116
46.0000,1.122
46.0400,1.116
46.0800,1.170
46.1200,1.239
46.1600,1.113
46.2000,1.228
46.2400,1.074
46.2800,1.136
46.3200,1.132
46.3600,1.017
46.4000,1.153
46.4400,1.097
46.4800,1.145
46.5200,1.111
46.5600,1.117
46.6000,1.012
46.6400,1.075
46.6800,1.066
46.7200,1.043
46.7600,1.106
46.8000,1.106
46.8400,1.067
46.8800,1.064
46.9200,0.984
46.9600,1.005
47.0000,1.060
47.0400,0.980
47.0800,1.017
47.1200,1.121
47.1600,1.094
47.2000,1.046
47.2400,1.113
47.2800,1.009
47.3200,1.027
47.3600,1.055
47.4000,1.031
47.4400,1.100
47.4800,1.012
47.5200,1.050
47.5600,1.045
47.6000,1.025
47.6400,0.970
47.6800,1.016
47.7200,0.998
47.7600,1.057
47.8000,0.950
47.8400,0.953
47.8800,0.933
47.9200,0.980
47.9600,0.991
48.0000,0.953
48.0400,1.033
48.0800,1.031
48.1200,0.977
48.1600,1.033
48.2000,0.997
48.2400,0.965
48.2800,0.963
48.3200,0.886
48.3600,0.993
48.4000,1.048
48.4400,1.002
48.4800,1.056
48.5200,0.924
48.5600,0.981
48.6000,0.996
48.6400,0.961
48.6800,0.981
48.7200,1.007
48.7600,0.909
48.8000,0.926
48.8400,1.021
48.8800,0.957
48.9200,0.949
48.9600,0.945
49.0000,0.956
49.0400,0.909
49.0800,0.994
49.1200,0.905
49.1600,0.988
49.2000,0.886
49.2400,0.926
49.2800,1.002
49.3200,0.934
49.3600,0.942
49.4000,0.927
49.4400,0.910
49.4800,0.898
49.5200,0.919
49.5600,0.965
49.6000,0.958
49.6400,0.944
49.6800,0.947
49.7200,0.932
49.7600,0.912
49.8000,0.833
49.8400,0.900
49.8800,0.906
49.9200,0.897
49.9600,0.939
50.0000,0.918
50.0400,0.903
50.0800,0.939
50.1200,0.883
50.1600,0.886
50.2000,0.878
50.2400,0.896
50.2800,0.868
50.3200,0.938
50.3600,0.905
50.4000,0.964
50.4400,0.980
50.4800,0.926
50.5200,0.960
50.5600,0.891
50.6000,0.892
50.6400,0.911
50.6800,0.888
50.7200,0.944
50.7600,0.934
50.8000,0.915
50.8400,0.954
50.8800,0.821
50.9200,0.918
50.9600,0.876
51.0000,0.929
51.0400,0.851
51.0800,0.828
51.1200,0.875
51.1600,0.925
51.2000,0.981
51.2400,1.007
51.2800,0.867
51.3200,0.929
51.3600,0.913
51.4000,0.911
51.4400,0.887
51.4800,0.833
51.5200,0.817
51.5600,0.831
51.6000,0.884
51.6400,0.822
51.6800,0.839
51.7200,0.896
51.7600,0.854
51.8000,0.833
51.8400,0.801
51.8800,0.822
51.9200,0.728
51.9600,0.857
52.0000,0.846
52.0400,0.855
52.0800,0.879
52.1200,0.818
52.1600,0.856
52.2000,0.862
52.2400,0.814
52.2800,0.839
52.3200,0.897
52.3600,0.845
52.4000,0.800
52.4400,0.865
52.4800,0.847
52.5200,0.856
52.5600,0.773
52.6000,0.882
52.6400,0.827
52.6800,0.887
52.7200,0.814
52.7600,0.889
52.8000,0.888
52.8400,0.740
52.8800,0.759
52.9200,0.873
52.9600,0.897
53.0000,0.889
53.0400,0.760
53.0800,0.777
53.1200,0.835
53.1600,0.770
53.2000,0.799
53.2400,0.800
53.2800,0.914
53.3200,0.805
53.3600,0.787
53.4000,0.763
53.4400,0.819
53.4800,0.832
53.5200,0.759
53.5600,0.822
53.6000,0.799
53.6400,0.830
53.6800,0.898
53.7200,0.854
53.7600,0.796
53.8000,0.828
53.8400,0.794
53.8800,0.833
53.9200,0.888
53.9600,0.792
54.0000,0.795
54.0400,0.761
54.0800,0.710
54.1200,0.818
54.1600,0.720
54.2000,0.758
54.2400,0.741
54.2800,0.791
54.3200,0.808
54.3600,0.771
54.4000,0.788
54.4400,0.797
54.4800,0.817
54.5200,0.800
54.5600,0.836
54.6000,0.772
54.6400,0.717
54.6800,0.720
54.7200,0.762
54.7600,0.758
54.8000,0.796
54.8400,0.865
54.8800,0.800
54.9200,0.787
54.9600,0.742
55.0000,0.848
55.0400,0.748
55.0800,0.793
55.1200,0.792
55.1600,0.750
55.2000,0.781
55.2400,0.794
55.2800,0.801
55.3200,0.777
55.3600,0.808
55.4000,0.799
55.4400,0.747
55.4800,0.824
55.5200,0.771
55.5600,0.772
55.6000,0.808
55.6400,0.708
55.6800,0.730
55.7200,0.788
55.7600,0.728
55.8000,0.691
55.8400,0.829
55.8800,0.771
55.9200,0.762
55.9600,0.795
56.0000,0.836
56.0400,0.765
56.0800,0.758
56.1200,0.786
56.1600,0.783
56.2000,0.812
56.2400,0.747
56.2800,0.821
56.3200,0.758
56.3600,0.803
56.4000,0.752
56.4400,0.798
56.4800,0.765
56.5200,0.762
56.5600,0.749
56.6000,0.709
56.6400,0.780
56.6800,0.824
56.7200,0.818
56.7600,0.751
56.8000,0.694
56.8400,0.757
56.8800,0.727
56.9200,0.726
56.9600,0.749
57.0000,0.721
57.0400,0.743
57.0800,0.709
57.1200,0.766
57.1600,0.781
57.2000,0.808
57.2400,0.758
57.2800,0.744
57.3200,0.733
57.3600,0.731
57.4000,0.732
57.4400,0.777
57.4800,0.752
57.5200,0.655
57.5600,0.697
57.6000,0.778
57.6400,0.777
57.6800,0.744
57.7200,0.717
57.7600,0.745
57.8000,0.762
57.8400,0.701
57.8800,0.737
57.9200,0.677
57.9600,0.690
58.0000,0.722
58.0400,0.726
58.0800,0.758
58.1200,0.739
58.1600,0.750
58.2000,0.682
58.2400,0.690
58.2800,0.705
58.3200,0.693
58.3600,0.752
58.4000,0.765
58.4400,0.743
58.4800,0.718
58.5200,0.711
58.5600,0.705
58.6000,0.768
58.6400,0.767
58.6800,0.828
58.7200,0.782
58.7600,0.762
58.8000,0.709
58.8400,0.719
58.8800,0.703
58.9200,0.725
58.9600,0.729
59.0000,0.706
59.0400,0.671
59.0800,0.708
59.1200,0.780
59.1600,0.783
59.2000,0.782
59.2400,0.716
59.2800,0.778
59.3200,0.740
59.3600,0.721
59.4000,0.766
59.4400,0.777
59.4800,0.714
59.5200,0.715
59.5600,0.723
59.6000,0.727
59.6400,0.751
59.6800,0.698
59.7200,0.728
59.7600,0.708
59.8000,0.679
59.8400,0.781
59.8800,0.704
59.9200,0.662
59.9600,0.744
60.0000,0.755
60.0400,0.735
60.0800,0.712
60.1200,0.679
60.1600,0.753
60.2000,0.700
60.2400,0.678
60.2800,0.683
60.3200,0.680
60.3600,0.669
60.4000,0.713
60.4400,0.654
60.4800,0.684
60.5200,0.673
60.5600,0.674
60.6000,0.706
60.6400,0.660
60.6800,0.639
60.7200,0.730
60.7600,0.683
60.8000,0.665
60.8400,0.704
60.8800,0.701
60.9200,0.672
60.9600,0.664
61.0000,0.695
61.0400,0.698
61.0800,0.642
61.1200,0.745
61.1600,0.702
61.2000,0.656
61.2400,0.715
61.2800,0.706
61.3200,0.794
61.3600,0.711
61.4000,0.679
61.4400,0.718
61.4800,0.666
61.5200,0.687
61.5600,0.660
61.6000,0.700
61.6400,0.729
61.6800,0.782
61.7200,0.720
61.7600,0.682
61.8000,0.695
61.8400,0.673
61.8800,0.643
61.9200,0.666
61.9600,0.727
62.0000,0.693
62.0400,0.678
62.0800,0.704
62.1200,0.619
62.1600,0.651
62.2000,0.653
62.2400,0.606
62.2800,0.687
62.3200,0.656
62.3600,0.748
62.4000,0.661
62.4400,0.597
62.4800,0.693
62.5200,0.685
62.5600,0.719
62.6000,0.627
62.6400,0.596
62.6800,0.670
62.7200,0.746
62.7600,0.702
62.8000,0.670
62.8400,0.709
62.8800,0.685
62.9200,0.673
62.9600,0.697
63.0000,0.708
63.0400,0.677
63.0800,0.632
63.1200,0.688
63.1600,0.753
63.2000,0.716
63.2400,0.712
63.2800,0.729
63.3200,0.713
63.3600,0.680
63.4000,0.736
63.4400,0.687
63.4800,0.762
63.5200,0.757
63.5600,0.713
63.6000,0.739
63.6400,0.678
63.6800,0.748
63.7200,0.734
63.7600,0.788
63.8000,0.795
63.8400,0.827
63.8800,0.811
63.9200,0.845
63.9600,0.862
64.0000,0.919
64.0400,0.933
64.0800,0.917
64.1200,1.028
64.1600,1.039
64.2000,1.072
64.2400,1.154
64.2800,1.363
64.3200,1.399
64.3600,1.567
64.4000,1.669
64.4400,1.959
64.4800,2.582
64.5200,2.924
64.5600,3.461
64.6000,3.853
64.6400,4.196
64.6800,4.295
64.7200,3.840
64.7600,3.691
64.8000,3.576
64.8400,3.226
64.8800,2.880
64.9200,2.412
64.9600,1.910
65.0000,1.706
65.0400,1.478
65.0800,1.383
65.1200,1.237
65.1600,1.102
65.2000,1.092
65.2400,1.034
65.2800,1.061
65.3200,0.967
65.3600,0.905
65.4000,0.945
65.4400,0.920
65.4800,0.903
65.5200,0.876
65.5600,0.968
65.6000,0.917
65.6400,0.852
65.6800,0.808
65.7200,0.813
65.7600,0.899
65.8000,0.955
65.8400,0.851
65.8800,0.852
65.9200,0.884
65.9600,0.876
66.0000,0.866
66.0400,0.853
66.0800,0.883
66.1200,0.936
66.1600,0.893
66.2000,0.879
66.2400,0.838
66.2800,0.821
66.3200,0.871
66.3600,0.940
66.4000,0.842
66.4400,0.913
66.4800,0.908
66.5200,0.901
66.5600,0.901
66.6000,0.891
66.6400,0.916
66.6800,0.961
66.7200,0.898
66.7600,0.974
66.8000,0.973
66.8400,0.993
66.8800,1.084
66.9200,0.958
66.9600,1.066
67.0000,1.059
67.0400,1.042
67.0800,1.102
67.1200,1.079
67.1600,1.067
67.2000,1.058
67.2400,1.074
67.2800,1.062
67.3200,1.132
67.3600,1.230
67.4000,1.173
67.4400,1.109
67.4800,1.178
67.5200,1.188
67.5600,1.301
67.6000,1.340
67.6400,1.247
67.6800,1.236
67.7200,1.371
67.7600,1.350
67.8000,1.334
67.8400,1.436
67.8800,1.434
67.9200,1.433
67.9600,1.523
68.0000,1.505
68.0400,1.643
68.0800,1.624
68.1200,1.600
68.1600,1.737
68.2000,1.731
68.2400,1.725
68.2800,1.839
68.3200,1.923
68.3600,1.991
68.4000,2.116
68.4400,2.092
68.4800,2.215
68.5200,2.285
68.5600,2.572
68.6000,2.667
68.6400,2.848
68.6800,3.149
68.7200,4.053
68.7600,5.553
68.8000,6.329
68.8400,6.360
68.8800,6.435
68.9200,7.304
68.9600,9.790
69.0000,15.177
69.0400,30.758
69.0800,124.984
69.1200,394.262
69.1600,374.039
69.2000,117.352
69.2400,43.233
69.2800,83.847
69.3200,210.547
69.3600,186.111
69.4000,58.635
69.4400,17.941
69.4800,10.187
69.5200,7.441
69.5600,6.156
69.6000,4.780
69.6400,4.157
69.6800,3.958
69.7200,3.377
69.7600,3.111
69.8000,2.928
69.8400,2.796
69.8800,2.606
69.9200,2.507
69.9600,2.450
70.0000,2.257
70.0400,2.199
70.0800,2.210
70.1200,2.080
70.1600,1.909
70.2000,1.877
70.2400,1.835
70.2800,1.804
70.3200,1.668
70.3600,1.787
70.4000,1.585
70.4400,1.600
70.4800,1.563
70.5200,1.540
70.5600,1.492
70.6000,1.438
70.6400,1.329
70.6800,1.380
70.7200,1.249
70.7600,1.359
70.8000,1.260
70.8400,1.345
70.8800,1.242
70.9200,1.159
70.9600,1.135
71.0000,1.118
71.0400,1.044
71.0800,1.046
71.1200,1.118
71.1600,1.124
71.2000,1.029
71.2400,1.080
71.2800,1.064
71.3200,0.988
71.3600,0.911
71.4000,0.939
71.4400,0.921
71.4800,0.841
71.5200,0.914
71.5600,0.945
71.6000,0.868
71.6400,0.782
71.6800,0.822
71.7200,0.824
71.7600,0.857
71.8000,0.814
71.8400,0.733
71.8800,0.724
71.9200,0.758
71.9600,0.781
72.0000,0.848
72.0400,0.772
72.0800,0.762
72.1200,0.789
72.1600,0.752
72.2000,0.737
72.2400,0.687
72.2800,0.685
72.3200,0.669
72.3600,0.602
72.4000,0.693
72.4400,0.680
72.4800,0.667
72.5200,0.625
72.5600,0.640
72.6000,0.670
72.6400,0.687
72.6800,0.658
72.7200,0.654
72.7600,0.657
72.8000,0.631
72.8400,0.690
72.8800,0.559
72.9200,0.603
72.9600,0.604
73.0000,0.596
73.0400,0.554
73.0800,0.595
73.1200,0.613
73.1600,0.556
73.2000,0.590
73.2400,0.641
73.2800,0.598
73.3200,0.612
73.3600,0.580
73.4000,0.580
73.4400,0.571
73.4800,0.580
73.5200,0.608
73.5600,0.582
73.6000,0.531
73.6400,0.571
73.6800,0.575
73.7200,0.557
73.7600,0.631
73.8000,0.655
73.8400,0.601
73.8800,0.578
73.9200,0.620
73.9600,0.587
74.0000,0.522
74.0400,0.543
74.0800,0.515
74.1200,0.499
74.1600,0.560
74.2000,0.527
74.2400,0.612
74.2800,0.510
74.3200,0.524
74.3600,0.595
74.4000,0.555
74.4400,0.566
74.4800,0.544
74.5200,0.495
74.5600,0.478
74.6000,0.443
74.6400,0.530
74.6800,0.543
74.7200,0.467
74.7600,0.540
74.8000,0.489
74.8400,0.476
74.8800,0.500
74.9200,0.530
74.9600,0.515
75.0000,0.479
75.0400,0.475
75.0800,0.493
75.1200,0.494
75.1600,0.485
75.2000,0.537
75.2400,0.484
75.2800,0.554
75.3200,0.513
75.3600,0.475
75.4000,0.530
75.4400,0.439
75.4800,0.480
75.5200,0.555
75.5600,0.480
75.6000,0.475
75.6400,0.507
75.6800,0.487
75.7200,0.465
75.7600,0.479
75.8000,0.606
75.8400,0.507
75.8800,0.579
75.9200,0.486
75.9600,0.442
76.0000,0.507
76.0400,0.521
76.0800,0.544
76.1200,0.518
76.1600,0.512
76.2000,0.488
76.2400,0.464
76.2800,0.497
76.3200,0.502
76.3600,0.533
76.4000,0.535
76.4400,0.597
76.4800,0.536
76.5200,0.530
76.5600,0.555
76.6000,0.559
76.6400,0.540
76.6800,0.584
76.7200,0.570
76.7600,0.578
76.8000,0.594
76.8400,0.537
76.8800,0.621
76.9200,0.663
76.9600,0.625
77.0000,0.630
77.0400,0.717
77.0800,0.731
77.1200,0.717
77.1600,0.747
77.2000,0.831
77.2400,0.918
77.2800,1.091
77.3200,1.165
77.3600,1.230
77.4000,1.332
77.4400,1.618
77.4800,1.905
77.5200,2.160
77.5600,2.632
77.6000,2.868
77.6400,3.190
77.6800,3.260
77.7200,2.999
77.7600,2.897
77.8000,2.825
77.8400,2.613
77.8800,2.292
77.9200,2.237
77.9600,1.973
78.0000,1.672
78.0400,1.461
78.0800,1.252
78.1200,1.083
78.1600,0.969
78.2000,0.920
78.2400,0.863
78.2800,0.791
78.3200,0.783
78.3600,0.695
78.4000,0.658
78.4400,0.605
78.4800,0.581
78.5200,0.630
78.5600,0.576
78.6000,0.596
78.6400,0.532
78.6800,0.553
78.7200,0.479
78.7600,0.473
78.8000,0.560
78.8400,0.476
78.8800,0.485
78.9200,0.521
78.9600,0.486
79.0000,0.528
79.0400,0.456
79.0800,0.490
79.1200,0.405
79.1600,0.452
79.2000,0.448
79.2400,0.436
79.2800,0.484
79.3200,0.465
79.3600,0.445
79.4000,0.448
79.4400,0.428
79.4800,0.477
79.5200,0.434
79.5600,0.466
79.6000,0.429
79.6400,0.446
79.6800,0.437
79.7200,0.497
79.7600,0.413
79.8000,0.393
79.8400,0.361
79.8800,0.407
79.9200,0.454
79.9600,0.431
80.0000,0.478
80.0400,0.442
80.0800,0.386
80.1200,0.435
80.1600,0.478
80.2000,0.357
80.2400,0.377
80.2800,0.406
80.3200,0.443
80.3600,0.415
80.4000,0.465
80.4400,0.411
80.4800,0.403
80.5200,0.384
80.5600,0.408
80.6000,0.440
80.6400,0.440
80.6800,0.407
80.7200,0.513
80.7600,0.455
80.8000,0.478
80.8400,0.506
80.8800,0.451
80.9200,0.427
80.9600,0.456
81.0000,0.466
81.0400,0.426
81.0800,0.421
81.1200,0.460
81.1600,0.451
81.2000,0.458
81.2400,0.517
81.2800,0.496
81.3200,0.535
81.3600,0.617
81.4000,0.573
81.4400,0.618
81.4800,0.617
81.5200,0.679
81.5600,0.805
81.6000,0.839
81.6400,0.990
81.6800,1.140
81.7200,1.329
81.7600,1.481
81.8000,1.509
81.8400,1.333
81.8800,1.291
81.9200,1.153
81.9600,1.059
82.0000,1.039
82.0400,1.032
82.0800,0.916
82.1200,0.838
82.1600,0.688
82.2000,0.676
82.2400,0.650
82.2800,0.599
82.3200,0.550
82.3600,0.503
82.4000,0.456
82.4400,0.461
82.4800,0.471
82.5200,0.490
82.5600,0.445
82.6000,0.485
82.6400,0.451
82.6800,0.441
82.7200,0.412
82.7600,0.378
82.8000,0.386
82.8400,0.405
82.8800,0.371
82.9200,0.393
82.9600,0.393
83.0000,0.392
83.0400,0.413
83.0800,0.368
83.1200,0.411
83.1600,0.463
83.2000,0.469
83.2400,0.431
83.2800,0.363
83.3200,0.321
83.3600,0.312
83.4000,0.375
83.4400,0.369
83.4800,0.375
83.5200,0.362
83.5600,0.333
83.6000,0.393
83.6400,0.402
83.6800,0.394
83.7200,0.425
83.7600,0.390
83.8000,0.425
83.8400,0.387
83.8800,0.322
83.9200,0.328
83.9600,0.371
84.0000,0.392
84.0400,0.358
84.0800,0.423
84.1200,0.346
84.1600,0.344
84.2000,0.352
84.2400,0.366
84.2800,0.369
84.3200,0.328
84.3600,0.317
84.4000,0.352
84.4400,0.317
84.4800,0.316
84.5200,0.357
84.5600,0.333
84.6000,0.343
84.6400,0.341
84.6800,0.315
84.7200,0.326
84.7600,0.375
84.8000,0.338
84.8400,0.336
84.8800,0.357
84.9200,0.315
84.9600,0.335
85.0000,0.323
85.0400,0.326
85.0800,0.326
85.1200,0.360
85.1600,0.376
85.2000,0.421
85.2400,0.348
85.2800,0.323
85.3200,0.340
85.3600,0.353
85.4000,0.382
85.4400,0.333
85.4800,0.378
85.5200,0.349
85.5600,0.294
85.6000,0.385
85.6400,0.333
85.6800,0.315
85.7200,0.367
85.7600,0.340
85.8000,0.370
85.8400,0.321
85.8800,0.364
85.9200,0.332
85.9600,0.427
86.0000,0.390
86.0400,0.355
86.0800,0.367
86.1200,0.350
86.1600,0.353
86.2000,0.307
86.2400,0.324
86.2800,0.313
86.3200,0.289
86.3600,0.356
86.4000,0.347
86.4400,0.340
86.4800,0.365
86.5200,0.312
86.5600,0.333
86.6000,0.380
86.6400,0.369
86.6800,0.319
86.7200,0.368
86.7600,0.333
86.8000,0.316
86.8400,0.317
86.8800,0.315
86.9200,0.336
86.9600,0.348
87.0000,0.341
87.0400,0.360
87.0800,0.315
87.1200,0.354
87.1600,0.321
87.2000,0.270
87.2400,0.333
87.2800,0.346
87.3200,0.344
87.3600,0.342
87.4000,0.308
87.4400,0.276
87.4800,0.352
87.5200,0.271
87.5600,0.384
87.6000,0.335
87.6400,0.329
87.6800,0.333
87.7200,0.350
87.7600,0.328
87.8000,0.340
87.8400,0.321
87.8800,0.312
87.9200,0.346
87.9600,0.294
88.0000,0.313
88.0400,0.346
88.0800,0.306
88.1200,0.408
88.1600,0.311
88.2000,0.371
88.2400,0.363
88.2800,0.302
88.3200,0.347
88.3600,0.322
88.4000,0.351
88.4400,0.319
88.4800,0.357
88.5200,0.315
88.5600,0.312
88.6000,0.352
88.6400,0.309
88.6800,0.318
88.7200,0.362
88.7600,0.343
88.8000,0.328
88.8400,0.338
88.8800,0.326
88.9200,0.366
88.9600,0.311
89.0000,0.325
89.0400,0.278
89.0800,0.309
89.1200,0.316
89.1600,0.349
89.2000,0.283
89.2400,0.332
89.2800,0.330
89.3200,0.395
89.3600,0.297
89.4000,0.326
89.4400,0.313
89.4800,0.315
89.5200,0.354
89.5600,0.364
89.6000,0.315
89.6400,0.318
89.6800,0.329
89.7200,0.379
89.7600,0.271
89.8000,0.326
89.8400,0.306
89.8800,0.371
89.9200,0.310
89.9600,0.336
90.0000,0.272
