5.0400,6.819
5.0800,6.752
5.1200,6.609
5.1600,6.500
5.2000,6.541
5.2400,6.290
5.2800,6.513
5.3200,6.220
5.3600,6.096
5.4000,6.078
5.4400,6.081
5.4800,6.030
5.5200,5.964
5.5600,5.637
5.6000,5.556
5.6400,5.479
5.6800,5.575
5.7200,5.440
5.7600,5.216
5.8000,5.539
5.8400,5.286
5.8800,4.984
5.9200,4.907
5.9600,4.813
6.0000,4.768
6.0400,4.644
6.0800,4.651
6.1200,4.658
6.1600,4.603
6.2000,4.779
6.2400,4.668
6.2800,4.696
6.3200,4.672
6.3600,4.530
6.4000,4.659
6.4400,4.469
6.4800,4.656
6.5200,4.688
6.5600,4.635
6.6000,4.395
6.6400,4.561
6.6800,4.325
6.7200,4.532
6.7600,4.799
6.8000,4.596
6.8400,4.432
6.8800,4.370
6.9200,4.624
6.9600,4.590
7.0000,4.257
7.0400,4.495
7.0800,4.552
7.1200,4.619
7.1600,4.506
7.2000,4.513
7.2400,4.320
7.2800,4.416
7.3200,4.586
7.3600,4.616
7.4000,4.527
7.4400,4.590
7.4800,4.525
7.5200,4.389
7.5600,4.414
7.6000,4.371
7.6400,4.462
7.6800,4.561
7.7200,4.396
7.7600,4.506
7.8000,4.428
7.8400,4.311
7.8800,4.493
7.9200,4.250
7.9600,4.285
8.0000,4.236
8.0400,4.332
8.0800,4.266
8.1200,4.353
8.1600,4.256
8.2000,4.223
8.2400,4.274
8.2800,4.198
8.3200,4.259
8.3600,4.288
8.4000,4.347
8.4400,4.331
8.4800,4.197
8.5200,4.362
8.5600,4.122
8.6000,4.107
8.6400,4.141
8.6800,4.170
8.7200,4.166
8.7600,4.177
8.8000,4.218
8.8400,4.013
8.8800,4.159
8.9200,4.132
8.9600,4.123
9.0000,4.192
9.0400,4.102
9.0800,4.131
9.1200,4.086
9.1600,4.223
9.2000,4.088
9.2400,4.006
9.2800,4.163
9.3200,4.015
9.3600,4.016
9.4000,4.016
9.4400,4.291
9.4800,4.164
9.5200,4.218
9.5600,4.000
9.6000,4.003
9.6400,4.169
9.6800,3.990
9.7200,3.993
9.7600,3.871
9.8000,3.982
9.8400,3.922
9.8800,3.752
9.9200,4.042
9.9600,3.797
10.0000,3.910
10.0400,3.986
10.0800,4.012
10.1200,3.799
10.1600,4.003
10.2000,3.737
10.2400,3.899
10.2800,3.894
10.3200,3.840
10.3600,3.898
10.4000,3.836
10.4400,3.727
10.4800,3.926
10.5200,3.702
10.5600,3.871
10.6000,3.774
10.6400,3.851
10.6800,3.905
10.7200,3.882
10.7600,3.849
10.8000,3.774
10.8400,3.749
10.8800,3.757
10.9200,3.862
10.9600,3.719
11.0000,3.780
11.0400,3.929
11.0800,3.817
11.1200,3.805
11.1600,3.850
11.2000,3.844
11.2400,3.731
11.2800,3.882
11.3200,3.782
11.3600,3.671
11.4000,3.651
11.4400,3.729
11.4800,3.703
11.5200,3.699
11.5600,3.796
11.6000,3.773
11.6400,3.644
11.6800,3.761
11.7200,3.559
11.7600,3.573
11.8000,3.591
11.8400,3.575
11.8800,3.630
11.9200,3.711
11.9600,3.638
12.0000,3.765
12.0400,3.756
12.0800,3.678
12.1200,3.574
12.1600,3.729
12.2000,3.660
12.2400,3.598
12.2800,3.617
12.3200,3.457
12.3600,3.474
12.4000,3.587
12.4400,3.607
12.4800,3.744
12.5200,3.777
12.5600,3.609
12.6000,3.412
12.6400,3.576
12.6800,3.547
12.7200,3.404
12.7600,3.694
12.8000,3.466
12.8400,3.521
12.8800,3.547
12.9200,3.557
12.9600,3.370
13.0000,3.466
13.0400,3.710
13.0800,3.601
13.1200,3.560
13.1600,3.615
13.2000,3.333
13.2400,3.396
13.2800,3.624
13.3200,3.344
13.3600,3.497
13.4000,3.545
13.4400,3.558
13.4800,3.463
13.5200,3.496
13.5600,3.551
13.6000,3.296
13.6400,3.360
13.6800,3.404
13.7200,3.605
13.7600,3.472
13.8000,3.379
13.8400,3.389
13.8800,3.378
13.9200,3.309
13.9600,3.355
14.0000,3.264
14.0400,3.449
14.0800,3.402
14.1200,3.404
14.1600,3.334
14.2000,3.209
14.2400,3.313
14.2800,3.211
14.3200,3.230
14.3600,3.215
14.4000,3.282
14.4400,3.280
14.4800,3.409
14.5200,3.401
14.5600,3.406
14.6000,3.350
14.6400,3.319
14.6800,3.362
14.7200,3.304
14.7600,3.134
14.8000,3.256
14.8400,3.227
14.8800,3.303
14.9200,3.269
14.9600,3.255
15.0000,3.425
15.0400,3.295
15.0800,3.375
15.1200,3.252
15.1600,3.206
15.2000,3.087
15.2400,3.331
15.2800,3.386
15.3200,3.215
15.3600,3.153
15.4000,3.193
15.4400,3.178
15.4800,3.225
15.5200,3.204
15.5600,3.281
15.6000,3.131
15.6400,3.003
15.6800,3.153
15.7200,3.202
15.7600,3.235
15.8000,3.350
15.8400,3.217
15.8800,3.245
15.9200,3.184
15.9600,3.379
16.0000,3.152
16.0400,3.362
16.0800,3.220
16.1200,3.183
16.1600,3.075
16.2000,3.047
16.2400,3.063
16.2800,3.003
16.3200,3.184
16.3600,3.129
16.4000,3.034
16.4400,3.094
16.4800,3.002
16.5200,3.153
16.5600,3.188
16.6000,3.082
16.6400,3.221
16.6800,3.163
16.7200,3.096
16.7600,3.000
16.8000,3.103
16.8400,3.143
16.8800,3.137
16.9200,3.093
16.9600,3.008
17.0000,3.139
17.0400,3.105
17.0800,3.032
17.1200,3.035
17.1600,3.085
17.2000,3.115
17.2400,2.975
17.2800,3.041
17.3200,3.037
17.3600,3.060
17.4000,3.053
17.4400,3.071
17.4800,3.052
17.5200,3.151
17.5600,3.072
17.6000,2.982
17.6400,2.956
17.6800,2.981
17.7200,2.927
17.7600,2.973
17.8000,3.121
17.8400,2.803
17.8800,2.900
17.9200,2.947
17.9600,3.090
18.0000,2.968
18.0400,2.803
18.0800,3.034
18.1200,2.923
18.1600,2.913
18.2000,2.949
18.2400,2.863
18.2800,2.750
18.3200,2.948
18.3600,2.928
18.4000,2.892
18.4400,2.813
18.4800,2.886
18.5200,2.965
18.5600,2.940
18.6000,2.778
18.6400,2.951
18.6800,2.875
18.7200,2.918
18.7600,2.946
18.8000,2.822
18.8400,2.901
18.8800,2.770
18.9200,2.840
18.9600,2.849
19.0000,2.951
19.0400,2.812
19.0800,2.888
19.1200,2.920
19.1600,2.809
19.2000,2.826
19.2400,2.939
19.2800,2.904
19.3200,2.798
19.3600,2.826
19.4000,2.954
19.4400,2.826
19.4800,2.705
19.5200,2.763
19.5600,2.891
19.6000,2.919
19.6400,2.932
19.6800,2.807
19.7200,2.936
19.7600,2.757
19.8000,2.790
19.8400,2.795
19.8800,2.899
19.9200,2.911
19.9600,2.793
20.0000,2.717
20.0400,2.670
20.0800,2.822
20.1200,2.807
20.1600,2.716
20.2000,2.788
20.2400,2.613
20.2800,2.680
20.3200,2.872
20.3600,2.872
20.4000,2.661
20.4400,2.761
20.4800,2.743
20.5200,2.719
20.5600,2.791
20.6000,2.600
20.6400,2.697
20.6800,2.704
20.7200,2.798
20.7600,2.784
20.8000,2.935
20.8400,2.669
20.8800,2.794
20.9200,2.634
20.9600,2.666
21.0000,2.655
21.0400,2.743
21.0800,2.705
21.1200,2.671
21.1600,2.789
21.2000,2.700
21.2400,2.643
21.2800,2.659
21.3200,2.792
21.3600,2.669
21.4000,2.865
21.4400,2.679
21.4800,2.690
21.5200,2.568
21.5600,2.646
21.6000,2.650
21.6400,2.600
21.6800,2.604
21.7200,2.660
21.7600,2.646
21.8000,2.586
21.8400,2.716
21.8800,2.641
21.9200,2.602
21.9600,2.641
22.0000,2.769
22.0400,2.604
22.0800,2.671
22.1200,2.616
22.1600,2.697
22.2000,2.591
22.2400,2.589
22.2800,2.559
22.3200,2.526
22.3600,2.526
22.4000,2.574
22.4400,2.627
22.4800,2.642
22.5200,2.510
22.5600,2.664
22.6000,2.538
22.6400,2.653
22.6800,2.702
22.7200,2.616
22.7600,2.529
22.8000,2.542
22.8400,2.615
22.8800,2.575
22.9200,2.626
22.9600,2.523
23.0000,2.584
23.0400,2.530
23.0800,2.553
23.1200,2.489
23.1600,2.548
23.2000,2.637
23.2400,2.667
23.2800,2.581
23.3200,2.560
23.3600,2.653
23.4000,2.573
23.4400,2.553
23.4800,2.565
23.5200,2.703
23.5600,2.622
23.6000,2.590
23.6400,2.639
23.6800,2.431
23.7200,2.484
23.7600,2.353
23.8000,2.660
23.8400,2.560
23.8800,2.484
23.9200,2.615
23.9600,2.594
24.0000,2.608
24.0400,2.537
24.0800,2.614
24.1200,2.501
24.1600,2.627
24.2000,2.581
24.2400,2.563
24.2800,2.476
24.3200,2.515
24.3600,2.598
24.4000,2.426
24.4400,2.635
24.4800,2.395
24.5200,2.548
24.5600,2.597
24.6000,2.523
24.6400,2.677
24.6800,2.616
24.7200,2.424
24.7600,2.532
24.8000,2.472
24.8400,2.608
24.8800,2.527
24.9200,2.525
24.9600,2.431
25.0000,2.540
25.0400,2.593
25.0800,2.463
25.1200,2.519
25.1600,2.342
25.2000,2.287
25.2400,2.593
25.2800,2.519
25.3200,2.476
25.3600,2.500
25.4000,2.482
25.4400,2.370
25.4800,2.476
25.5200,2.374
25.5600,2.505
25.6000,2.501
25.6400,2.529
25.6800,2.476
25.7200,2.457
25.7600,2.439
25.8000,2.391
25.8400,2.391
25.8800,2.448
25.9200,2.394
25.9600,2.441
26.0000,2.478
26.0400,2.366
26.0800,2.417
26.1200,2.596
26.1600,2.415
26.2000,2.495
26.2400,2.387
26.2800,2.314
26.3200,2.414
26.3600,2.359
26.4000,2.394
26.4400,2.381
26.4800,2.421
26.5200,2.505
26.5600,2.389
26.6000,2.425
26.6400,2.408
26.6800,2.391
26.7200,2.398
26.7600,2.361
26.8000,2.250
26.8400,2.236
26.8800,2.377
26.9200,2.368
26.9600,2.393
27.0000,2.396
27.0400,2.322
27.0800,2.272
27.1200,2.399
27.1600,2.285
27.2000,2.297
27.2400,2.351
27.2800,2.360
27.3200,2.280
27.3600,2.311
27.4000,2.227
27.4400,2.323
27.4800,2.212
27.5200,2.325
27.5600,2.326
27.6000,2.301
27.6400,2.296
27.6800,2.342
27.7200,2.228
27.7600,2.205
27.8000,2.220
27.8400,2.210
27.8800,2.300
27.9200,2.220
27.9600,2.254
28.0000,2.273
28.0400,2.265
28.0800,2.245
28.1200,2.176
28.1600,2.316
28.2000,2.296
28.2400,2.197
28.2800,2.230
28.3200,2.187
28.3600,2.301
28.4000,2.244
28.4400,2.240
28.4800,2.237
28.5200,2.264
28.5600,2.244
28.6000,2.198
28.6400,2.082
28.6800,2.208
28.7200,2.208
28.7600,2.216
28.8000,2.190
28.8400,2.076
28.8800,2.092
28.9200,2.074
28.9600,2.222
29.0000,2.122
29.0400,1.943
29.0800,2.078
29.1200,2.042
29.1600,2.208
29.2000,2.175
29.2400,2.027
29.2800,2.129
29.3200,2.087
29.3600,2.076
29.4000,2.051
29.4400,2.019
29.4800,2.091
29.5200,2.026
29.5600,1.970
29.6000,2.157
29.6400,2.065
29.6800,2.095
29.7200,2.028
29.7600,2.021
29.8000,2.044
29.8400,2.062
29.8800,2.065
29.9200,1.921
29.9600,1.893
30.0000,2.019
30.0400,1.964
30.0800,2.021
30.1200,1.946
30.1600,1.944
30.2000,1.921
30.2400,2.072
30.2800,2.017
30.3200,1.936
30.3600,1.959
30.4000,1.960
30.4400,1.965
30.4800,1.945
30.5200,2.094
30.5600,1.981
30.6000,1.925
30.6400,1.992
30.6800,1.990
30.7200,1.889
30.7600,1.943
30.8000,1.977
30.8400,1.787
30.8800,1.884
30.9200,1.991
30.9600,1.852
31.0000,1.875
31.0400,1.873
31.0800,1.919
31.1200,1.805
31.1600,1.863
31.2000,1.864
31.2400,1.768
31.2800,1.956
31.3200,1.889
31.3600,1.954
31.4000,1.897
31.4400,1.712
31.4800,1.885
31.5200,1.793
31.5600,1.859
31.6000,1.859
31.6400,1.846
31.6800,1.964
31.7200,1.821
31.7600,1.835
31.8000,1.878
31.8400,1.733
31.8800,1.868
31.9200,1.754
31.9600,1.809
32.0000,1.838
32.0400,1.819
32.0800,1.802
32.1200,1.806
32.1600,1.873
32.2000,1.765
32.2400,1.678
32.2800,1.824
32.3200,1.701
32.3600,1.746
32.4000,1.901
32.4400,1.744
32.4800,1.791
32.5200,1.793
32.5600,1.785
32.6000,1.668
32.6400,1.652
32.6800,1.712
32.7200,1.770
32.7600,1.712
32.8000,1.772
32.8400,1.647
32.8800,1.763
32.9200,1.644
32.9600,1.707
33.0000,1.727
33.0400,2.247
33.0800,2.184
33.1200,1.896
33.1600,1.680
33.2000,1.696
33.2400,1.575
33.2800,1.640
33.3200,1.712
33.3600,1.677
33.4000,1.770
33.4400,1.771
33.4800,1.813
33.5200,1.599
33.5600,1.654
33.6000,1.570
33.6400,1.773
33.6800,1.732
33.7200,1.722
33.7600,1.705
33.8000,1.697
33.8400,1.629
33.8800,1.733
33.9200,1.720
33.9600,1.667
34.0000,1.684
34.0400,1.548
34.0800,1.636
34.1200,1.606
34.1600,1.642
34.2000,1.607
34.2400,1.633
34.2800,1.573
34.3200,1.554
34.3600,1.725
34.4000,1.615
34.4400,1.571
34.4800,1.708
34.5200,1.619
34.5600,1.611
34.6000,1.576
34.6400,1.561
34.6800,1.560
34.7200,1.594
34.7600,1.555
34.8000,1.601
34.8400,1.665
34.8800,1.587
34.9200,1.556
34.9600,1.590
35.0000,1.586
35.0400,1.618
35.0800,1.591
35.1200,1.544
35.1600,1.539
35.2000,1.485
35.2400,1.561
35.2800,1.556
35.3200,1.449
35.3600,1.454
35.4000,1.506
35.4400,1.548
35.4800,1.522
35.5200,1.558
35.5600,1.660
35.6000,1.534
35.6400,1.436
35.6800,1.557
35.7200,1.444
35.7600,1.554
35.8000,1.526
35.8400,1.548
35.8800,1.485
35.9200,1.472
35.9600,1.609
36.0000,1.575
36.0400,1.550
36.0800,1.472
36.1200,1.396
36.1600,1.447
36.2000,1.463
36.2400,1.449
36.2800,1.401
36.3200,1.414
36.3600,1.528
36.4000,1.396
36.4400,1.446
36.4800,1.452
36.5200,1.416
36.5600,1.400
36.6000,1.470
36.6400,1.374
36.6800,1.551
36.7200,1.401
36.7600,1.446
36.8000,1.445
36.8400,1.450
36.8800,1.439
36.9200,1.428
36.9600,1.512
37.0000,1.476
37.0400,1.401
37.0800,1.302
37.1200,1.448
37.1600,1.473
37.2000,1.482
37.2400,1.379
37.2800,1.407
37.3200,1.498
37.3600,1.347
37.4000,1.436
37.4400,1.354
37.4800,1.367
37.5200,1.445
37.5600,1.321
37.6000,1.347
37.6400,1.345
37.6800,1.300
37.7200,1.297
37.7600,1.250
37.8000,1.299
37.8400,1.327
37.8800,1.413
37.9200,1.404
37.9600,1.311
38.0000,1.356
38.0400,1.346
38.0800,1.362
38.1200,1.396
38.1600,1.425
38.2000,1.404
38.2400,1.356
38.2800,1.188
38.3200,1.334
38.3600,1.241
38.4000,1.194
38.4400,1.264
38.4800,1.344
38.5200,1.322
38.5600,1.295
38.6000,1.358
38.6400,1.369
38.6800,1.363
38.7200,1.331
38.7600,1.333
38.8000,1.308
38.8400,1.291
38.8800,1.257
38.9200,1.265
38.9600,1.240
39.0000,1.216
39.0400,1.247
39.0800,1.237
39.1200,1.230
39.1600,1.255
39.2000,1.291
39.2400,1.221
39.2800,1.238
39.3200,1.242
39.3600,1.236
39.4000,1.289
39.4400,1.217
39.4800,1.274
39.5200,1.255
39.5600,1.261
39.6000,1.173
39.6400,1.171
39.6800,1.205
39.7200,1.220
39.7600,1.278
39.8000,1.253
39.8400,1.285
39.8800,1.251
39.9200,1.277
39.9600,1.278
40.0000,1.192
40.0400,1.210
40.0800,1.177
40.1200,1.254
40.1600,1.317
40.2000,1.315
40.2400,1.386
40.2800,1.333
40.3200,1.289
40.3600,1.219
40.4000,1.231
40.4400,1.371
40.4800,1.290
40.5200,1.331
40.5600,1.233
40.6000,1.333
40.6400,1.353
40.6800,1.150
40.7200,1.278
40.7600,1.170
40.8000,1.114
40.8400,1.119
40.8800,1.253
40.9200,1.201
40.9600,1.198
41.0000,1.111
41.0400,1.239
41.0800,1.260
41.1200,1.192
41.1600,1.160
41.2000,1.090
41.2400,1.133
41.2800,1.120
41.3200,1.154
41.3600,1.183
41.4000,1.144
41.4400,1.128
41.4800,1.092
41.5200,1.101
41.5600,1.077
41.6000,1.090
41.6400,1.159
41.6800,1.250
41.7200,1.124
41.7600,1.121
41.8000,1.159
41.8400,1.100
41.8800,1.120
41.9200,1.082
41.9600,1.125
42.0000,1.146
42.0400,1.109
42.0800,1.151
42.1200,1.175
42.1600,1.076
42.2000,1.115
42.2400,1.057
42.2800,1.124
42.3200,1.068
42.3600,1.116
42.4000,1.145
42.4400,1.093
42.4800,1.107
42.5200,1.086
42.5600,1.045
42.6000,1.004
42.6400,1.001
42.6800,1.042
42.7200,1.082
42.7600,1.216
42.8000,0.994
42.8400,1.076
42.8800,1.054
42.9200,1.142
42.9600,1.077
43.0000,1.095
43.0400,1.059
43.0800,1.050
43.1200,1.039
43.1600,1.045
43.2000,0.988
43.2400,1.104
43.2800,1.152
43.3200,1.095
43.3600,1.018
43.4000,1.015
43.4400,1.010
43.4800,1.026
43.5200,1.091
43.5600,1.069
43.6000,1.016
43.6400,1.024
43.6800,1.036
43.7200,0.954
43.7600,1.014
43.8000,1.026
43.8400,1.023
43.8800,1.088
43.9200,0.999
43.9600,1.086
44.0000,1.031
44.0400,1.026
44.0800,1.047
44.1200,1.087
44.1600,1.109
44.2000,1.036
44.2400,1.026
44.2800,1.082
44.3200,1.034
44.3600,0.988
44.4000,1.033
44.4400,0.979
44.4800,1.075
44.5200,0.989
44.5600,1.040
44.6000,1.002
44.6400,1.030
44.6800,0.957
44.7200,0.929
44.7600,0.996
44.8000,0.939
44.8400,0.970
44.8800,0.962
44.9200,1.110
44.9600,0.971
45.0000,0.995
45.0400,0.963
45.0800,1.081
45.1200,0.925
45.1600,0.967
45.2000,0.977
45.2400,0.938
45.2800,0.954
45.3200,1.005
45.3600,0.972
45.4000,0.973
45.4400,0.968
45.4800,0.963
45.5200,1.059
45.5600,0.963
45.6000,0.971
45.6400,0.935
45.6800,0.924
45.7200,0.938
45.7600,0.951
45.8000,0.935
45.8400,1.031
45.8800,0.929
45.9200,0.971
45.9600,0.977
46.0000,0.947
46.0400,1.069
46.0800,0.936
46.1200,0.965
46.1600,1.041
46.2000,0.852
46.2400,0.945
46.2800,0.895
46.3200,0.998
46.3600,0.962
46.4000,0.979
46.4400,0.968
46.4800,1.013
46.5200,1.052
46.5600,0.910
46.6000,0.847
46.6400,0.903
46.6800,0.918
46.7200,0.946
46.7600,0.893
46.8000,0.991
46.8400,0.924
46.8800,0.905
46.9200,0.921
46.9600,0.964
47.0000,0.884
47.0400,0.904
47.0800,0.920
47.1200,0.913
47.1600,0.940
47.2000,0.928
47.2400,0.892
47.2800,0.942
47.3200,1.021
47.3600,0.936
47.4000,0.865
47.4400,0.948
47.4800,0.933
47.5200,0.921
47.5600,0.874
47.6000,0.934
47.6400,0.889
47.6800,0.937
47.7200,0.904
47.7600,0.962
47.8000,0.913
47.8400,0.939
47.8800,0.925
47.9200,0.925
47.9600,0.914
48.0000,0.912
48.0400,0.940
48.0800,0.994
48.1200,0.942
48.1600,0.900
48.2000,0.905
48.2400,0.948
48.2800,0.889
48.3200,0.885
48.3600,0.840
48.4000,0.925
48.4400,0.859
48.4800,0.912
48.5200,0.911
48.5600,0.907
48.6000,0.829
48.6400,0.813
48.6800,0.867
48.7200,0.842
48.7600,0.869
48.8000,0.871
48.8400,0.949
48.8800,0.834
48.9200,0.882
48.9600,0.851
49.0000,0.846
49.0400,0.913
49.0800,0.811
49.1200,0.873
49.1600,0.874
49.2000,0.848
49.2400,0.819
49.2800,0.824
49.3200,0.899
49.3600,0.874
49.4000,0.792
49.4400,0.917
49.4800,0.882
49.5200,0.894
49.5600,0.909
49.6000,0.823
49.6400,0.930
49.6800,0.906
49.7200,0.816
49.7600,0.773
49.8000,0.817
49.8400,0.860
49.8800,0.761
49.9200,0.813
49.9600,0.853
50.0000,0.834
50.0400,0.867
50.0800,0.867
50.1200,0.817
50.1600,0.803
50.2000,0.811
50.2400,0.828
50.2800,0.802
50.3200,0.819
50.3600,0.807
50.4000,0.810
50.4400,0.905
50.4800,0.870
50.5200,0.823
50.5600,0.848
50.6000,0.816
50.6400,0.851
50.6800,0.845
50.7200,0.783
50.7600,0.842
50.8000,0.812
50.8400,0.819
50.8800,0.878
50.9200,0.905
50.9600,0.820
51.0000,0.767
51.0400,0.775
51.0800,0.762
51.1200,0.812
51.1600,0.782
51.2000,0.790
51.2400,0.815
51.2800,0.844
51.3200,0.777
51.3600,0.889
51.4000,0.816
51.4400,0.862
51.4800,0.806
51.5200,0.783
51.5600,0.806
51.6000,0.811
51.6400,0.819
51.6800,0.812
51.7200,0.824
51.7600,0.780
51.8000,0.807
51.8400,0.816
51.8800,0.771
51.9200,0.722
51.9600,0.839
52.0000,0.777
52.0400,0.814
52.0800,0.784
52.1200,0.810
52.1600,0.804
52.2000,0.827
52.2400,0.838
52.2800,0.753
52.3200,0.753
52.3600,0.746
52.4000,0.775
52.4400,0.813
52.4800,0.775
52.5200,0.772
52.5600,0.773
52.6000,0.763
52.6400,0.818
52.6800,0.814
52.7200,0.736
52.7600,0.776
52.8000,0.752
52.8400,0.761
52.8800,0.869
52.9200,0.793
52.9600,0.786
53.0000,0.791
53.0400,0.791
53.0800,0.738
53.1200,0.792
53.1600,0.734
53.2000,0.763
53.2400,0.797
53.2800,0.739
53.3200,0.734
53.3600,0.739
53.4000,0.699
53.4400,0.718
53.4800,0.764
53.5200,0.812
53.5600,0.767
53.6000,0.725
53.6400,0.719
53.6800,0.739
53.7200,0.811
53.7600,0.760
53.8000,0.811
53.8400,0.707
53.8800,0.776
53.9200,0.852
53.9600,0.687
54.0000,0.723
54.0400,0.757
54.0800,0.781
54.1200,0.824
54.1600,0.731
54.2000,0.769
54.2400,0.720
54.2800,0.725
54.3200,0.725
54.3600,0.675
54.4000,0.749
54.4400,0.752
54.4800,0.696
54.5200,0.717
54.5600,0.735
54.6000,0.772
54.6400,0.729
54.6800,0.751
54.7200,0.714
54.7600,0.714
54.8000,0.650
54.8400,0.785
54.8800,0.721
54.9200,0.677
54.9600,0.712
55.0000,0.763
55.0400,0.699
55.0800,0.730
55.1200,0.724
55.1600,0.693
55.2000,0.715
55.2400,0.691
55.2800,0.685
55.3200,0.738
55.3600,0.687
55.4000,0.693
55.4400,0.744
55.4800,0.698
55.5200,0.682
55.5600,0.762
55.6000,0.680
55.6400,0.720
55.6800,0.675
55.7200,0.712
55.7600,0.759
55.8000,0.725
55.8400,0.689
55.8800,0.676
55.9200,0.641
55.9600,0.692
56.0000,0.664
56.0400,0.643
56.0800,0.750
56.1200,0.717
56.1600,0.705
56.2000,0.781
56.2400,0.650
56.2800,0.716
56.3200,0.722
56.3600,0.701
56.4000,0.695
56.4400,0.695
56.4800,0.664
56.5200,0.543
56.5600,0.639
56.6000,0.673
56.6400,0.670
56.6800,0.717
56.7200,0.640
56.7600,0.655
56.8000,0.669
56.8400,0.665
56.8800,0.635
56.9200,0.659
56.9600,0.667
57.0000,0.717
57.0400,0.623
57.0800,0.698
57.1200,0.722
57.1600,0.725
57.2000,0.664
57.2400,0.752
57.2800,0.665
57.3200,0.623
57.3600,0.674
57.4000,0.595
57.4400,0.714
57.4800,0.656
57.5200,0.611
57.5600,0.669
57.6000,0.686
57.6400,0.569
57.6800,0.641
57.7200,0.658
57.7600,0.583
57.8000,0.620
57.8400,0.684
57.8800,0.662
57.9200,0.637
57.9600,0.668
58.0000,0.663
58.0400,0.585
58.0800,0.618
58.1200,0.658
58.1600,0.656
58.2000,0.627
58.2400,0.682
58.2800,0.717
58.3200,0.606
58.3600,0.602
58.4000,0.629
58.4400,0.630
58.4800,0.702
58.5200,0.681
58.5600,0.679
58.6000,0.666
58.6400,0.730
58.6800,0.652
58.7200,0.652
58.7600,0.616
58.8000,0.616
58.8400,0.680
58.8800,0.709
58.9200,0.672
58.9600,0.634
59.0000,0.579
59.0400,0.635
59.0800,0.619
59.1200,0.613
59.1600,0.597
59.2000,0.582
59.2400,0.627
59.2800,0.628
59.3200,0.642
59.3600,0.623
59.4000,0.697
59.4400,0.612
59.4800,0.666
59.5200,0.653
59.5600,0.652
59.6000,0.583
59.6400,0.631
59.6800,0.587
59.7200,0.626
59.7600,0.628
59.8000,0.650
59.8400,0.616
59.8800,0.620
59.9200,0.612
59.9600,0.596
60.0000,0.616
60.0400,0.632
60.0800,0.614
60.1200,0.582
60.1600,0.685
60.2000,0.620
60.2400,0.637
60.2800,0.605
60.3200,0.700
60.3600,0.584
60.4000,0.591
60.4400,0.569
60.4800,0.602
60.5200,0.641
60.5600,0.616
60.6000,0.550
60.6400,0.586
60.6800,0.563
60.7200,0.556
60.7600,0.645
60.8000,0.607
60.8400,0.625
60.8800,0.565
60.9200,0.588
60.9600,0.640
61.0000,0.558
61.0400,0.602
61.0800,0.542
61.1200,0.627
61.1600,0.548
61.2000,0.520
61.2400,0.514
61.2800,0.595
61.3200,0.571
61.3600,0.548
61.4000,0.607
61.4400,0.606
61.4800,0.587
61.5200,0.561
61.5600,0.632
61.6000,0.581
61.6400,0.621
61.6800,0.674
61.7200,0.590
61.7600,0.631
61.8000,0.649
61.8400,0.579
61.8800,0.583
61.9200,0.571
61.9600,0.623
62.0000,0.583
62.0400,0.504
62.0800,0.544
62.1200,0.568
62.1600,0.570
62.2000,0.634
62.2400,0.551
62.2800,0.600
62.3200,0.589
62.3600,0.582
62.4000,0.586
62.4400,0.521
62.4800,0.550
62.5200,0.487
62.5600,0.593
62.6000,0.524
62.6400,0.603
62.6800,0.584
62.7200,0.577
62.7600,0.530
62.8000,0.576
62.8400,0.560
62.8800,0.596
62.9200,0.549
62.9600,0.568
63.0000,0.578
63.0400,0.555
63.0800,0.503
63.1200,0.565
63.1600,0.555
63.2000,0.587
63.2400,0.570
63.2800,0.572
63.3200,0.518
63.3600,0.587
63.4000,0.558
63.4400,0.528
63.4800,0.572
63.5200,0.560
63.5600,0.555
63.6000,0.524
63.6400,0.604
63.6800,0.631
63.7200,0.625
63.7600,0.635
63.8000,0.593
63.8400,0.599
63.8800,0.547
63.9200,0.526
63.9600,0.580
64.0000,0.633
64.0400,0.622
64.0800,0.595
64.1200,0.645
64.1600,0.566
64.2000,0.606
64.2400,0.569
64.2800,0.607
64.3200,0.631
64.3600,0.592
64.4000,0.557
64.4400,0.612
64.4800,0.601
64.5200,0.644
64.5600,0.591
64.6000,0.732
64.6400,0.584
64.6800,0.629
64.7200,0.639
64.7600,0.596
64.8000,0.602
64.8400,0.550
64.8800,0.608
64.9200,0.658
64.9600,0.590
65.0000,0.651
65.0400,0.686
65.0800,0.636
65.1200,0.660
65.1600,0.650
65.2000,0.668
65.2400,0.652
65.2800,0.682
65.3200,0.692
65.3600,0.629
65.4000,0.699
65.4400,0.631
65.4800,0.697
65.5200,0.651
65.5600,0.681
65.6000,0.654
65.6400,0.654
65.6800,0.710
65.7200,0.647
65.7600,0.718
65.8000,0.695
65.8400,0.757
65.8800,0.808
65.9200,0.721
65.9600,0.793
66.0000,0.738
66.0400,0.781
66.0800,0.717
66.1200,0.791
66.1600,0.799
66.2000,0.840
66.2400,0.849
66.2800,0.804
66.3200,0.791
66.3600,0.874
66.4000,0.919
66.4400,0.874
66.4800,0.901
66.5200,0.857
66.5600,0.814
66.6000,0.885
66.6400,0.941
66.6800,0.998
66.7200,0.984
66.7600,1.070
66.8000,1.030
66.8400,0.982
66.8800,1.027
66.9200,1.102
66.9600,1.089
67.0000,1.045
67.0400,1.110
67.0800,1.079
67.1200,1.106
67.1600,1.119
67.2000,1.130
67.2400,1.185
67.2800,1.231
67.3200,1.235
67.3600,1.241
67.4000,1.240
67.4400,1.177
67.4800,1.315
67.5200,1.406
67.5600,1.331
67.6000,1.419
67.6400,1.462
67.6800,1.471
67.7200,1.486
67.7600,1.558
67.8000,1.499
67.8400,1.573
67.8800,1.517
67.9200,1.739
67.9600,1.807
68.0000,1.830
68.0400,1.974
68.0800,1.884
68.1200,1.884
68.1600,2.015
68.2000,2.029
68.2400,2.039
68.2800,2.276
68.3200,2.380
68.3600,2.476
68.4000,2.607
68.4400,2.500
68.4800,2.738
68.5200,2.768
68.5600,2.994
68.6000,3.255
68.6400,3.564
68.6800,4.450
68.7200,5.583
68.7600,7.155
68.8000,8.282
68.8400,8.537
68.8800,8.575
68.9200,10.115
68.9600,13.677
69.0000,22.834
69.0400,55.079
69.0800,275.693
69.1200,587.123
69.1600,387.029
69.2000,94.945
69.2400,55.042
69.2800,162.642
69.3200,300.108
69.3600,187.079
69.4000,47.225
69.4400,17.852
69.4800,11.369
69.5200,8.505
69.5600,6.754
69.6000,6.051
69.6400,5.123
69.6800,4.627
69.7200,4.167
69.7600,3.922
69.8000,3.612
69.8400,3.367
69.8800,3.142
69.9200,2.918
69.9600,2.760
70.0000,2.570
70.0400,2.544
70.0800,2.568
70.1200,2.287
70.1600,2.255
70.2000,2.216
70.2400,2.139
70.2800,2.157
70.3200,2.121
70.3600,1.834
70.4000,1.892
70.4400,1.817
70.4800,1.693
70.5200,1.653
70.5600,1.643
70.6000,1.635
70.6400,1.485
70.6800,1.520
70.7200,1.565
70.7600,1.493
70.8000,1.384
70.8400,1.386
70.8800,1.304
70.9200,1.333
70.9600,1.213
71.0000,1.222
71.0400,1.170
71.0800,1.230
71.1200,1.081
71.1600,1.091
71.2000,1.094
71.2400,1.071
71.2800,0.984
71.3200,1.089
71.3600,1.098
71.4000,0.968
71.4400,0.860
71.4800,0.980
71.5200,0.949
71.5600,0.969
71.6000,0.938
71.6400,0.885
71.6800,0.868
71.7200,0.856
71.7600,0.738
71.8000,0.741
71.8400,0.764
71.8800,0.842
71.9200,0.780
71.9600,0.731
72.0000,0.673
72.0400,0.767
72.0800,0.669
72.1200,0.706
72.1600,0.688
72.2000,0.700
72.2400,0.622
72.2800,0.715
72.3200,0.631
72.3600,0.644
72.4000,0.616
72.4400,0.512
72.4800,0.626
72.5200,0.683
72.5600,0.602
72.6000,0.682
72.6400,0.641
72.6800,0.637
72.7200,0.658
72.7600,0.571
72.8000,0.615
72.8400,0.545
72.8800,0.512
72.9200,0.544
72.9600,0.578
73.0000,0.558
73.0400,0.551
73.0800,0.482
73.1200,0.568
73.1600,0.516
73.2000,0.514
73.2400,0.553
73.2800,0.556
73.3200,0.465
73.3600,0.545
73.4000,0.537
73.4400,0.594
73.4800,0.507
73.5200,0.521
73.5600,0.469
73.6000,0.490
73.6400,0.542
73.6800,0.491
73.7200,0.522
73.7600,0.480
73.8000,0.444
73.8400,0.432
73.8800,0.471
73.9200,0.505
73.9600,0.457
74.0000,0.479
74.0400,0.508
74.0800,0.425
74.1200,0.462
74.1600,0.465
74.2000,0.462
74.2400,0.434
74.2800,0.450
74.3200,0.425
74.3600,0.419
74.4000,0.452
74.4400,0.471
74.4800,0.428
74.5200,0.381
74.5600,0.426
74.6000,0.439
74.6400,0.405
74.6800,0.408
74.7200,0.428
74.7600,0.449
74.8000,0.422
74.8400,0.422
74.8800,0.386
74.9200,0.396
74.9600,0.366
75.0000,0.413
75.0400,0.402
75.0800,0.363
75.1200,0.339
75.1600,0.395
75.2000,0.361
75.2400,0.391
75.2800,0.379
75.3200,0.362
75.3600,0.365
75.4000,0.427
75.4400,0.363
75.4800,0.393
75.5200,0.402
75.5600,0.357
75.6000,0.363
75.6400,0.355
75.6800,0.359
75.7200,0.385
75.7600,0.429
75.8000,0.398
75.8400,0.350
75.8800,0.404
75.9200,0.345
75.9600,0.378
76.0000,0.396
76.0400,0.412
76.0800,0.357
76.1200,0.338
76.1600,0.303
76.2000,0.350
76.2400,0.349
76.2800,0.403
76.3200,0.351
76.3600,0.375
76.4000,0.396
76.4400,0.373
76.4800,0.335
76.5200,0.296
76.5600,0.315
76.6000,0.390
76.6400,0.348
76.6800,0.331
76.7200,0.322
76.7600,0.366
76.8000,0.405
76.8400,0.385
76.8800,0.343
76.9200,0.338
76.9600,0.300
77.0000,0.346
77.0400,0.287
77.0800,0.303
77.1200,0.312
77.1600,0.372
77.2000,0.371
77.2400,0.345
77.2800,0.314
77.3200,0.344
77.3600,0.330
77.4000,0.390
77.4400,0.331
77.4800,0.370
77.5200,0.354
77.5600,0.294
77.6000,0.364
77.6400,0.330
77.6800,0.346
77.7200,0.323
77.7600,0.375
77.8000,0.338
77.8400,0.336
77.8800,0.385
77.9200,0.363
77.9600,0.340
78.0000,0.335
78.0400,0.345
78.0800,0.362
78.1200,0.328
78.1600,0.340
78.2000,0.312
78.2400,0.359
78.2800,0.357
78.3200,0.303
78.3600,0.332
78.4000,0.269
78.4400,0.328
78.4800,0.372
78.5200,0.306
78.5600,0.308
78.6000,0.346
78.6400,0.354
78.6800,0.306
78.7200,0.336
78.7600,0.304
78.8000,0.348
78.8400,0.333
78.8800,0.376
78.9200,0.328
78.9600,0.313
79.0000,0.303
79.0400,0.264
79.0800,0.356
79.1200,0.332
79.1600,0.300
79.2000,0.364
79.2400,0.350
79.2800,0.298
79.3200,0.319
79.3600,0.322
79.4000,0.296
79.4400,0.294
79.4800,0.321
79.5200,0.280
79.5600,0.301
79.6000,0.336
79.6400,0.337
79.6800,0.287
79.7200,0.376
79.7600,0.318
79.8000,0.229
79.8400,0.286
79.8800,0.311
79.9200,0.302
79.9600,0.298
80.0000,0.280
80.0400,0.317
80.0800,0.333
80.1200,0.290
80.1600,0.279
80.2000,0.338
80.2400,0.330
80.2800,0.294
80.3200,0.279
80.3600,0.297
80.4000,0.304
80.4400,0.303
80.4800,0.302
80.5200,0.268
80.5600,0.303
80.6000,0.279
80.6400,0.312
80.6800,0.294
80.7200,0.288
80.7600,0.314
80.8000,0.274
80.8400,0.311
80.8800,0.279
80.9200,0.263
80.9600,0.304
81.0000,0.304
81.0400,0.289
81.0800,0.303
81.1200,0.283
81.1600,0.305
81.2000,0.333
81.2400,0.291
81.2800,0.299
81.3200,0.266
81.3600,0.285
81.4000,0.308
81.4400,0.273
81.4800,0.275
81.5200,0.275
81.5600,0.321
81.6000,0.214
81.6400,0.229
81.6800,0.307
81.7200,0.277
81.7600,0.280
81.8000,0.292
81.8400,0.294
81.8800,0.266
81.9200,0.219
81.9600,0.283
82.0000,0.332
82.0400,0.267
82.0800,0.265
82.1200,0.304
82.1600,0.315
82.2000,0.293
82.2400,0.278
82.2800,0.264
82.3200,0.270
82.3600,0.282
82.4000,0.262
82.4400,0.280
82.4800,0.305
82.5200,0.298
82.5600,0.289
82.6000,0.315
82.6400,0.312
82.6800,0.286
82.7200,0.248
82.7600,0.268
82.8000,0.259
82.8400,0.271
82.8800,0.343
82.9200,0.265
82.9600,0.300
83.0000,0.276
83.0400,0.280
83.0800,0.276
83.1200,0.292
83.1600,0.296
83.2000,0.273
83.2400,0.287
83.2800,0.299
83.3200,0.317
83.3600,0.278
83.4000,0.272
83.4400,0.277
83.4800,0.248
83.5200,0.267
83.5600,0.279
83.6000,0.285
83.6400,0.332
83.6800,0.270
83.7200,0.352
83.7600,0.281
83.8000,0.299
83.8400,0.310
83.8800,0.271
83.9200,0.271
83.9600,0.268
84.0000,0.309
84.0400,0.255
84.0800,0.236
84.1200,0.270
84.1600,0.283
84.2000,0.268
84.2400,0.300
84.2800,0.273
84.3200,0.297
84.3600,0.246
84.4000,0.242
84.4400,0.283
84.4800,0.246
84.5200,0.318
84.5600,0.253
84.6000,0.256
84.6400,0.274
84.6800,0.239
84.7200,0.267
84.7600,0.276
84.8000,0.329
84.8400,0.297
84.8800,0.268
84.9200,0.249
84.9600,0.281
85.0000,0.282
85.0400,0.255
85.0800,0.259
85.1200,0.244
85.1600,0.285
85.2000,0.322
85.2400,0.266
85.2800,0.299
85.3200,0.260
85.3600,0.236
85.4000,0.272
85.4400,0.281
85.4800,0.272
85.5200,0.278
85.5600,0.215
85.6000,0.303
85.6400,0.258
85.6800,0.273
85.7200,0.255
85.7600,0.229
85.8000,0.231
85.8400,0.239
85.8800,0.263
85.9200,0.233
85.9600,0.280
86.0000,0.231
86.0400,0.234
86.0800,0.316
86.1200,0.263
86.1600,0.276
86.2000,0.275
86.2400,0.224
86.2800,0.254
86.3200,0.253
86.3600,0.259
86.4000,0.269
86.4400,0.305
86.4800,0.298
86.5200,0.204
86.5600,0.220
86.6000,0.237
86.6400,0.262
86.6800,0.238
86.7200,0.278
86.7600,0.271
86.8000,0.217
86.8400,0.242
86.8800,0.261
86.9200,0.283
86.9600,0.250
87.0000,0.279
87.0400,0.281
87.0800,0.264
87.1200,0.286
87.1600,0.269
87.2000,0.229
87.2400,0.270
87.2800,0.254
87.3200,0.267
87.3600,0.204
87.4000,0.340
87.4400,0.242
87.4800,0.238
87.5200,0.225
87.5600,0.288
87.6000,0.256
87.6400,0.297
87.6800,0.276
87.7200,0.256
87.7600,0.223
87.8000,0.238
87.8400,0.252
87.8800,0.252
87.9200,0.262
87.9600,0.270
88.0000,0.300
88.0400,0.278
88.0800,0.218
88.1200,0.273
88.1600,0.247
88.2000,0.271
88.2400,0.286
88.2800,0.254
88.3200,0.255
88.3600,0.240
88.4000,0.235
88.4400,0.264
88.4800,0.249
88.5200,0.281
88.5600,0.221
88.6000,0.223
88.6400,0.249
88.6800,0.244
88.7200,0.237
88.7600,0.269
88.8000,0.239
88.8400,0.261
88.8800,0.229
88.9200,0.237
88.9600,0.293
89.0000,0.249
89.0400,0.295
89.0800,0.228
89.1200,0.276
89.1600,0.243
89.2000,0.251
89.2400,0.256
89.2800,0.257
89.3200,0.247
89.3600,0.282
89.4000,0.241
89.4400,0.219
89.4800,0.196
89.5200,0.259
89.5600,0.254
89.6000,0.220
89.6400,0.253
89.6800,0.253
89.7200,0.254
89.7600,0.235
89.8000,0.260
89.8400,0.278
89.8800,0.265
89.9200,0.264
89.9600,0.275
90.0000,0.233
