5.0400,6.683
5.0800,6.633
5.1200,6.804
5.1600,6.488
5.2000,6.609
5.2400,6.455
5.2800,6.349
5.3200,5.929
5.3600,6.225
5.4000,6.149
5.4400,5.802
5.4800,5.866
5.5200,5.831
5.5600,5.646
5.6000,5.537
5.6400,5.183
5.6800,5.416
5.7200,5.287
5.7600,5.234
5.8000,5.258
5.8400,5.048
5.8800,4.968
5.9200,4.824
5.9600,4.888
6.0000,4.809
6.0400,4.493
6.0800,4.815
6.1200,4.489
6.1600,4.341
6.2000,4.472
6.2400,4.499
6.2800,4.397
6.3200,4.577
6.3600,4.330
6.4000,4.581
6.4400,4.410
6.4800,4.344
6.5200,4.291
6.5600,4.394
6.6000,4.529
6.6400,4.436
6.6800,4.396
6.7200,4.348
6.7600,4.375
6.8000,4.358
6.8400,4.317
6.8800,4.246
6.9200,4.349
6.9600,4.273
7.0000,4.230
7.0400,4.256
7.0800,4.105
7.1200,4.182
7.1600,4.344
7.2000,4.055
7.2400,4.180
7.2800,4.214
7.3200,4.250
7.3600,4.069
7.4000,4.141
7.4400,4.162
7.4800,4.271
7.5200,4.400
7.5600,4.413
7.6000,4.443
7.6400,4.165
7.6800,4.316
7.7200,4.318
7.7600,4.234
7.8000,4.156
7.8400,4.216
7.8800,4.106
7.9200,4.165
7.9600,4.297
8.0000,4.215
8.0400,4.285
8.0800,4.266
8.1200,4.074
8.1600,4.322
8.2000,4.156
8.2400,4.155
8.2800,4.134
8.3200,3.916
8.3600,4.201
8.4000,4.316
8.4400,4.058
8.4800,4.235
8.5200,4.121
8.5600,4.256
8.6000,3.975
8.6400,4.054
8.6800,4.239
8.7200,4.061
8.7600,4.120
8.8000,4.135
8.8400,4.064
8.8800,4.053
8.9200,4.207
8.9600,4.208
9.0000,4.148
9.0400,4.051
9.0800,4.144
9.1200,3.975
9.1600,4.140
9.2000,4.011
9.2400,3.968
9.2800,3.903
9.3200,4.041
9.3600,3.931
9.4000,4.038
9.4400,3.876
9.4800,4.015
9.5200,3.880
9.5600,3.973
9.6000,3.820
9.6400,4.076
9.6800,3.954
9.7200,4.124
9.7600,3.793
9.8000,3.987
9.8400,3.895
9.8800,3.994
9.9200,3.932
9.9600,3.841
10.0000,4.007
10.0400,4.058
10.0800,4.046
10.1200,3.820
10.1600,3.990
10.2000,3.783
10.2400,3.918
10.2800,3.838
10.3200,3.828
10.3600,3.888
10.4000,3.954
10.4400,3.795
10.4800,4.002
10.5200,3.834
10.5600,3.707
10.6000,3.770
10.6400,3.860
10.6800,3.765
10.7200,3.835
10.7600,3.785
10.8000,3.751
10.8400,3.877
10.8800,3.761
10.9200,3.717
10.9600,3.802
11.0000,3.732
11.0400,3.708
11.0800,3.598
11.1200,3.701
11.1600,3.707
11.2000,3.628
11.2400,3.818
11.2800,3.654
11.3200,3.719
11.3600,3.555
11.4000,3.695
11.4400,3.675
11.4800,3.485
11.5200,3.451
11.5600,3.581
11.6000,3.615
11.6400,3.666
11.6800,3.701
11.7200,3.762
11.7600,3.512
11.8000,3.464
11.8400,3.526
11.8800,3.422
11.9200,3.600
11.9600,3.606
12.0000,3.425
12.0400,3.484
12.0800,3.540
12.1200,3.458
12.1600,3.597
12.2000,3.430
12.2400,3.574
12.2800,3.417
12.3200,3.500
12.3600,3.469
12.4000,3.498
12.4400,3.526
12.4800,3.581
12.5200,3.344
12.5600,3.467
12.6000,3.539
12.6400,3.519
12.6800,3.434
12.7200,3.468
12.7600,3.417
12.8000,3.470
12.8400,3.337
12.8800,3.552
12.9200,3.453
12.9600,3.431
13.0000,3.496
13.0400,3.276
13.0800,3.509
13.1200,3.661
13.1600,3.425
13.2000,3.330
13.2400,3.560
13.2800,3.433
13.3200,3.409
13.3600,3.518
13.4000,3.351
13.4400,3.467
13.4800,3.371
13.5200,3.358
13.5600,3.426
13.6000,3.347
13.6400,3.434
13.6800,3.356
13.7200,3.514
13.7600,3.402
13.8000,3.377
13.8400,3.365
13.8800,3.276
13.9200,3.368
13.9600,3.345
14.0000,3.362
14.0400,3.179
14.0800,3.335
14.1200,3.122
14.1600,3.286
14.2000,3.338
14.2400,3.247
14.2800,3.259
14.3200,3.308
14.3600,3.303
14.4000,3.277
14.4400,3.258
14.4800,3.164
14.5200,3.090
14.5600,3.187
14.6000,3.260
14.6400,3.374
14.6800,3.056
14.7200,3.335
14.7600,3.306
14.8000,3.146
14.8400,3.120
14.8800,3.284
14.9200,3.165
14.9600,3.148
15.0000,3.266
15.0400,3.213
15.0800,3.368
15.1200,3.189
15.1600,3.143
15.2000,3.225
15.2400,3.158
15.2800,3.251
15.3200,3.154
15.3600,3.085
15.4000,3.303
15.4400,3.161
15.4800,3.110
15.5200,3.245
15.5600,3.017
15.6000,3.129
15.6400,3.227
15.6800,3.103
15.7200,3.084
15.7600,3.316
15.8000,3.237
15.8400,3.001
15.8800,3.265
15.9200,3.162
15.9600,3.112
16.0000,3.140
16.0400,3.211
16.0800,3.055
16.1200,3.285
16.1600,3.075
16.2000,3.042
16.2400,3.078
16.2800,3.080
16.3200,3.011
16.3600,3.038
16.4000,3.093
16.4400,3.147
16.4800,3.104
16.5200,3.214
16.5600,3.077
16.6000,2.958
16.6400,3.157
16.6800,3.093
16.7200,2.972
16.7600,2.893
16.8000,3.131
16.8400,2.891
16.8800,2.947
16.9200,2.965
16.9600,2.885
17.0000,3.004
17.0400,2.971
17.0800,2.995
17.1200,2.960
17.1600,2.957
17.2000,2.911
17.2400,3.000
17.2800,2.957
17.3200,2.831
17.3600,3.049
17.4000,2.855
17.4400,3.058
17.4800,2.897
17.5200,2.955
17.5600,2.958
17.6000,3.007
17.6400,2.829
17.6800,2.984
17.7200,2.957
17.7600,2.775
17.8000,2.816
17.8400,2.792
17.8800,3.116
17.9200,2.910
17.9600,2.881
18.0000,2.908
18.0400,2.908
18.0800,3.001
18.1200,2.811
18.1600,2.870
18.2000,2.890
18.2400,2.862
18.2800,2.798
18.3200,2.939
18.3600,2.727
18.4000,2.872
18.4400,2.862
18.4800,2.806
18.5200,2.790
18.5600,2.673
18.6000,2.727
18.6400,2.879
18.6800,2.918
18.7200,2.837
18.7600,2.924
18.8000,2.829
18.8400,2.861
18.8800,2.750
18.9200,2.810
18.9600,2.701
19.0000,2.814
19.0400,2.811
19.0800,2.816
19.1200,2.836
19.1600,2.935
19.2000,2.809
19.2400,2.574
19.2800,2.701
19.3200,2.647
19.3600,2.733
19.4000,2.724
19.4400,2.784
19.4800,2.939
19.5200,2.819
19.5600,2.836
19.6000,2.763
19.6400,2.643
19.6800,2.708
19.7200,2.682
19.7600,2.595
19.8000,2.750
19.8400,2.731
19.8800,2.651
19.9200,2.699
19.9600,2.671
20.0000,2.769
20.0400,2.857
20.0800,2.728
20.1200,2.778
20.1600,2.803
20.2000,2.737
20.2400,2.642
20.2800,2.746
20.3200,2.712
20.3600,2.583
20.4000,2.721
20.4400,2.719
20.4800,2.632
20.5200,2.723
20.5600,2.720
20.6000,2.705
20.6400,2.669
20.6800,2.585
20.7200,2.759
20.7600,2.747
20.8000,2.762
20.8400,2.582
20.8800,2.740
20.9200,2.605
20.9600,2.562
21.0000,2.647
21.0400,2.670
21.0800,2.596
21.1200,2.537
21.1600,2.587
21.2000,2.640
21.2400,2.712
21.2800,2.648
21.3200,2.653
21.3600,2.649
21.4000,2.635
21.4400,2.606
21.4800,2.563
21.5200,2.648
21.5600,2.547
21.6000,2.548
21.6400,2.702
21.6800,2.667
21.7200,2.493
21.7600,2.581
21.8000,2.610
21.8400,2.577
21.8800,2.644
21.9200,2.618
21.9600,2.549
22.0000,2.621
22.0400,2.615
22.0800,2.573
22.1200,2.537
22.1600,2.682
22.2000,2.551
22.2400,2.620
22.2800,2.663
22.3200,2.603
22.3600,2.632
22.4000,2.710
22.4400,2.537
22.4800,2.426
22.5200,2.528
22.5600,2.492
22.6000,2.612
22.6400,2.706
22.6800,2.616
22.7200,2.553
22.7600,2.537
22.8000,2.497
22.8400,2.538
22.8800,2.559
22.9200,2.544
22.9600,2.604
23.0000,2.478
23.0400,2.554
23.0800,2.532
23.1200,2.544
23.1600,2.669
23.2000,2.491
23.2400,2.518
23.2800,2.352
23.3200,2.449
23.3600,2.318
23.4000,2.361
23.4400,2.462
23.4800,2.393
23.5200,2.586
23.5600,2.478
23.6000,2.572
23.6400,2.504
23.6800,2.477
23.7200,2.509
23.7600,2.564
23.8000,2.431
23.8400,2.539
23.8800,2.281
23.9200,2.325
23.9600,2.460
24.0000,2.562
24.0400,2.518
24.0800,2.632
24.1200,2.534
24.1600,2.464
24.2000,2.465
24.2400,2.426
24.2800,2.474
24.3200,2.349
24.3600,2.431
24.4000,2.528
24.4400,2.378
24.4800,2.400
24.5200,2.307
24.5600,2.395
24.6000,2.456
24.6400,2.385
24.6800,2.401
24.7200,2.388
24.7600,2.337
24.8000,2.427
24.8400,2.435
24.8800,2.289
24.9200,2.407
24.9600,2.337
25.0000,2.446
25.0400,2.405
25.0800,2.432
25.1200,2.354
25.1600,2.425
25.2000,2.385
25.2400,2.373
25.2800,2.370
25.3200,2.380
25.3600,2.417
25.4000,2.398
25.4400,2.362
25.4800,2.257
25.5200,2.268
25.5600,2.332
25.6000,2.270
25.6400,2.397
25.6800,2.235
25.7200,2.262
25.7600,2.436
25.8000,2.381
25.8400,2.403
25.8800,2.427
25.9200,2.402
25.9600,2.378
26.0000,2.270
26.0400,2.522
26.0800,2.377
26.1200,2.352
26.1600,2.421
26.2000,2.332
26.2400,2.329
26.2800,2.339
26.3200,2.264
26.3600,2.281
26.4000,2.248
26.4400,2.373
26.4800,2.306
26.5200,2.328
26.5600,2.363
26.6000,2.299
26.6400,2.319
26.6800,2.260
26.7200,2.224
26.7600,2.204
26.8000,2.193
26.8400,2.237
26.8800,2.213
26.9200,2.287
26.9600,2.201
27.0000,2.248
27.0400,2.198
27.0800,2.188
27.1200,2.262
27.1600,2.223
27.2000,2.202
27.2400,2.145
27.2800,2.214
27.3200,2.233
27.3600,2.033
27.4000,2.157
27.4400,2.106
27.4800,2.261
27.5200,2.174
27.5600,2.159
27.6000,2.149
27.6400,2.251
27.6800,2.185
27.7200,2.206
27.7600,2.247
27.8000,2.096
27.8400,2.074
27.8800,2.318
27.9200,2.109
27.9600,2.141
28.0000,2.131
28.0400,1.954
28.0800,2.170
28.1200,2.119
28.1600,2.202
28.2000,2.139
28.2400,2.202
28.2800,2.038
28.3200,2.101
28.3600,2.178
28.4000,2.021
28.4400,2.133
28.4800,2.194
28.5200,2.141
28.5600,2.102
28.6000,2.050
28.6400,2.089
28.6800,2.124
28.7200,2.053
28.7600,2.078
28.8000,2.116
28.8400,2.118
28.8800,2.136
28.9200,2.113
28.9600,1.936
29.0000,1.936
29.0400,1.997
29.0800,2.013
29.1200,2.054
29.1600,2.115
29.2000,2.041
29.2400,2.012
29.2800,2.198
29.3200,1.909
29.3600,1.948
29.4000,1.944
29.4400,2.053
29.4800,2.066
29.5200,1.940
29.5600,1.988
29.6000,1.878
29.6400,1.937
29.6800,1.986
29.7200,1.975
29.7600,1.859
29.8000,1.958
29.8400,1.930
29.8800,1.856
29.9200,1.992
29.9600,1.948
30.0000,2.080
30.0400,1.846
30.0800,2.011
30.1200,1.972
30.1600,1.888
30.2000,1.921
30.2400,1.898
30.2800,1.882
30.3200,1.804
30.3600,1.901
30.4000,1.791
30.4400,1.891
30.4800,1.901
30.5200,1.991
30.5600,1.931
30.6000,1.864
30.6400,1.824
30.6800,1.775
30.7200,1.795
30.7600,1.886
30.8000,1.882
30.8400,1.857
30.8800,1.894
30.9200,1.933
30.9600,1.916
31.0000,1.925
31.0400,1.859
31.0800,1.814
31.1200,1.842
31.1600,1.918
31.2000,1.777
31.2400,1.878
31.2800,1.733
31.3200,1.822
31.3600,1.877
31.4000,1.794
31.4400,1.859
31.4800,1.871
31.5200,1.829
31.5600,1.842
31.6000,1.767
31.6400,1.743
31.6800,1.783
31.7200,1.836
31.7600,1.733
31.8000,1.898
31.8400,1.745
31.8800,1.777
31.9200,1.769
31.9600,1.717
32.0000,1.735
32.0400,1.728
32.0800,1.778
32.1200,1.731
32.1600,1.774
32.2000,1.793
32.2400,1.646
32.2800,1.767
32.3200,1.838
32.3600,1.701
32.4000,1.733
32.4400,1.772
32.4800,1.734
32.5200,1.724
32.5600,1.624
32.6000,1.604
32.6400,1.750
32.6800,1.711
32.7200,1.772
32.7600,1.755
32.8000,1.607
32.8400,1.627
32.8800,1.581
32.9200,1.604
32.9600,1.714
33.0000,1.719
33.0400,2.006
33.0800,1.990
33.1200,1.845
33.1600,1.658
33.2000,1.753
33.2400,1.739
33.2800,1.774
33.3200,1.550
33.3600,1.652
33.4000,1.681
33.4400,1.658
33.4800,1.671
33.5200,1.624
33.5600,1.544
33.6000,1.638
33.6400,1.566
33.6800,1.558
33.7200,1.604
33.7600,1.692
33.8000,1.634
33.8400,1.694
33.8800,1.587
33.9200,1.651
33.9600,1.621
34.0000,1.561
34.0400,1.619
34.0800,1.632
34.1200,1.624
34.1600,1.675
34.2000,1.656
34.2400,1.555
34.2800,1.545
34.3200,1.538
34.3600,1.638
34.4000,1.631
34.4400,1.524
34.4800,1.443
34.5200,1.436
34.5600,1.542
34.6000,1.606
34.6400,1.606
34.6800,1.537
34.7200,1.552
34.7600,1.577
34.8000,1.642
34.8400,1.464
34.8800,1.494
34.9200,1.579
34.9600,1.446
35.0000,1.438
35.0400,1.368
35.0800,1.524
35.1200,1.586
35.1600,1.530
35.2000,1.494
35.2400,1.628
35.2800,1.473
35.3200,1.411
35.3600,1.496
35.4000,1.436
35.4400,1.558
35.4800,1.562
35.5200,1.532
35.5600,1.483
35.6000,1.451
35.6400,1.418
35.6800,1.503
35.7200,1.341
35.7600,1.526
35.8000,1.479
35.8400,1.423
35.8800,1.507
35.9200,1.419
35.9600,1.472
36.0000,1.541
36.0400,1.447
36.0800,1.499
36.1200,1.352
36.1600,1.496
36.2000,1.475
36.2400,1.492
36.2800,1.415
36.3200,1.514
36.3600,1.475
36.4000,1.447
36.4400,1.425
36.4800,1.438
36.5200,1.448
36.5600,1.453
36.6000,1.517
36.6400,1.397
36.6800,1.366
36.7200,1.315
36.7600,1.407
36.8000,1.445
36.8400,1.477
36.8800,1.387
36.9200,1.294
36.9600,1.333
37.0000,1.447
37.0400,1.337
37.0800,1.373
37.1200,1.476
37.1600,1.338
37.2000,1.398
37.2400,1.447
37.2800,1.421
37.3200,1.438
37.3600,1.392
37.4000,1.336
37.4400,1.348
37.4800,1.228
37.5200,1.319
37.5600,1.396
37.6000,1.304
37.6400,1.300
37.6800,1.372
37.7200,1.362
37.7600,1.387
37.8000,1.188
37.8400,1.288
37.8800,1.371
37.9200,1.244
37.9600,1.318
38.0000,1.309
38.0400,1.422
38.0800,1.217
38.1200,1.261
38.1600,1.325
38.2000,1.287
38.2400,1.343
38.2800,1.339
38.3200,1.292
38.3600,1.235
38.4000,1.285
38.4400,1.267
38.4800,1.332
38.5200,1.333
38.5600,1.273
38.6000,1.405
38.6400,1.205
38.6800,1.276
38.7200,1.179
38.7600,1.246
38.8000,1.352
38.8400,1.245
38.8800,1.339
38.9200,1.300
38.9600,1.212
39.0000,1.292
39.0400,1.205
39.0800,1.242
39.1200,1.248
39.1600,1.258
39.2000,1.269
39.2400,1.206
39.2800,1.233
39.3200,1.248
39.3600,1.114
39.4000,1.193
39.4400,1.211
39.4800,1.200
39.5200,1.193
39.5600,1.222
39.6000,1.229
39.6400,1.237
39.6800,1.145
39.7200,1.259
39.7600,1.195
39.8000,1.214
39.8400,1.248
39.8800,1.211
39.9200,1.214
39.9600,1.159
40.0000,1.222
40.0400,1.252
40.0800,1.267
40.1200,1.145
40.1600,1.258
40.2000,1.244
40.2400,1.223
40.2800,1.355
40.3200,1.162
40.3600,1.168
40.4000,1.197
40.4400,1.315
40.4800,1.258
40.5200,1.359
40.5600,1.198
40.6000,1.294
40.6400,1.378
40.6800,1.277
40.7200,1.139
40.7600,1.230
40.8000,1.185
40.8400,1.112
40.8800,1.123
40.9200,1.140
40.9600,1.148
41.0000,1.135
41.0400,1.077
41.0800,1.182
41.1200,1.121
41.1600,1.134
41.2000,1.145
41.2400,1.082
41.2800,1.158
41.3200,1.126
41.3600,1.214
41.4000,1.300
41.4400,1.091
41.4800,1.050
41.5200,1.194
41.5600,1.164
41.6000,1.102
41.6400,1.167
41.6800,1.170
41.7200,1.107
41.7600,1.106
41.8000,1.157
41.8400,1.043
41.8800,1.167
41.9200,1.144
41.9600,1.038
42.0000,1.175
42.0400,1.015
42.0800,1.088
42.1200,1.084
42.1600,1.077
42.2000,0.952
42.2400,1.061
42.2800,1.058
42.3200,1.046
42.3600,1.068
42.4000,1.100
42.4400,1.107
42.4800,1.108
42.5200,1.078
42.5600,1.029
42.6000,1.091
42.6400,1.013
42.6800,1.057
42.7200,1.157
42.7600,1.123
42.8000,0.995
42.8400,0.983
42.8800,1.049
42.9200,1.072
42.9600,0.989
43.0000,1.046
43.0400,1.064
43.0800,1.036
43.1200,1.002
43.1600,1.070
43.2000,1.126
43.2400,1.072
43.2800,0.973
43.3200,1.042
43.3600,0.985
43.4000,1.032
43.4400,1.002
43.4800,0.975
43.5200,1.108
43.5600,1.034
43.6000,1.070
43.6400,1.003
43.6800,1.011
43.7200,0.971
43.7600,1.013
43.8000,1.031
43.8400,1.081
43.8800,0.989
43.9200,0.992
43.9600,0.941
44.0000,1.047
44.0400,0.960
44.0800,0.949
44.1200,0.983
44.1600,1.065
44.2000,1.003
44.2400,1.088
44.2800,1.013
44.3200,0.940
44.3600,1.081
44.4000,0.974
44.4400,0.954
44.4800,1.014
44.5200,0.985
44.5600,1.063
44.6000,1.018
44.6400,1.042
44.6800,0.956
44.7200,0.973
44.7600,1.023
44.8000,1.010
44.8400,0.988
44.8800,0.972
44.9200,0.951
44.9600,0.957
45.0000,0.980
45.0400,0.977
45.0800,0.897
45.1200,1.017
45.1600,0.936
45.2000,0.945
45.2400,1.003
45.2800,0.938
45.3200,1.020
45.3600,0.878
45.4000,1.080
45.4400,0.986
45.4800,0.990
45.5200,0.936
45.5600,0.927
45.6000,0.971
45.6400,1.009
45.6800,0.926
45.7200,0.963
45.7600,0.942
45.8000,0.901
45.8400,0.949
45.8800,0.961
45.9200,0.866
45.9600,0.896
46.0000,0.921
46.0400,0.933
46.0800,0.933
46.1200,0.937
46.1600,0.918
46.2000,0.859
46.2400,0.853
46.2800,0.943
46.3200,0.893
46.3600,0.905
46.4000,0.903
46.4400,0.987
46.4800,1.009
46.5200,0.846
46.5600,0.947
46.6000,0.905
46.6400,0.923
46.6800,0.910
46.7200,0.921
46.7600,0.910
46.8000,0.915
46.8400,0.903
46.8800,0.923
46.9200,0.939
46.9600,0.879
47.0000,1.016
47.0400,0.960
47.0800,1.023
47.1200,0.825
47.1600,0.876
47.2000,0.910
47.2400,0.902
47.2800,0.970
47.3200,0.949
47.3600,0.978
47.4000,0.934
47.4400,0.867
47.4800,0.828
47.5200,0.793
47.5600,0.930
47.6000,0.861
47.6400,0.887
47.6800,0.916
47.7200,0.825
47.7600,0.860
47.8000,0.930
47.8400,0.912
47.8800,0.980
47.9200,0.833
47.9600,0.934
48.0000,0.872
48.0400,0.856
48.0800,0.877
48.1200,0.826
48.1600,0.942
48.2000,0.850
48.2400,0.877
48.2800,0.877
48.3200,0.792
48.3600,0.805
48.4000,0.903
48.4400,0.851
48.4800,0.883
48.5200,0.867
48.5600,0.903
48.6000,0.866
48.6400,0.807
48.6800,0.865
48.7200,0.807
48.7600,0.909
48.8000,0.883
48.8400,0.890
48.8800,0.961
48.9200,0.773
48.9600,0.884
49.0000,0.831
49.0400,0.804
49.0800,0.881
49.1200,0.819
49.1600,0.843
49.2000,0.881
49.2400,0.813
49.2800,0.834
49.3200,0.907
49.3600,0.833
49.4000,0.878
49.4400,0.853
49.4800,0.798
49.5200,0.822
49.5600,0.923
49.6000,0.815
49.6400,0.793
49.6800,0.743
49.7200,0.873
49.7600,0.874
49.8000,0.808
49.8400,0.947
49.8800,0.856
49.9200,0.856
49.9600,0.837
50.0000,0.802
50.0400,0.756
50.0800,0.788
50.1200,0.788
50.1600,0.849
50.2000,0.823
50.2400,0.824
50.2800,0.776
50.3200,0.786
50.3600,0.779
50.4000,0.764
50.4400,0.827
50.4800,0.808
50.5200,0.757
50.5600,0.810
50.6000,0.796
50.6400,0.739
50.6800,0.776
50.7200,0.780
50.7600,0.767
50.8000,0.826
50.8400,0.791
50.8800,0.760
50.9200,0.730
50.9600,0.835
51.0000,0.790
51.0400,0.771
51.0800,0.818
51.1200,0.741
51.1600,0.799
51.2000,0.777
51.2400,0.793
51.2800,0.732
51.3200,0.722
51.3600,0.771
51.4000,0.757
51.4400,0.822
51.4800,0.698
51.5200,0.796
51.5600,0.858
51.6000,0.702
51.6400,0.797
51.6800,0.756
51.7200,0.687
51.7600,0.803
51.8000,0.678
51.8400,0.791
51.8800,0.821
51.9200,0.796
51.9600,0.713
52.0000,0.788
52.0400,0.808
52.0800,0.745
52.1200,0.798
52.1600,0.765
52.2000,0.788
52.2400,0.807
52.2800,0.739
52.3200,0.788
52.3600,0.753
52.4000,0.743
52.4400,0.653
52.4800,0.717
52.5200,0.666
52.5600,0.802
52.6000,0.692
52.6400,0.755
52.6800,0.737
52.7200,0.774
52.7600,0.800
52.8000,0.716
52.8400,0.722
52.8800,0.765
52.9200,0.783
52.9600,0.747
53.0000,0.720
53.0400,0.719
53.0800,0.719
53.1200,0.799
53.1600,0.767
53.2000,0.808
53.2400,0.674
53.2800,0.681
53.3200,0.755
53.3600,0.807
53.4000,0.759
53.4400,0.703
53.4800,0.680
53.5200,0.772
53.5600,0.778
53.6000,0.779
53.6400,0.687
53.6800,0.817
53.7200,0.686
53.7600,0.636
53.8000,0.756
53.8400,0.637
53.8800,0.710
53.9200,0.724
53.9600,0.742
54.0000,0.804
54.0400,0.769
54.0800,0.778
54.1200,0.642
54.1600,0.730
54.2000,0.730
54.2400,0.722
54.2800,0.762
54.3200,0.696
54.3600,0.688
54.4000,0.656
54.4400,0.727
54.4800,0.678
54.5200,0.738
54.5600,0.682
54.6000,0.735
54.6400,0.712
54.6800,0.736
54.7200,0.745
54.7600,0.679
54.8000,0.649
54.8400,0.691
54.8800,0.697
54.9200,0.804
54.9600,0.716
55.0000,0.636
55.0400,0.626
55.0800,0.668
55.1200,0.622
55.1600,0.701
55.2000,0.741
55.2400,0.628
55.2800,0.618
55.3200,0.674
55.3600,0.690
55.4000,0.644
55.4400,0.617
55.4800,0.671
55.5200,0.741
55.5600,0.679
55.6000,0.621
55.6400,0.749
55.6800,0.568
55.7200,0.644
55.7600,0.633
55.8000,0.647
55.8400,0.615
55.8800,0.668
55.9200,0.678
55.9600,0.760
56.0000,0.726
56.0400,0.609
56.0800,0.680
56.1200,0.628
56.1600,0.706
56.2000,0.676
56.2400,0.730
56.2800,0.634
56.3200,0.660
56.3600,0.676
56.4000,0.569
56.4400,0.657
56.4800,0.633
56.5200,0.661
56.5600,0.639
56.6000,0.645
56.6400,0.674
56.6800,0.660
56.7200,0.674
56.7600,0.682
56.8000,0.616
56.8400,0.633
56.8800,0.666
56.9200,0.634
56.9600,0.707
57.0000,0.617
57.0400,0.659
57.0800,0.665
57.1200,0.694
57.1600,0.575
57.2000,0.655
57.2400,0.561
57.2800,0.649
57.3200,0.586
57.3600,0.572
57.4000,0.641
57.4400,0.675
57.4800,0.636
57.5200,0.634
57.5600,0.642
57.6000,0.607
57.6400,0.642
57.6800,0.608
57.7200,0.646
57.7600,0.651
57.8000,0.594
57.8400,0.686
57.8800,0.646
57.9200,0.657
57.9600,0.662
58.0000,0.658
58.0400,0.641
58.0800,0.633
58.1200,0.614
58.1600,0.643
58.2000,0.661
58.2400,0.665
58.2800,0.607
58.3200,0.740
58.3600,0.575
58.4000,0.512
58.4400,0.577
58.4800,0.699
58.5200,0.684
58.5600,0.636
58.6000,0.631
58.6400,0.617
58.6800,0.577
58.7200,0.649
58.7600,0.639
58.8000,0.611
58.8400,0.602
58.8800,0.648
58.9200,0.578
58.9600,0.603
59.0000,0.624
59.0400,0.589
59.0800,0.672
59.1200,0.643
59.1600,0.625
59.2000,0.587
59.2400,0.591
59.2800,0.633
59.3200,0.573
59.3600,0.563
59.4000,0.605
59.4400,0.717
59.4800,0.622
59.5200,0.609
59.5600,0.665
59.6000,0.625
59.6400,0.574
59.6800,0.659
59.7200,0.554
59.7600,0.557
59.8000,0.638
59.8400,0.552
59.8800,0.630
59.9200,0.622
59.9600,0.581
60.0000,0.605
60.0400,0.580
60.0800,0.599
60.1200,0.594
60.1600,0.654
60.2000,0.587
60.2400,0.557
60.2800,0.676
60.3200,0.603
60.3600,0.601
60.4000,0.596
60.4400,0.590
60.4800,0.655
60.5200,0.630
60.5600,0.548
60.6000,0.571
60.6400,0.615
60.6800,0.510
60.7200,0.649
60.7600,0.566
60.8000,0.597
60.8400,0.566
60.8800,0.586
60.9200,0.596
60.9600,0.587
61.0000,0.521
61.0400,0.617
61.0800,0.616
61.1200,0.561
61.1600,0.575
61.2000,0.532
61.2400,0.525
61.2800,0.568
61.3200,0.525
61.3600,0.609
61.4000,0.578
61.4400,0.548
61.4800,0.548
61.5200,0.568
61.5600,0.538
61.6000,0.632
61.6400,0.626
61.6800,0.632
61.7200,0.639
61.7600,0.556
61.8000,0.579
61.8400,0.613
61.8800,0.519
61.9200,0.583
61.9600,0.615
62.0000,0.514
62.0400,0.522
62.0800,0.546
62.1200,0.552
62.1600,0.571
62.2000,0.517
62.2400,0.562
62.2800,0.687
62.3200,0.568
62.3600,0.545
62.4000,0.566
62.4400,0.531
62.4800,0.517
62.5200,0.554
62.5600,0.620
62.6000,0.577
62.6400,0.598
62.6800,0.505
62.7200,0.596
62.7600,0.617
62.8000,0.531
62.8400,0.494
62.8800,0.577
62.9200,0.565
62.9600,0.534
63.0000,0.612
63.0400,0.568
63.0800,0.592
63.1200,0.530
63.1600,0.571
63.2000,0.487
63.2400,0.504
63.2800,0.600
63.3200,0.589
63.3600,0.609
63.4000,0.554
63.4400,0.602
63.4800,0.630
63.5200,0.596
63.5600,0.624
63.6000,0.541
63.6400,0.548
63.6800,0.596
63.7200,0.610
63.7600,0.607
63.8000,0.531
63.8400,0.603
63.8800,0.586
63.9200,0.577
63.9600,0.601
64.0000,0.543
64.0400,0.582
64.0800,0.603
64.1200,0.585
64.1600,0.633
64.2000,0.603
64.2400,0.621
64.2800,0.602
64.3200,0.618
64.3600,0.617
64.4000,0.625
64.4400,0.622
64.4800,0.624
64.5200,0.540
64.5600,0.564
64.6000,0.639
64.6400,0.572
64.6800,0.598
64.7200,0.610
64.7600,0.608
64.8000,0.655
64.8400,0.652
64.8800,0.577
64.9200,0.574
64.9600,0.577
65.0000,0.690
65.0400,0.624
65.0800,0.677
65.1200,0.594
65.1600,0.658
65.2000,0.673
65.2400,0.607
65.2800,0.623
65.3200,0.628
65.3600,0.704
65.4000,0.576
65.4400,0.667
65.4800,0.750
65.5200,0.737
65.5600,0.680
65.6000,0.683
65.6400,0.646
65.6800,0.705
65.7200,0.712
65.7600,0.693
65.8000,0.733
65.8400,0.762
65.8800,0.794
65.9200,0.713
65.9600,0.799
66.0000,0.772
66.0400,0.771
66.0800,0.799
66.1200,0.844
66.1600,0.798
66.2000,0.820
66.2400,0.772
66.2800,0.868
66.3200,0.810
66.3600,0.838
66.4000,0.858
66.4400,0.964
66.4800,0.890
66.5200,0.899
66.5600,0.932
66.6000,0.977
66.6400,1.001
66.6800,0.911
66.7200,0.993
66.7600,0.986
66.8000,1.035
66.8400,0.967
66.8800,1.097
66.9200,1.090
66.9600,1.025
67.0000,1.106
67.0400,1.096
67.0800,1.076
67.1200,1.226
67.1600,1.214
67.2000,1.143
67.2400,1.193
67.2800,1.212
67.3200,1.277
67.3600,1.261
67.4000,1.261
67.4400,1.310
67.4800,1.319
67.5200,1.426
67.5600,1.420
67.6000,1.518
67.6400,1.569
67.6800,1.443
67.7200,1.546
67.7600,1.522
67.8000,1.678
67.8400,1.630
67.8800,1.714
67.9200,1.794
67.9600,1.783
68.0000,1.796
68.0400,1.899
68.0800,1.842
68.1200,1.975
68.1600,2.136
68.2000,2.262
68.2400,2.090
68.2800,2.339
68.3200,2.339
68.3600,2.430
68.4000,2.533
68.4400,2.659
68.4800,2.767
68.5200,3.001
68.5600,3.034
68.6000,3.480
68.6400,3.605
68.6800,4.114
68.7200,5.594
68.7600,7.243
68.8000,8.453
68.8400,8.729
68.8800,8.849
68.9200,9.948
68.9600,13.637
69.0000,21.936
69.0400,50.431
69.0800,248.121
69.1200,598.535
69.1600,443.347
69.2000,113.078
69.2400,54.958
69.2800,151.474
69.3200,305.295
69.3600,213.979
69.4000,56.487
69.4400,19.504
69.4800,11.722
69.5200,9.023
69.5600,6.870
69.6000,6.076
69.6400,5.289
69.6800,4.497
69.7200,4.115
69.7600,4.004
69.8000,3.701
69.8400,3.424
69.8800,3.275
69.9200,2.874
69.9600,2.907
70.0000,2.672
70.0400,2.576
70.0800,2.550
70.1200,2.563
70.1600,2.270
70.2000,2.168
70.2400,2.179
70.2800,2.097
70.3200,2.041
70.3600,1.936
70.4000,1.875
70.4400,1.810
70.4800,1.799
70.5200,1.697
70.5600,1.623
70.6000,1.656
70.6400,1.538
70.6800,1.575
70.7200,1.568
70.7600,1.493
70.8000,1.414
70.8400,1.424
70.8800,1.256
70.9200,1.390
70.9600,1.236
71.0000,1.193
71.0400,1.238
71.0800,1.166
71.1200,1.086
71.1600,1.206
71.2000,1.187
71.2400,1.150
71.2800,1.118
71.3200,1.051
71.3600,0.984
71.4000,0.970
71.4400,0.996
71.4800,1.012
71.5200,0.965
71.5600,0.892
71.6000,0.922
71.6400,0.885
71.6800,0.907
71.7200,0.906
71.7600,0.819
71.8000,0.747
71.8400,0.778
71.8800,0.785
71.9200,0.778
71.9600,0.821
72.0000,0.732
72.0400,0.697
72.0800,0.755
72.1200,0.825
72.1600,0.650
72.2000,0.633
72.2400,0.660
72.2800,0.704
72.3200,0.677
72.3600,0.638
72.4000,0.669
72.4400,0.657
72.4800,0.654
72.5200,0.585
72.5600,0.649
72.6000,0.671
72.6400,0.628
72.6800,0.582
72.7200,0.595
72.7600,0.609
72.8000,0.599
72.8400,0.571
72.8800,0.567
72.9200,0.569
72.9600,0.538
73.0000,0.510
73.0400,0.496
73.0800,0.483
73.1200,0.533
73.1600,0.572
73.2000,0.524
73.2400,0.550
73.2800,0.445
73.3200,0.487
73.3600,0.556
73.4000,0.493
73.4400,0.484
73.4800,0.485
73.5200,0.476
73.5600,0.520
73.6000,0.502
73.6400,0.489
73.6800,0.492
73.7200,0.507
73.7600,0.481
73.8000,0.434
73.8400,0.553
73.8800,0.494
73.9200,0.413
73.9600,0.450
74.0000,0.454
74.0400,0.460
74.0800,0.469
74.1200,0.436
74.1600,0.489
74.2000,0.450
74.2400,0.474
74.2800,0.474
74.3200,0.445
74.3600,0.396
74.4000,0.402
74.4400,0.391
74.4800,0.410
74.5200,0.388
74.5600,0.410
74.6000,0.413
74.6400,0.450
74.6800,0.463
74.7200,0.397
74.7600,0.367
74.8000,0.429
74.8400,0.413
74.8800,0.414
74.9200,0.355
74.9600,0.421
75.0000,0.378
75.0400,0.370
75.0800,0.416
75.1200,0.413
75.1600,0.355
75.2000,0.375
75.2400,0.382
75.2800,0.385
75.3200,0.391
75.3600,0.385
75.4000,0.425
75.4400,0.329
75.4800,0.324
75.5200,0.338
75.5600,0.359
75.6000,0.360
75.6400,0.350
75.6800,0.337
75.7200,0.383
75.7600,0.390
75.8000,0.346
75.8400,0.324
75.8800,0.364
75.9200,0.357
75.9600,0.394
76.0000,0.354
76.0400,0.399
76.0800,0.371
76.1200,0.394
76.1600,0.379
76.2000,0.349
76.2400,0.331
76.2800,0.352
76.3200,0.371
76.3600,0.361
76.4000,0.349
76.4400,0.320
76.4800,0.315
76.5200,0.338
76.5600,0.329
76.6000,0.328
76.6400,0.404
76.6800,0.366
76.7200,0.325
76.7600,0.395
76.8000,0.360
76.8400,0.359
76.8800,0.279
76.9200,0.358
76.9600,0.322
77.0000,0.313
77.0400,0.397
77.0800,0.369
77.1200,0.355
77.1600,0.338
77.2000,0.365
77.2400,0.350
77.2800,0.277
77.3200,0.318
77.3600,0.338
77.4000,0.336
77.4400,0.394
77.4800,0.321
77.5200,0.354
77.5600,0.298
77.6000,0.317
77.6400,0.347
77.6800,0.315
77.7200,0.361
77.7600,0.301
77.8000,0.333
77.8400,0.295
77.8800,0.345
77.9200,0.276
77.9600,0.325
78.0000,0.368
78.0400,0.345
78.0800,0.327
78.1200,0.262
78.1600,0.343
78.2000,0.348
78.2400,0.339
78.2800,0.343
78.3200,0.351
78.3600,0.288
78.4000,0.317
78.4400,0.325
78.4800,0.317
78.5200,0.336
78.5600,0.343
78.6000,0.299
78.6400,0.338
78.6800,0.302
78.7200,0.307
78.7600,0.366
78.8000,0.335
78.8400,0.312
78.8800,0.304
78.9200,0.313
78.9600,0.345
79.0000,0.296
79.0400,0.303
79.0800,0.299
79.1200,0.304
79.1600,0.293
79.2000,0.307
79.2400,0.302
79.2800,0.291
79.3200,0.319
79.3600,0.331
79.4000,0.321
79.4400,0.261
79.4800,0.316
79.5200,0.314
79.5600,0.287
79.6000,0.296
79.6400,0.286
79.6800,0.296
79.7200,0.331
79.7600,0.293
79.8000,0.264
79.8400,0.277
79.8800,0.299
79.9200,0.293
79.9600,0.321
80.0000,0.332
80.0400,0.271
80.0800,0.282
80.1200,0.298
80.1600,0.334
80.2000,0.306
80.2400,0.258
80.2800,0.288
80.3200,0.269
80.3600,0.291
80.4000,0.331
80.4400,0.283
80.4800,0.240
80.5200,0.265
80.5600,0.300
80.6000,0.285
80.6400,0.283
80.6800,0.267
80.7200,0.237
80.7600,0.326
80.8000,0.278
80.8400,0.327
80.8800,0.305
80.9200,0.274
80.9600,0.296
81.0000,0.257
81.0400,0.276
81.0800,0.277
81.1200,0.254
81.1600,0.305
81.2000,0.312
81.2400,0.248
81.2800,0.262
81.3200,0.287
81.3600,0.283
81.4000,0.257
81.4400,0.279
81.4800,0.285
81.5200,0.285
81.5600,0.265
81.6000,0.278
81.6400,0.267
81.6800,0.266
81.7200,0.289
81.7600,0.310
81.8000,0.300
81.8400,0.281
81.8800,0.310
81.9200,0.239
81.9600,0.265
82.0000,0.265
82.0400,0.310
82.0800,0.317
82.1200,0.302
82.1600,0.307
82.2000,0.245
82.2400,0.255
82.2800,0.269
82.3200,0.292
82.3600,0.292
82.4000,0.310
82.4400,0.282
82.4800,0.282
82.5200,0.284
82.5600,0.263
82.6000,0.278
82.6400,0.326
82.6800,0.259
82.7200,0.262
82.7600,0.226
82.8000,0.266
82.8400,0.254
82.8800,0.253
82.9200,0.255
82.9600,0.251
83.0000,0.318
83.0400,0.272
83.0800,0.263
83.1200,0.289
83.1600,0.224
83.2000,0.271
83.2400,0.281
83.2800,0.261
83.3200,0.300
83.3600,0.269
83.4000,0.291
83.4400,0.272
83.4800,0.275
83.5200,0.274
83.5600,0.297
83.6000,0.243
83.6400,0.257
83.6800,0.238
83.7200,0.281
83.7600,0.259
83.8000,0.259
83.8400,0.271
83.8800,0.267
83.9200,0.267
83.9600,0.308
84.0000,0.323
84.0400,0.305
84.0800,0.294
84.1200,0.266
84.1600,0.303
84.2000,0.282
84.2400,0.220
84.2800,0.243
84.3200,0.284
84.3600,0.274
84.4000,0.252
84.4400,0.252
84.4800,0.263
84.5200,0.265
84.5600,0.233
84.6000,0.265
84.6400,0.218
84.6800,0.255
84.7200,0.282
84.7600,0.266
84.8000,0.266
84.8400,0.244
84.8800,0.256
84.9200,0.268
84.9600,0.261
85.0000,0.257
85.0400,0.236
85.0800,0.252
85.1200,0.267
85.1600,0.267
85.2000,0.210
85.2400,0.306
85.2800,0.293
85.3200,0.275
85.3600,0.234
85.4000,0.257
85.4400,0.255
85.4800,0.253
85.5200,0.291
85.5600,0.269
85.6000,0.283
85.6400,0.272
85.6800,0.286
85.7200,0.303
85.7600,0.269
85.8000,0.245
85.8400,0.262
85.8800,0.262
85.9200,0.276
85.9600,0.254
86.0000,0.235
86.0400,0.249
86.0800,0.295
86.1200,0.233
86.1600,0.284
86.2000,0.257
86.2400,0.232
86.2800,0.226
86.3200,0.301
86.3600,0.279
86.4000,0.236
86.4400,0.255
86.4800,0.242
86.5200,0.219
86.5600,0.250
86.6000,0.259
86.6400,0.227
86.6800,0.271
86.7200,0.278
86.7600,0.257
86.8000,0.259
86.8400,0.214
86.8800,0.245
86.9200,0.260
86.9600,0.234
87.0000,0.254
87.0400,0.271
87.0800,0.279
87.1200,0.258
87.1600,0.231
87.2000,0.248
87.2400,0.258
87.2800,0.249
87.3200,0.243
87.3600,0.251
87.4000,0.223
87.4400,0.243
87.4800,0.214
87.5200,0.216
87.5600,0.242
87.6000,0.215
87.6400,0.234
87.6800,0.284
87.7200,0.257
87.7600,0.260
87.8000,0.248
87.8400,0.329
87.8800,0.232
87.9200,0.283
87.9600,0.278
88.0000,0.214
88.0400,0.232
88.0800,0.272
88.1200,0.270
88.1600,0.280
88.2000,0.215
88.2400,0.247
88.2800,0.286
88.3200,0.241
88.3600,0.244
88.4000,0.272
88.4400,0.316
88.4800,0.238
88.5200,0.249
88.5600,0.231
88.6000,0.232
88.6400,0.273
88.6800,0.282
88.7200,0.253
88.7600,0.230
88.8000,0.246
88.8400,0.208
88.8800,0.261
88.9200,0.220
88.9600,0.303
89.0000,0.286
89.0400,0.247
89.0800,0.219
89.1200,0.211
89.1600,0.264
89.2000,0.254
89.2400,0.249
89.2800,0.234
89.3200,0.247
89.3600,0.275
89.4000,0.226
89.4400,0.220
89.4800,0.259
89.5200,0.252
89.5600,0.237
89.6000,0.252
89.6400,0.277
89.6800,0.227
89.7200,0.210
89.7600,0.221
89.8000,0.211
89.8400,0.244
89.8800,0.258
89.9200,0.250
89.9600,0.241
90.0000,0.186
