5.0400,6.299
5.0800,6.219
5.1200,5.936
5.1600,5.913
5.2000,5.835
5.2400,5.805
5.2800,5.754
5.3200,5.587
5.3600,5.461
5.4000,5.540
5.4400,5.577
5.4800,5.394
5.5200,5.297
5.5600,5.113
5.6000,5.178
5.6400,4.926
5.6800,4.789
5.7200,4.830
5.7600,4.776
5.8000,4.663
5.8400,4.640
5.8800,4.546
5.9200,4.491
5.9600,4.462
6.0000,4.608
6.0400,4.507
6.0800,4.354
6.1200,4.452
6.1600,4.376
6.2000,4.151
6.2400,4.005
6.2800,4.218
6.3200,4.221
6.3600,4.323
6.4000,4.198
6.4400,4.387
6.4800,4.245
6.5200,3.966
6.5600,4.193
6.6000,4.361
6.6400,4.224
6.6800,4.329
6.7200,4.291
6.7600,4.187
6.8000,4.297
6.8400,4.172
6.8800,4.126
6.9200,4.213
6.9600,4.134
7.0000,4.303
7.0400,4.187
7.0800,4.107
7.1200,4.010
7.1600,3.929
7.2000,4.006
7.2400,4.136
7.2800,4.017
7.3200,3.943
7.3600,4.124
7.4000,4.097
7.4400,4.072
7.4800,4.142
7.5200,4.121
7.5600,4.039
7.6000,4.022
7.6400,4.085
7.6800,3.962
7.7200,3.990
7.7600,4.114
7.8000,4.008
7.8400,3.894
7.8800,3.894
7.9200,3.907
7.9600,3.937
8.0000,4.031
8.0400,3.864
8.0800,3.846
8.1200,3.788
8.1600,3.995
8.2000,3.873
8.2400,4.036
8.2800,3.939
8.3200,3.978
8.3600,3.888
8.4000,3.796
8.4400,3.745
8.4800,3.898
8.5200,3.838
8.5600,3.928
8.6000,3.961
8.6400,3.978
8.6800,3.889
8.7200,3.819
8.7600,3.854
8.8000,3.783
8.8400,3.851
8.8800,4.025
8.9200,3.778
8.9600,3.651
9.0000,3.829
9.0400,3.756
9.0800,3.892
9.1200,3.700
9.1600,3.712
9.2000,3.679
9.2400,3.743
9.2800,3.846
9.3200,3.722
9.3600,3.819
9.4000,3.834
9.4400,3.833
9.4800,3.791
9.5200,3.618
9.5600,3.783
9.6000,3.887
9.6400,3.820
9.6800,3.815
9.7200,3.834
9.7600,3.739
9.8000,3.709
9.8400,3.768
9.8800,3.717
9.9200,3.767
9.9600,3.734
10.0000,3.559
10.0400,3.829
10.0800,3.798
10.1200,3.685
10.1600,3.664
10.2000,3.665
10.2400,3.652
10.2800,3.778
10.3200,3.597
10.3600,3.733
10.4000,3.789
10.4400,3.867
10.4800,3.577
10.5200,3.741
10.5600,3.514
10.6000,3.732
10.6400,3.631
10.6800,3.650
10.7200,3.732
10.7600,3.643
10.8000,3.653
10.8400,3.579
10.8800,3.602
10.9200,3.778
10.9600,3.509
11.0000,3.605
11.0400,3.598
11.0800,3.534
11.1200,3.742
11.1600,3.665
11.2000,3.742
11.2400,3.584
11.2800,3.529
11.3200,3.543
11.3600,3.562
11.4000,3.765
11.4400,3.543
11.4800,3.559
11.5200,3.582
11.5600,3.535
11.6000,3.571
11.6400,3.568
11.6800,3.446
11.7200,3.546
11.7600,3.676
11.8000,3.479
11.8400,3.552
11.8800,3.414
11.9200,3.555
11.9600,3.527
12.0000,3.498
12.0400,3.434
12.0800,3.477
12.1200,3.501
12.1600,3.514
12.2000,3.536
12.2400,3.414
12.2800,3.426
12.3200,3.492
12.3600,3.466
12.4000,3.671
12.4400,3.425
12.4800,3.531
12.5200,3.403
12.5600,3.451
12.6000,3.569
12.6400,3.347
12.6800,3.351
12.7200,3.532
12.7600,3.435
12.8000,3.308
12.8400,3.339
12.8800,3.452
12.9200,3.487
12.9600,3.516
13.0000,3.294
13.0400,3.436
13.0800,3.435
13.1200,3.473
13.1600,3.415
13.2000,3.394
13.2400,3.451
13.2800,3.353
13.3200,3.331
13.3600,3.477
13.4000,3.357
13.4400,3.220
13.4800,3.393
13.5200,3.304
13.5600,3.433
13.6000,3.573
13.6400,3.327
13.6800,3.409
13.7200,3.389
13.7600,3.378
13.8000,3.259
13.8400,3.136
13.8800,3.388
13.9200,3.247
13.9600,3.417
14.0000,3.417
14.0400,3.392
14.0800,3.447
14.1200,3.248
14.1600,3.389
14.2000,3.294
14.2400,3.291
14.2800,3.241
14.3200,3.368
14.3600,3.172
14.4000,3.316
14.4400,3.250
14.4800,3.330
14.5200,3.071
14.5600,3.286
14.6000,3.137
14.6400,3.147
14.6800,3.176
14.7200,3.322
14.7600,3.168
14.8000,3.235
14.8400,3.369
14.8800,3.176
14.9200,3.361
14.9600,3.184
15.0000,3.058
15.0400,3.229
15.0800,3.220
15.1200,3.111
15.1600,3.231
15.2000,3.279
15.2400,3.225
15.2800,3.061
15.3200,3.145
15.3600,3.009
15.4000,3.175
15.4400,3.205
15.4800,3.180
15.5200,3.125
15.5600,3.050
15.6000,3.259
15.6400,3.115
15.6800,3.251
15.7200,3.074
15.7600,3.194
15.8000,3.220
15.8400,3.142
15.8800,3.167
15.9200,3.031
15.9600,3.111
16.0000,3.290
16.0400,3.116
16.0800,3.095
16.1200,3.072
16.1600,3.105
16.2000,2.977
16.2400,3.159
16.2800,2.988
16.3200,3.108
16.3600,3.005
16.4000,3.034
16.4400,3.187
16.4800,2.980
16.5200,3.068
16.5600,3.108
16.6000,3.071
16.6400,2.992
16.6800,2.975
16.7200,3.128
16.7600,3.013
16.8000,3.082
16.8400,3.123
16.8800,2.919
16.9200,2.965
16.9600,3.073
17.0000,3.103
17.0400,3.003
17.0800,3.097
17.1200,2.989
17.1600,3.117
17.2000,3.029
17.2400,2.988
17.2800,3.076
17.3200,3.021
17.3600,3.052
17.4000,2.996
17.4400,3.083
17.4800,3.138
17.5200,2.893
17.5600,2.902
17.6000,2.973
17.6400,2.852
17.6800,3.060
17.7200,2.850
17.7600,2.994
17.8000,2.883
17.8400,2.900
17.8800,2.881
17.9200,2.941
17.9600,3.052
18.0000,3.064
18.0400,2.887
18.0800,2.884
18.1200,3.031
18.1600,2.972
18.2000,2.930
18.2400,2.977
18.2800,2.960
18.3200,2.841
18.3600,2.875
18.4000,2.919
18.4400,2.914
18.4800,2.851
18.5200,2.922
18.5600,2.883
18.6000,2.895
18.6400,2.956
18.6800,2.867
18.7200,2.925
18.7600,2.891
18.8000,2.897
18.8400,2.878
18.8800,2.894
18.9200,2.999
18.9600,2.789
19.0000,2.778
19.0400,2.871
19.0800,2.967
19.1200,2.793
19.1600,2.909
19.2000,2.747
19.2400,2.870
19.2800,2.767
19.3200,2.826
19.3600,2.910
19.4000,2.734
19.4400,2.830
19.4800,2.899
19.5200,2.718
19.5600,2.714
19.6000,2.852
19.6400,2.693
19.6800,2.921
19.7200,2.993
19.7600,2.900
19.8000,2.723
19.8400,2.880
19.8800,2.653
19.9200,2.786
19.9600,2.693
20.0000,2.713
20.0400,2.774
20.0800,2.843
20.1200,2.807
20.1600,2.692
20.2000,2.790
20.2400,2.766
20.2800,2.742
20.3200,2.811
20.3600,2.746
20.4000,2.770
20.4400,2.818
20.4800,2.898
20.5200,2.749
20.5600,2.750
20.6000,2.699
20.6400,2.627
20.6800,2.765
20.7200,2.685
20.7600,2.684
20.8000,2.708
20.8400,2.707
20.8800,2.543
20.9200,2.597
20.9600,2.693
21.0000,2.658
21.0400,2.651
21.0800,2.699
21.1200,2.692
21.1600,2.584
21.2000,2.528
21.2400,2.538
21.2800,2.528
21.3200,2.561
21.3600,2.546
21.4000,2.595
21.4400,2.719
21.4800,2.546
21.5200,2.497
21.5600,2.517
21.6000,2.636
21.6400,2.671
21.6800,2.498
21.7200,2.457
21.7600,2.517
21.8000,2.579
21.8400,2.583
21.8800,2.460
21.9200,2.579
21.9600,2.647
22.0000,2.611
22.0400,2.537
22.0800,2.512
22.1200,2.588
22.1600,2.610
22.2000,2.594
22.2400,2.516
22.2800,2.581
22.3200,2.463
22.3600,2.469
22.4000,2.477
22.4400,2.436
22.4800,2.483
22.5200,2.535
22.5600,2.564
22.6000,2.461
22.6400,2.685
22.6800,2.365
22.7200,2.484
22.7600,2.502
22.8000,2.446
22.8400,2.470
22.8800,2.515
22.9200,2.551
22.9600,2.616
23.0000,2.480
23.0400,2.378
23.0800,2.534
23.1200,2.531
23.1600,2.495
23.2000,2.449
23.2400,2.427
23.2800,2.455
23.3200,2.500
23.3600,2.456
23.4000,2.513
23.4400,2.312
23.4800,2.407
23.5200,2.421
23.5600,2.556
23.6000,2.436
23.6400,2.476
23.6800,2.361
23.7200,2.419
23.7600,2.387
23.8000,2.355
23.8400,2.431
23.8800,2.323
23.9200,2.460
23.9600,2.460
24.0000,2.343
24.0400,2.347
24.0800,2.440
24.1200,2.384
24.1600,2.311
24.2000,2.346
24.2400,2.320
24.2800,2.369
24.3200,2.270
24.3600,2.270
24.4000,2.412
24.4400,2.208
24.4800,2.241
24.5200,2.358
24.5600,2.321
24.6000,2.281
24.6400,2.354
24.6800,2.325
24.7200,2.205
24.7600,2.417
24.8000,2.270
24.8400,2.233
24.8800,2.241
24.9200,2.254
24.9600,2.191
25.0000,2.257
25.0400,2.346
25.0800,2.311
25.1200,2.348
25.1600,2.236
25.2000,2.124
25.2400,2.327
25.2800,2.299
25.3200,2.245
25.3600,2.257
25.4000,2.280
25.4400,2.198
25.4800,2.325
25.5200,2.205
25.5600,2.362
25.6000,2.313
25.6400,2.224
25.6800,2.271
25.7200,2.208
25.7600,2.239
25.8000,2.234
25.8400,2.260
25.8800,2.249
25.9200,2.100
25.9600,2.181
26.0000,2.268
26.0400,2.164
26.0800,2.168
26.1200,2.210
26.1600,2.362
26.2000,2.237
26.2400,2.184
26.2800,2.166
26.3200,2.230
26.3600,2.200
26.4000,2.250
26.4400,2.217
26.4800,2.151
26.5200,2.138
26.5600,2.230
26.6000,2.230
26.6400,2.186
26.6800,2.247
26.7200,2.185
26.7600,2.121
26.8000,2.225
26.8400,2.076
26.8800,2.079
26.9200,2.171
26.9600,2.038
27.0000,2.106
27.0400,2.160
27.0800,2.066
27.1200,2.133
27.1600,2.165
27.2000,2.083
27.2400,1.937
27.2800,2.071
27.3200,1.989
27.3600,2.026
27.4000,2.088
27.4400,2.117
27.4800,2.141
27.5200,2.139
27.5600,2.088
27.6000,2.026
27.6400,1.971
27.6800,2.111
27.7200,2.000
27.7600,2.136
27.8000,2.097
27.8400,2.137
27.8800,1.967
27.9200,2.032
27.9600,2.001
28.0000,2.042
28.0400,2.102
28.0800,2.152
28.1200,2.064
28.1600,1.968
28.2000,1.966
28.2400,1.959
28.2800,1.989
28.3200,2.121
28.3600,1.993
28.4000,2.133
28.4400,2.044
28.4800,2.035
28.5200,2.021
28.5600,1.927
28.6000,1.908
28.6400,2.069
28.6800,2.106
28.7200,2.011
28.7600,2.007
28.8000,2.063
28.8400,1.993
28.8800,1.926
28.9200,1.983
28.9600,2.056
29.0000,1.978
29.0400,1.988
29.0800,2.000
29.1200,1.937
29.1600,1.914
29.2000,1.971
29.2400,2.051
29.2800,1.850
29.3200,1.957
29.3600,2.004
29.4000,2.036
29.4400,1.958
29.4800,1.831
29.5200,1.924
29.5600,1.887
29.6000,1.892
29.6400,1.954
29.6800,1.983
29.7200,1.879
29.7600,2.013
29.8000,2.002
29.8400,1.812
29.8800,1.909
29.9200,1.955
29.9600,1.822
30.0000,1.961
30.0400,1.999
30.0800,1.887
30.1200,1.953
30.1600,1.812
30.2000,1.814
30.2400,1.859
30.2800,1.829
30.3200,1.869
30.3600,1.848
30.4000,1.827
30.4400,1.779
30.4800,1.873
30.5200,1.837
30.5600,1.802
30.6000,1.857
30.6400,1.843
30.6800,1.836
30.7200,1.842
30.7600,1.778
30.8000,1.837
30.8400,1.791
30.8800,1.806
30.9200,1.850
30.9600,1.830
31.0000,1.862
31.0400,1.792
31.0800,1.774
31.1200,1.875
31.1600,1.789
31.2000,1.814
31.2400,1.868
31.2800,1.790
31.3200,1.845
31.3600,1.751
31.4000,1.838
31.4400,1.712
31.4800,1.845
31.5200,1.872
31.5600,1.849
31.6000,1.775
31.6400,1.841
31.6800,1.790
31.7200,1.791
31.7600,1.814
31.8000,1.863
31.8400,1.749
31.8800,1.728
31.9200,1.803
31.9600,1.754
32.0000,1.823
32.0400,1.813
32.0800,1.876
32.1200,1.758
32.1600,1.752
32.2000,1.666
32.2400,1.742
32.2800,1.719
32.3200,1.724
32.3600,1.776
32.4000,1.865
32.4400,1.688
32.4800,1.749
32.5200,1.742
32.5600,1.676
32.6000,1.833
32.6400,1.732
32.6800,1.781
32.7200,1.749
32.7600,1.769
32.8000,1.764
32.8400,1.893
32.8800,1.712
32.9200,1.843
32.9600,1.701
33.0000,1.855
33.0400,1.748
33.0800,1.738
33.1200,1.788
33.1600,1.664
33.2000,1.658
33.2400,1.641
33.2800,1.667
33.3200,1.656
33.3600,1.637
33.4000,1.738
33.4400,1.718
33.4800,1.634
33.5200,1.632
33.5600,1.703
33.6000,1.620
33.6400,1.609
33.6800,1.721
33.7200,1.770
33.7600,1.678
33.8000,1.639
33.8400,1.557
33.8800,1.636
33.9200,1.687
33.9600,1.584
34.0000,1.614
34.0400,1.815
34.0800,1.680
34.1200,1.678
34.1600,1.663
34.2000,1.595
34.2400,1.573
34.2800,1.690
34.3200,1.603
34.3600,1.619
34.4000,1.656
34.4400,1.597
34.4800,1.624
34.5200,1.673
34.5600,1.665
34.6000,1.595
34.6400,1.634
34.6800,1.567
34.7200,1.613
34.7600,1.650
34.8000,1.647
34.8400,1.661
34.8800,1.491
34.9200,1.653
34.9600,1.663
35.0000,1.556
35.0400,1.674
35.0800,1.597
35.1200,1.547
35.1600,1.721
35.2000,1.553
35.2400,1.641
35.2800,1.614
35.3200,1.488
35.3600,1.579
35.4000,1.653
35.4400,1.703
35.4800,1.507
35.5200,1.571
35.5600,1.575
35.6000,1.669
35.6400,1.546
35.6800,1.602
35.7200,1.660
35.7600,1.667
35.8000,1.500
35.8400,1.535
35.8800,1.597
35.9200,1.623
35.9600,1.695
36.0000,1.694
36.0400,1.595
36.0800,1.603
36.1200,1.707
36.1600,1.683
36.2000,1.615
36.2400,1.695
36.2800,1.563
36.3200,1.522
36.3600,1.633
36.4000,1.593
36.4400,1.667
36.4800,1.578
36.5200,1.552
36.5600,1.570
36.6000,1.648
36.6400,1.625
36.6800,1.605
36.7200,1.646
36.7600,1.733
36.8000,1.807
36.8400,1.744
36.8800,1.754
36.9200,1.673
36.9600,1.670
37.0000,1.803
37.0400,1.748
37.0800,1.779
37.1200,1.686
37.1600,1.736
37.2000,1.918
37.2400,1.759
37.2800,1.699
37.3200,1.831
37.3600,2.064
37.4000,1.953
37.4400,1.997
37.4800,1.950
37.5200,2.013
37.5600,2.206
37.6000,2.389
37.6400,2.462
37.6800,2.635
37.7200,2.712
37.7600,2.706
37.8000,3.066
37.8400,3.379
37.8800,3.846
37.9200,4.445
37.9600,5.473
38.0000,6.470
38.0400,8.674
38.0800,12.123
38.1200,17.479
38.1600,24.459
38.2000,31.298
38.2400,34.455
38.2800,32.097
38.3200,27.444
38.3600,21.806
38.4000,15.516
38.4400,11.463
38.4800,8.336
38.5200,6.149
38.5600,5.276
38.6000,4.308
38.6400,3.694
38.6800,3.377
38.7200,3.119
38.7600,2.878
38.8000,2.589
38.8400,2.342
38.8800,2.387
38.9200,2.351
38.9600,2.122
39.0000,2.151
39.0400,1.898
39.0800,1.958
39.1200,1.792
39.1600,1.857
39.2000,1.826
39.2400,1.720
39.2800,1.617
39.3200,1.641
39.3600,1.616
39.4000,1.606
39.4400,1.573
39.4800,1.547
39.5200,1.596
39.5600,1.511
39.6000,1.502
39.6400,1.496
39.6800,1.559
39.7200,1.485
39.7600,1.552
39.8000,1.568
39.8400,1.391
39.8800,1.408
39.9200,1.389
39.9600,1.495
40.0000,1.407
40.0400,1.429
40.0800,1.399
40.1200,1.494
40.1600,1.422
40.2000,1.479
40.2400,1.355
40.2800,1.324
40.3200,1.287
40.3600,1.388
40.4000,1.359
40.4400,1.386
40.4800,1.384
40.5200,1.458
40.5600,1.459
40.6000,1.327
40.6400,1.452
40.6800,1.494
40.7200,1.400
40.7600,1.399
40.8000,1.341
40.8400,1.357
40.8800,1.355
40.9200,1.390
40.9600,1.328
41.0000,1.285
41.0400,1.270
41.0800,1.368
41.1200,1.263
41.1600,1.320
41.2000,1.274
41.2400,1.340
41.2800,1.323
41.3200,1.256
41.3600,1.297
41.4000,1.262
41.4400,1.280
41.4800,1.436
41.5200,1.324
41.5600,1.196
41.6000,1.295
41.6400,1.280
41.6800,1.363
41.7200,1.266
41.7600,1.275
41.8000,1.280
41.8400,1.348
41.8800,1.272
41.9200,1.343
41.9600,1.311
42.0000,1.247
42.0400,1.336
42.0800,1.221
42.1200,1.242
42.1600,1.306
42.2000,1.254
42.2400,1.246
42.2800,1.168
42.3200,1.319
42.3600,1.194
42.4000,1.269
42.4400,1.282
42.4800,1.251
42.5200,1.178
42.5600,1.325
42.6000,1.316
42.6400,1.315
42.6800,1.263
42.7200,1.189
42.7600,1.257
42.8000,1.191
42.8400,1.275
42.8800,1.223
42.9200,1.290
42.9600,1.260
43.0000,1.321
43.0400,1.272
43.0800,1.337
43.1200,1.338
43.1600,1.282
43.2000,1.301
43.2400,1.299
43.2800,1.325
43.3200,1.465
43.3600,1.452
43.4000,1.360
43.4400,1.358
43.4800,1.280
43.5200,1.310
43.5600,1.535
43.6000,1.535
43.6400,1.445
43.6800,1.493
43.7200,1.587
43.7600,1.546
43.8000,1.545
43.8400,1.682
43.8800,1.747
43.9200,1.851
43.9600,1.961
44.0000,1.983
44.0400,2.114
44.0800,2.248
44.1200,2.706
44.1600,2.860
44.2000,3.272
44.2400,3.609
44.2800,4.423
44.3200,5.193
44.3600,5.978
44.4000,6.879
44.4400,7.248
44.4800,7.498
44.5200,7.395
44.5600,6.744
44.6000,6.059
44.6400,5.297
44.6800,4.333
44.7200,3.665
44.7600,3.180
44.8000,2.779
44.8400,2.412
44.8800,2.177
44.9200,1.912
44.9600,1.915
45.0000,1.723
45.0400,1.731
45.0800,1.460
45.1200,1.539
45.1600,1.438
45.2000,1.337
45.2400,1.479
45.2800,1.377
45.3200,1.362
45.3600,1.294
45.4000,1.212
45.4400,1.250
45.4800,1.240
45.5200,1.118
45.5600,1.134
45.6000,1.205
45.6400,1.217
45.6800,1.057
45.7200,1.150
45.7600,1.186
45.8000,1.122
45.8400,1.104
45.8800,1.076
45.9200,1.072
45.9600,1.034
46.0000,1.117
46.0400,1.002
46.0800,1.080
46.1200,0.941
46.1600,1.014
46.2000,0.930
46.2400,1.005
46.2800,0.972
46.3200,1.020
46.3600,1.038
46.4000,1.114
46.4400,0.940
46.4800,0.982
46.5200,1.051
46.5600,0.987
46.6000,1.059
46.6400,0.991
46.6800,0.988
46.7200,1.015
46.7600,1.028
46.8000,0.968
46.8400,1.025
46.8800,0.936
46.9200,1.029
46.9600,0.930
47.0000,0.980
47.0400,0.968
47.0800,0.954
47.1200,0.989
47.1600,0.985
47.2000,0.939
47.2400,0.944
47.2800,0.948
47.3200,0.927
47.3600,0.949
47.4000,0.975
47.4400,1.002
47.4800,1.039
47.5200,0.911
47.5600,0.967
47.6000,0.933
47.6400,0.947
47.6800,0.925
47.7200,0.921
47.7600,0.961
47.8000,0.961
47.8400,0.918
47.8800,0.951
47.9200,0.973
47.9600,0.874
48.0000,0.925
48.0400,0.914
48.0800,0.908
48.1200,0.979
48.1600,0.889
48.2000,0.883
48.2400,0.900
48.2800,0.911
48.3200,0.959
48.3600,0.934
48.4000,0.875
48.4400,0.936
48.4800,0.919
48.5200,0.849
48.5600,0.890
48.6000,0.879
48.6400,0.990
48.6800,0.912
48.7200,0.884
48.7600,0.830
48.8000,0.830
48.8400,0.950
48.8800,0.966
48.9200,0.897
48.9600,0.858
49.0000,0.937
49.0400,0.895
49.0800,0.905
49.1200,0.896
49.1600,0.937
49.2000,0.869
49.2400,0.830
49.2800,0.850
49.3200,0.911
49.3600,0.813
49.4000,0.903
49.4400,0.899
49.4800,0.846
49.5200,0.866
49.5600,0.855
49.6000,0.757
49.6400,0.882
49.6800,0.868
49.7200,0.925
49.7600,0.899
49.8000,0.882
49.8400,0.872
49.8800,0.767
49.9200,0.883
49.9600,0.852
50.0000,0.875
50.0400,0.871
50.0800,0.810
50.1200,0.830
50.1600,0.794
50.2000,0.880
50.2400,0.863
50.2800,0.882
50.3200,0.883
50.3600,0.854
50.4000,0.834
50.4400,0.840
50.4800,0.750
50.5200,0.902
50.5600,0.800
50.6000,0.817
50.6400,0.874
50.6800,0.834
50.7200,0.876
50.7600,0.837
50.8000,0.759
50.8400,0.805
50.8800,0.863
50.9200,0.805
50.9600,0.820
51.0000,0.825
51.0400,0.831
51.0800,0.765
51.1200,0.797
51.1600,0.838
51.2000,0.744
51.2400,0.815
51.2800,0.856
51.3200,0.798
51.3600,0.728
51.4000,0.763
51.4400,0.752
51.4800,0.802
51.5200,0.757
51.5600,0.823
51.6000,0.762
51.6400,0.797
51.6800,0.763
51.7200,0.748
51.7600,0.798
51.8000,0.785
51.8400,0.909
51.8800,0.747
51.9200,0.837
51.9600,0.796
52.0000,0.770
52.0400,0.774
52.0800,0.770
52.1200,0.807
52.1600,0.791
52.2000,0.809
52.2400,0.850
52.2800,0.789
52.3200,0.798
52.3600,0.757
52.4000,0.739
52.4400,0.816
52.4800,0.731
52.5200,0.694
52.5600,0.840
52.6000,0.745
52.6400,0.806
52.6800,0.737
52.7200,0.702
52.7600,0.789
52.8000,0.814
52.8400,0.809
52.8800,0.777
52.9200,0.699
52.9600,0.726
53.0000,0.730
53.0400,0.692
53.0800,0.684
53.1200,0.809
53.1600,0.829
53.2000,0.790
53.2400,0.755
53.2800,0.812
53.3200,0.896
53.3600,0.713
53.4000,0.767
53.4400,0.765
53.4800,0.752
53.5200,0.719
53.5600,0.675
53.6000,0.771
53.6400,0.747
53.6800,0.766
53.7200,0.734
53.7600,0.759
53.8000,0.777
53.8400,0.755
53.8800,0.766
53.9200,0.706
53.9600,0.735
54.0000,0.751
54.0400,0.748
54.0800,0.757
54.1200,0.712
54.1600,0.754
54.2000,0.735
54.2400,0.805
54.2800,0.775
54.3200,0.780
54.3600,0.728
54.4000,0.775
54.4400,0.720
54.4800,0.715
54.5200,0.703
54.5600,0.720
54.6000,0.702
54.6400,0.688
54.6800,0.728
54.7200,0.712
54.7600,0.752
54.8000,0.766
54.8400,0.692
54.8800,0.690
54.9200,0.729
54.9600,0.719
55.0000,0.751
55.0400,0.730
55.0800,0.758
55.1200,0.719
55.1600,0.646
55.2000,0.750
55.2400,0.735
55.2800,0.749
55.3200,0.696
55.3600,0.696
55.4000,0.754
55.4400,0.765
55.4800,0.723
55.5200,0.781
55.5600,0.692
55.6000,0.676
55.6400,0.703
55.6800,0.633
55.7200,0.712
55.7600,0.689
55.8000,0.635
55.8400,0.746
55.8800,0.745
55.9200,0.677
55.9600,0.663
56.0000,0.699
56.0400,0.595
56.0800,0.756
56.1200,0.649
56.1600,0.659
56.2000,0.765
56.2400,0.653
56.2800,0.645
56.3200,0.655
56.3600,0.640
56.4000,0.802
56.4400,0.698
56.4800,0.756
56.5200,0.657
56.5600,0.687
56.6000,0.644
56.6400,0.663
56.6800,0.689
56.7200,0.671
56.7600,0.703
56.8000,0.715
56.8400,0.698
56.8800,0.716
56.9200,0.617
56.9600,0.741
57.0000,0.774
57.0400,0.605
57.0800,0.679
57.1200,0.584
57.1600,0.654
57.2000,0.682
57.2400,0.684
57.2800,0.714
57.3200,0.661
57.3600,0.682
57.4000,0.694
57.4400,0.677
57.4800,0.652
57.5200,0.718
57.5600,0.614
57.6000,0.683
57.6400,0.697
57.6800,0.652
57.7200,0.694
57.7600,0.694
57.8000,0.727
57.8400,0.647
57.8800,0.703
57.9200,0.653
57.9600,0.698
58.0000,0.667
58.0400,0.703
58.0800,0.711
58.1200,0.645
58.1600,0.677
58.2000,0.640
58.2400,0.675
58.2800,0.569
58.3200,0.653
58.3600,0.667
58.4000,0.709
58.4400,0.653
58.4800,0.667
58.5200,0.656
58.5600,0.676
58.6000,0.681
58.6400,0.688
58.6800,0.660
58.7200,0.712
58.7600,0.692
58.8000,0.603
58.8400,0.620
58.8800,0.652
58.9200,0.683
58.9600,0.651
59.0000,0.658
59.0400,0.675
59.0800,0.670
59.1200,0.618
59.1600,0.710
59.2000,0.609
59.2400,0.651
59.2800,0.653
59.3200,0.645
59.3600,0.614
59.4000,0.657
59.4400,0.720
59.4800,0.677
59.5200,0.661
59.5600,0.681
59.6000,0.721
59.6400,0.728
59.6800,0.671
59.7200,0.682
59.7600,0.593
59.8000,0.668
59.8400,0.647
59.8800,0.711
59.9200,0.637
59.9600,0.683
60.0000,0.681
60.0400,0.634
60.0800,0.672
60.1200,0.592
60.1600,0.613
60.2000,0.625
60.2400,0.643
60.2800,0.643
60.3200,0.665
60.3600,0.647
60.4000,0.601
60.4400,0.664
60.4800,0.569
60.5200,0.636
60.5600,0.636
60.6000,0.626
60.6400,0.642
60.6800,0.697
60.7200,0.571
60.7600,0.627
60.8000,0.583
60.8400,0.603
60.8800,0.643
60.9200,0.628
60.9600,0.600
61.0000,0.626
61.0400,0.668
61.0800,0.637
61.1200,0.626
61.1600,0.604
61.2000,0.583
61.2400,0.627
61.2800,0.635
61.3200,0.571
61.3600,0.582
61.4000,0.649
61.4400,0.566
61.4800,0.607
61.5200,0.630
61.5600,0.572
61.6000,0.660
61.6400,0.729
61.6800,0.677
61.7200,0.669
61.7600,0.653
61.8000,0.544
61.8400,0.636
61.8800,0.601
61.9200,0.668
61.9600,0.591
62.0000,0.581
62.0400,0.604
62.0800,0.653
62.1200,0.606
62.1600,0.595
62.2000,0.600
62.2400,0.652
62.2800,0.618
62.3200,0.642
62.3600,0.652
62.4000,0.615
62.4400,0.691
62.4800,0.625
62.5200,0.641
62.5600,0.558
62.6000,0.577
62.6400,0.625
62.6800,0.556
62.7200,0.549
62.7600,0.598
62.8000,0.571
62.8400,0.637
62.8800,0.611
62.9200,0.576
62.9600,0.635
63.0000,0.623
63.0400,0.613
63.0800,0.688
63.1200,0.658
63.1600,0.651
63.2000,0.655
63.2400,0.640
63.2800,0.652
63.3200,0.628
63.3600,0.674
63.4000,0.578
63.4400,0.651
63.4800,0.630
63.5200,0.692
63.5600,0.649
63.6000,0.696
63.6400,0.579
63.6800,0.709
63.7200,0.733
63.7600,0.709
63.8000,0.703
63.8400,0.764
63.8800,0.769
63.9200,0.752
63.9600,0.830
64.0000,0.809
64.0400,0.874
64.0800,0.876
64.1200,0.951
64.1600,1.029
64.2000,1.028
64.2400,1.133
64.2800,1.164
64.3200,1.266
64.3600,1.459
64.4000,1.745
64.4400,1.921
64.4800,2.360
64.5200,2.692
64.5600,3.162
64.6000,3.862
64.6400,4.191
64.6800,4.463
64.7200,4.069
64.7600,3.680
64.8000,3.484
64.8400,3.423
64.8800,2.826
64.9200,2.547
64.9600,2.059
65.0000,1.708
65.0400,1.467
65.0800,1.382
65.1200,1.263
65.1600,1.126
65.2000,1.074
65.2400,0.905
65.2800,1.029
65.3200,0.869
65.3600,0.887
65.4000,0.925
65.4400,0.780
65.4800,0.829
65.5200,0.824
65.5600,0.845
65.6000,0.804
65.6400,0.736
65.6800,0.749
65.7200,0.767
65.7600,0.787
65.8000,0.815
65.8400,0.789
65.8800,0.861
65.9200,0.816
65.9600,0.812
66.0000,0.745
66.0400,0.742
66.0800,0.869
66.1200,0.780
66.1600,0.871
66.2000,0.817
66.2400,0.709
66.2800,0.786
66.3200,0.815
66.3600,0.842
66.4000,0.831
66.4400,0.802
66.4800,0.846
66.5200,0.841
66.5600,0.856
66.6000,0.844
66.6400,0.891
66.6800,0.862
66.7200,0.859
66.7600,0.850
66.8000,0.941
66.8400,0.901
66.8800,0.934
66.9200,1.002
66.9600,0.969
67.0000,0.958
67.0400,1.012
67.0800,1.050
67.1200,1.040
67.1600,0.999
67.2000,0.997
67.2400,1.065
67.2800,1.062
67.3200,1.050
67.3600,1.091
67.4000,1.120
67.4400,1.096
67.4800,1.092
67.5200,1.217
67.5600,1.146
67.6000,1.175
67.6400,1.271
67.6800,1.297
67.7200,1.346
67.7600,1.387
67.8000,1.372
67.8400,1.400
67.8800,1.284
67.9200,1.443
67.9600,1.448
68.0000,1.532
68.0400,1.542
68.0800,1.546
68.1200,1.692
68.1600,1.578
68.2000,1.741
68.2400,1.596
68.2800,1.767
68.3200,1.778
68.3600,1.833
68.4000,2.020
68.4400,2.156
68.4800,2.162
68.5200,2.469
68.5600,2.344
68.6000,2.616
68.6400,2.631
68.6800,3.089
68.7200,3.787
68.7600,4.979
68.8000,6.133
68.8400,6.315
68.8800,6.464
68.9200,7.014
68.9600,8.576
69.0000,12.656
69.0400,23.825
69.0800,74.765
69.1200,318.741
69.1600,423.809
69.2000,177.668
69.2400,48.708
69.2800,58.889
69.3200,175.526
69.3600,212.664
69.4000,87.506
69.4400,23.343
69.4800,11.843
69.5200,7.643
69.5600,6.272
69.6000,5.013
69.6400,4.395
69.6800,3.675
69.7200,3.397
69.7600,3.201
69.8000,3.076
69.8400,2.760
69.8800,2.525
69.9200,2.438
69.9600,2.439
70.0000,2.041
70.0400,2.103
70.0800,2.083
70.1200,2.070
70.1600,1.906
70.2000,1.915
70.2400,1.740
70.2800,1.636
70.3200,1.795
70.3600,1.609
70.4000,1.599
70.4400,1.604
70.4800,1.553
70.5200,1.375
70.5600,1.463
70.6000,1.426
70.6400,1.322
70.6800,1.259
70.7200,1.303
70.7600,1.320
70.8000,1.278
70.8400,1.154
70.8800,1.251
70.9200,1.176
70.9600,1.067
71.0000,1.026
71.0400,1.109
71.0800,1.091
71.1200,1.061
71.1600,0.969
71.2000,0.933
71.2400,0.933
71.2800,1.055
71.3200,0.963
71.3600,0.982
71.4000,0.840
71.4400,0.844
71.4800,0.809
71.5200,0.828
71.5600,0.879
71.6000,0.811
71.6400,0.791
71.6800,0.782
71.7200,0.769
71.7600,0.776
71.8000,0.832
71.8400,0.726
71.8800,0.740
71.9200,0.716
71.9600,0.721
72.0000,0.760
72.0400,0.694
72.0800,0.741
72.1200,0.702
72.1600,0.669
72.2000,0.688
72.2400,0.696
72.2800,0.631
72.3200,0.661
72.3600,0.599
72.4000,0.653
72.4400,0.640
72.4800,0.663
72.5200,0.643
72.5600,0.655
72.6000,0.642
72.6400,0.595
72.6800,0.648
72.7200,0.657
72.7600,0.588
72.8000,0.628
72.8400,0.586
72.8800,0.534
72.9200,0.541
72.9600,0.589
73.0000,0.544
73.0400,0.583
73.0800,0.538
73.1200,0.514
73.1600,0.525
73.2000,0.540
73.2400,0.513
73.2800,0.521
73.3200,0.530
73.3600,0.551
73.4000,0.523
73.4400,0.541
73.4800,0.453
73.5200,0.546
73.5600,0.478
73.6000,0.461
73.6400,0.456
73.6800,0.500
73.7200,0.520
73.7600,0.528
73.8000,0.486
73.8400,0.538
73.8800,0.519
73.9200,0.450
73.9600,0.516
74.0000,0.468
74.0400,0.478
74.0800,0.464
74.1200,0.538
74.1600,0.490
74.2000,0.487
74.2400,0.502
74.2800,0.480
74.3200,0.431
74.3600,0.478
74.4000,0.469
74.4400,0.515
74.4800,0.450
74.5200,0.469
74.5600,0.461
74.6000,0.477
74.6400,0.469
74.6800,0.432
74.7200,0.493
74.7600,0.488
74.8000,0.412
74.8400,0.432
74.8800,0.461
74.9200,0.429
74.9600,0.456
75.0000,0.454
75.0400,0.468
75.0800,0.435
75.1200,0.466
75.1600,0.450
75.2000,0.467
75.2400,0.480
75.2800,0.421
75.3200,0.424
75.3600,0.473
75.4000,0.426
75.4400,0.425
75.4800,0.431
75.5200,0.423
75.5600,0.449
75.6000,0.467
75.6400,0.455
75.6800,0.458
75.7200,0.448
75.7600,0.419
75.8000,0.462
75.8400,0.433
75.8800,0.511
75.9200,0.450
75.9600,0.472
76.0000,0.482
76.0400,0.432
76.0800,0.404
76.1200,0.448
76.1600,0.458
76.2000,0.436
76.2400,0.534
76.2800,0.505
76.3200,0.484
76.3600,0.543
76.4000,0.479
76.4400,0.444
76.4800,0.523
76.5200,0.451
76.5600,0.482
76.6000,0.489
76.6400,0.540
76.6800,0.433
76.7200,0.520
76.7600,0.544
76.8000,0.608
76.8400,0.550
76.8800,0.527
76.9200,0.524
76.9600,0.600
77.0000,0.669
77.0400,0.705
77.0800,0.630
77.1200,0.744
77.1600,0.853
77.2000,0.720
77.2400,0.853
77.2800,0.980
77.3200,1.097
77.3600,1.105
77.4000,1.340
77.4400,1.540
77.4800,1.745
77.5200,2.190
77.5600,2.570
77.6000,3.029
77.6400,3.289
77.6800,3.358
77.7200,3.194
77.7600,3.060
77.8000,2.832
77.8400,2.584
77.8800,2.417
77.9200,2.217
77.9600,1.942
78.0000,1.662
78.0400,1.417
78.0800,1.154
78.1200,1.087
78.1600,1.000
78.2000,0.928
78.2400,0.879
78.2800,0.748
78.3200,0.754
78.3600,0.638
78.4000,0.613
78.4400,0.582
78.4800,0.614
78.5200,0.510
78.5600,0.512
78.6000,0.503
78.6400,0.483
78.6800,0.506
78.7200,0.464
78.7600,0.480
78.8000,0.415
78.8400,0.443
78.8800,0.476
78.9200,0.433
78.9600,0.406
79.0000,0.382
79.0400,0.437
79.0800,0.424
79.1200,0.339
79.1600,0.433
79.2000,0.465
79.2400,0.401
79.2800,0.408
79.3200,0.461
79.3600,0.431
79.4000,0.371
79.4400,0.381
79.4800,0.374
79.5200,0.387
79.5600,0.409
79.6000,0.384
79.6400,0.429
79.6800,0.400
79.7200,0.356
79.7600,0.420
79.8000,0.417
79.8400,0.383
79.8800,0.371
79.9200,0.411
79.9600,0.372
80.0000,0.369
80.0400,0.379
80.0800,0.403
80.1200,0.408
80.1600,0.377
80.2000,0.369
80.2400,0.351
80.2800,0.322
80.3200,0.350
80.3600,0.386
80.4000,0.388
80.4400,0.420
80.4800,0.377
80.5200,0.377
80.5600,0.352
80.6000,0.392
80.6400,0.370
80.6800,0.375
80.7200,0.405
80.7600,0.397
80.8000,0.400
80.8400,0.436
80.8800,0.368
80.9200,0.434
80.9600,0.409
81.0000,0.393
81.0400,0.399
81.0800,0.406
81.1200,0.426
81.1600,0.408
81.2000,0.417
81.2400,0.484
81.2800,0.468
81.3200,0.446
81.3600,0.480
81.4000,0.447
81.4400,0.532
81.4800,0.628
81.5200,0.624
81.5600,0.754
81.6000,0.767
81.6400,1.031
81.6800,1.130
81.7200,1.314
81.7600,1.286
81.8000,1.441
81.8400,1.336
81.8800,1.212
81.9200,1.157
81.9600,1.164
82.0000,1.022
82.0400,1.152
82.0800,0.892
82.1200,0.800
82.1600,0.719
82.2000,0.585
82.2400,0.572
82.2800,0.565
82.3200,0.511
82.3600,0.468
82.4000,0.429
82.4400,0.470
82.4800,0.403
82.5200,0.380
82.5600,0.388
82.6000,0.362
82.6400,0.397
82.6800,0.344
82.7200,0.398
82.7600,0.352
82.8000,0.359
82.8400,0.345
82.8800,0.364
82.9200,0.321
82.9600,0.359
83.0000,0.380
83.0400,0.326
83.0800,0.325
83.1200,0.384
83.1600,0.339
83.2000,0.285
83.2400,0.387
83.2800,0.367
83.3200,0.303
83.3600,0.303
83.4000,0.308
83.4400,0.345
83.4800,0.315
83.5200,0.323
83.5600,0.309
83.6000,0.291
83.6400,0.358
83.6800,0.327
83.7200,0.337
83.7600,0.311
83.8000,0.351
83.8400,0.330
83.8800,0.269
83.9200,0.291
83.9600,0.349
84.0000,0.264
84.0400,0.279
84.0800,0.349
84.1200,0.343
84.1600,0.306
84.2000,0.308
84.2400,0.340
84.2800,0.309
84.3200,0.352
84.3600,0.352
84.4000,0.275
84.4400,0.314
84.4800,0.316
84.5200,0.305
84.5600,0.351
84.6000,0.300
84.6400,0.302
84.6800,0.323
84.7200,0.257
84.7600,0.330
84.8000,0.281
84.8400,0.260
84.8800,0.353
84.9200,0.328
84.9600,0.366
85.0000,0.347
85.0400,0.284
85.0800,0.269
85.1200,0.276
85.1600,0.340
85.2000,0.287
85.2400,0.345
85.2800,0.321
85.3200,0.326
85.3600,0.302
85.4000,0.311
85.4400,0.357
85.4800,0.325
85.5200,0.331
85.5600,0.291
85.6000,0.344
85.6400,0.319
85.6800,0.341
85.7200,0.254
85.7600,0.323
85.8000,0.363
85.8400,0.283
85.8800,0.268
85.9200,0.329
85.9600,0.294
86.0000,0.320
86.0400,0.284
86.0800,0.280
86.1200,0.323
86.1600,0.331
86.2000,0.277
86.2400,0.291
86.2800,0.267
86.3200,0.252
86.3600,0.342
86.4000,0.268
86.4400,0.273
86.4800,0.294
86.5200,0.278
86.5600,0.262
86.6000,0.280
86.6400,0.325
86.6800,0.248
86.7200,0.263
86.7600,0.317
86.8000,0.328
86.8400,0.305
86.8800,0.314
86.9200,0.319
86.9600,0.296
87.0000,0.296
87.0400,0.316
87.0800,0.324
87.1200,0.284
87.1600,0.287
87.2000,0.278
87.2400,0.306
87.2800,0.263
87.3200,0.277
87.3600,0.328
87.4000,0.299
87.4400,0.301
87.4800,0.289
87.5200,0.268
87.5600,0.332
87.6000,0.326
87.6400,0.269
87.6800,0.284
87.7200,0.326
87.7600,0.319
87.8000,0.276
87.8400,0.297
87.8800,0.334
87.9200,0.297
87.9600,0.243
88.0000,0.291
88.0400,0.346
88.0800,0.305
88.1200,0.295
88.1600,0.272
88.2000,0.267
88.2400,0.279
88.2800,0.294
88.3200,0.300
88.3600,0.229
88.4000,0.287
88.4400,0.267
88.4800,0.321
88.5200,0.245
88.5600,0.299
88.6000,0.342
88.6400,0.327
88.6800,0.242
88.7200,0.260
88.7600,0.273
88.8000,0.258
88.8400,0.299
88.8800,0.320
88.9200,0.241
88.9600,0.310
89.0000,0.289
89.0400,0.268
89.0800,0.275
89.1200,0.244
89.1600,0.298
89.2000,0.295
89.2400,0.252
89.2800,0.305
89.3200,0.283
89.3600,0.254
89.4000,0.282
89.4400,0.269
89.4800,0.222
89.5200,0.283
89.5600,0.274
89.6000,0.267
89.6400,0.286
89.6800,0.304
89.7200,0.272
89.7600,0.299
89.8000,0.242
89.8400,0.290
89.8800,0.262
89.9200,0.267
89.9600,0.316
90.0000,0.283
