5.0400,6.599
5.0800,6.513
5.1200,6.709
5.1600,6.540
5.2000,6.320
5.2400,6.266
5.2800,6.160
5.3200,5.822
5.3600,5.788
5.4000,5.739
5.4400,5.687
5.4800,5.800
5.5200,5.425
5.5600,5.333
5.6000,5.475
5.6400,4.936
5.6800,5.079
5.7200,5.005
5.7600,5.057
5.8000,4.596
5.8400,4.670
5.8800,4.513
5.9200,4.668
5.9600,4.496
6.0000,4.501
6.0400,4.318
6.0800,4.382
6.1200,4.353
6.1600,4.526
6.2000,4.444
6.2400,4.272
6.2800,4.419
6.3200,4.338
6.3600,4.189
6.4000,4.337
6.4400,4.266
6.4800,4.294
6.5200,4.256
6.5600,4.242
6.6000,4.137
6.6400,4.196
6.6800,4.069
6.7200,4.176
6.7600,4.313
6.8000,4.039
6.8400,4.119
6.8800,4.144
6.9200,4.142
6.9600,3.896
7.0000,3.984
7.0400,4.012
7.0800,4.289
7.1200,4.015
7.1600,4.211
7.2000,4.146
7.2400,4.285
7.2800,4.038
7.3200,4.242
7.3600,3.830
7.4000,3.910
7.4400,4.106
7.4800,3.889
7.5200,4.006
7.5600,4.159
7.6000,3.898
7.6400,3.943
7.6800,4.008
7.7200,4.013
7.7600,4.010
7.8000,3.946
7.8400,3.963
7.8800,4.126
7.9200,4.065
7.9600,3.936
8.0000,3.996
8.0400,3.977
8.0800,3.944
8.1200,3.756
8.1600,3.968
8.2000,3.809
8.2400,3.932
8.2800,3.974
8.3200,3.971
8.3600,3.842
8.4000,3.946
8.4400,3.920
8.4800,3.883
8.5200,3.884
8.5600,3.765
8.6000,3.775
8.6400,3.994
8.6800,3.860
8.7200,3.868
8.7600,3.865
8.8000,3.801
8.8400,3.941
8.8800,3.861
8.9200,3.792
8.9600,3.695
9.0000,3.796
9.0400,3.744
9.0800,3.533
9.1200,3.800
9.1600,3.970
9.2000,3.828
9.2400,3.924
9.2800,3.648
9.3200,3.802
9.3600,3.675
9.4000,3.822
9.4400,3.828
9.4800,3.732
9.5200,3.690
9.5600,3.851
9.6000,3.863
9.6400,3.773
9.6800,3.838
9.7200,3.891
9.7600,3.776
9.8000,3.732
9.8400,3.658
9.8800,3.772
9.9200,3.716
9.9600,3.738
10.0000,3.776
10.0400,3.581
10.0800,3.696
10.1200,3.597
10.1600,3.752
10.2000,3.582
10.2400,3.607
10.2800,3.563
10.3200,3.551
10.3600,3.545
10.4000,3.645
10.4400,3.614
10.4800,3.541
10.5200,3.721
10.5600,3.627
10.6000,3.579
10.6400,3.643
10.6800,3.632
10.7200,3.570
10.7600,3.523
10.8000,3.619
10.8400,3.458
10.8800,3.682
10.9200,3.520
10.9600,3.672
11.0000,3.721
11.0400,3.614
11.0800,3.579
11.1200,3.594
11.1600,3.663
11.2000,3.413
11.2400,3.716
11.2800,3.559
11.3200,3.713
11.3600,3.699
11.4000,3.508
11.4400,3.597
11.4800,3.556
11.5200,3.474
11.5600,3.580
11.6000,3.493
11.6400,3.648
11.6800,3.562
11.7200,3.435
11.7600,3.497
11.8000,3.511
11.8400,3.494
11.8800,3.485
11.9200,3.590
11.9600,3.379
12.0000,3.561
12.0400,3.356
12.0800,3.516
12.1200,3.505
12.1600,3.493
12.2000,3.276
12.2400,3.331
12.2800,3.455
12.3200,3.370
12.3600,3.386
12.4000,3.550
12.4400,3.437
12.4800,3.469
12.5200,3.450
12.5600,3.430
12.6000,3.352
12.6400,3.358
12.6800,3.543
12.7200,3.623
12.7600,3.318
12.8000,3.486
12.8400,3.287
12.8800,3.480
12.9200,3.524
12.9600,3.437
13.0000,3.414
13.0400,3.492
13.0800,3.360
13.1200,3.481
13.1600,3.276
13.2000,3.389
13.2400,3.335
13.2800,3.473
13.3200,3.232
13.3600,3.471
13.4000,3.316
13.4400,3.385
13.4800,3.383
13.5200,3.266
13.5600,3.309
13.6000,3.372
13.6400,3.213
13.6800,3.270
13.7200,3.344
13.7600,3.206
13.8000,3.412
13.8400,3.332
13.8800,3.255
13.9200,3.404
13.9600,3.187
14.0000,3.287
14.0400,3.228
14.0800,3.307
14.1200,3.294
14.1600,3.278
14.2000,3.271
14.2400,3.274
14.2800,3.179
14.3200,3.210
14.3600,3.392
14.4000,3.367
14.4400,3.198
14.4800,3.149
14.5200,3.218
14.5600,3.199
14.6000,3.238
14.6400,3.363
14.6800,3.390
14.7200,3.256
14.7600,3.190
14.8000,3.164
14.8400,3.273
14.8800,3.331
14.9200,3.267
14.9600,3.223
15.0000,3.191
15.0400,3.343
15.0800,3.248
15.1200,3.246
15.1600,3.042
15.2000,3.236
15.2400,3.191
15.2800,3.023
15.3200,3.081
15.3600,3.263
15.4000,3.136
15.4400,3.172
15.4800,3.093
15.5200,3.211
15.5600,3.167
15.6000,3.045
15.6400,3.021
15.6800,3.185
15.7200,3.118
15.7600,3.231
15.8000,3.068
15.8400,3.156
15.8800,3.034
15.9200,3.160
15.9600,3.104
16.0000,3.025
16.0400,3.156
16.0800,3.055
16.1200,3.155
16.1600,2.963
16.2000,3.070
16.2400,3.162
16.2800,3.256
16.3200,2.991
16.3600,3.052
16.4000,3.148
16.4400,3.225
16.4800,3.119
16.5200,3.171
16.5600,2.949
16.6000,2.963
16.6400,3.043
16.6800,3.042
16.7200,3.013
16.7600,2.901
16.8000,2.886
16.8400,3.053
16.8800,3.041
16.9200,2.971
16.9600,2.938
17.0000,2.968
17.0400,3.071
17.0800,3.051
17.1200,2.998
17.1600,3.013
17.2000,2.889
17.2400,2.981
17.2800,2.973
17.3200,3.006
17.3600,2.961
17.4000,3.043
17.4400,3.005
17.4800,3.084
17.5200,2.886
17.5600,2.927
17.6000,2.948
17.6400,3.147
17.6800,2.991
17.7200,2.900
17.7600,2.930
17.8000,2.898
17.8400,2.909
17.8800,2.957
17.9200,2.888
17.9600,2.911
18.0000,2.840
18.0400,3.049
18.0800,2.917
18.1200,3.059
18.1600,2.840
18.2000,2.801
18.2400,2.919
18.2800,3.005
18.3200,2.762
18.3600,2.807
18.4000,2.821
18.4400,2.873
18.4800,2.935
18.5200,2.861
18.5600,2.884
18.6000,2.864
18.6400,2.821
18.6800,2.830
18.7200,2.747
18.7600,2.800
18.8000,2.803
18.8400,2.855
18.8800,2.915
18.9200,2.825
18.9600,2.777
19.0000,2.956
19.0400,2.928
19.0800,2.899
19.1200,2.766
19.1600,2.795
19.2000,2.793
19.2400,2.806
19.2800,2.796
19.3200,2.678
19.3600,2.616
19.4000,2.820
19.4400,2.787
19.4800,2.870
19.5200,2.703
19.5600,2.796
19.6000,2.761
19.6400,2.878
19.6800,2.811
19.7200,2.837
19.7600,2.830
19.8000,2.755
19.8400,2.810
19.8800,2.606
19.9200,2.700
19.9600,2.817
20.0000,2.757
20.0400,2.785
20.0800,2.688
20.1200,2.675
20.1600,2.629
20.2000,2.726
20.2400,2.793
20.2800,2.599
20.3200,2.785
20.3600,2.652
20.4000,2.642
20.4400,2.496
20.4800,2.593
20.5200,2.756
20.5600,2.817
20.6000,2.738
20.6400,2.592
20.6800,2.640
20.7200,2.525
20.7600,2.635
20.8000,2.796
20.8400,2.656
20.8800,2.604
20.9200,2.522
20.9600,2.726
21.0000,2.588
21.0400,2.582
21.0800,2.660
21.1200,2.527
21.1600,2.779
21.2000,2.620
21.2400,2.643
21.2800,2.641
21.3200,2.446
21.3600,2.465
21.4000,2.565
21.4400,2.590
21.4800,2.571
21.5200,2.523
21.5600,2.585
21.6000,2.685
21.6400,2.713
21.6800,2.553
21.7200,2.609
21.7600,2.580
21.8000,2.602
21.8400,2.450
21.8800,2.459
21.9200,2.422
21.9600,2.530
22.0000,2.599
22.0400,2.531
22.0800,2.529
22.1200,2.431
22.1600,2.524
22.2000,2.590
22.2400,2.467
22.2800,2.473
22.3200,2.584
22.3600,2.519
22.4000,2.537
22.4400,2.626
22.4800,2.514
22.5200,2.454
22.5600,2.530
22.6000,2.391
22.6400,2.505
22.6800,2.445
22.7200,2.387
22.7600,2.524
22.8000,2.473
22.8400,2.369
22.8800,2.534
22.9200,2.482
22.9600,2.541
23.0000,2.382
23.0400,2.514
23.0800,2.404
23.1200,2.412
23.1600,2.429
23.2000,2.487
23.2400,2.361
23.2800,2.559
23.3200,2.589
23.3600,2.425
23.4000,2.489
23.4400,2.546
23.4800,2.457
23.5200,2.455
23.5600,2.429
23.6000,2.507
23.6400,2.476
23.6800,2.484
23.7200,2.613
23.7600,2.436
23.8000,2.321
23.8400,2.375
23.8800,2.406
23.9200,2.354
23.9600,2.474
24.0000,2.365
24.0400,2.427
24.0800,2.269
24.1200,2.463
24.1600,2.482
24.2000,2.373
24.2400,2.320
24.2800,2.320
24.3200,2.307
24.3600,2.406
24.4000,2.303
24.4400,2.297
24.4800,2.251
24.5200,2.357
24.5600,2.353
24.6000,2.315
24.6400,2.357
24.6800,2.260
24.7200,2.246
24.7600,2.320
24.8000,2.334
24.8400,2.339
24.8800,2.233
24.9200,2.192
24.9600,2.332
25.0000,2.164
25.0400,2.286
25.0800,2.285
25.1200,2.177
25.1600,2.221
25.2000,2.185
25.2400,2.169
25.2800,2.314
25.3200,2.293
25.3600,2.265
25.4000,2.188
25.4400,2.123
25.4800,2.231
25.5200,2.272
25.5600,2.259
25.6000,2.248
25.6400,2.166
25.6800,2.218
25.7200,2.150
25.7600,2.270
25.8000,2.132
25.8400,2.243
25.8800,2.197
25.9200,2.238
25.9600,2.173
26.0000,2.302
26.0400,2.300
26.0800,2.104
26.1200,2.148
26.1600,2.233
26.2000,2.227
26.2400,2.220
26.2800,2.196
26.3200,2.222
26.3600,2.084
26.4000,2.232
26.4400,2.068
26.4800,2.207
26.5200,2.074
26.5600,2.216
26.6000,2.223
26.6400,2.138
26.6800,2.089
26.7200,2.176
26.7600,2.173
26.8000,2.118
26.8400,2.112
26.8800,2.081
26.9200,2.303
26.9600,2.042
27.0000,2.061
27.0400,2.112
27.0800,1.923
27.1200,2.082
27.1600,2.193
27.2000,2.091
27.2400,2.108
27.2800,2.182
27.3200,2.023
27.3600,1.953
27.4000,2.255
27.4400,2.086
27.4800,2.176
27.5200,1.992
27.5600,1.980
27.6000,2.187
27.6400,2.127
27.6800,1.957
27.7200,2.097
27.7600,1.947
27.8000,2.077
27.8400,1.966
27.8800,2.160
27.9200,2.113
27.9600,2.013
28.0000,2.087
28.0400,2.028
28.0800,2.013
28.1200,2.042
28.1600,1.908
28.2000,1.927
28.2400,1.951
28.2800,1.983
28.3200,1.999
28.3600,1.964
28.4000,1.994
28.4400,1.886
28.4800,2.061
28.5200,1.964
28.5600,2.041
28.6000,1.956
28.6400,2.014
28.6800,1.905
28.7200,1.996
28.7600,1.934
28.8000,1.889
28.8400,1.923
28.8800,1.967
28.9200,1.962
28.9600,1.938
29.0000,1.953
29.0400,1.945
29.0800,2.028
29.1200,1.955
29.1600,1.996
29.2000,1.892
29.2400,1.941
29.2800,2.052
29.3200,1.983
29.3600,1.941
29.4000,1.878
29.4400,2.019
29.4800,1.809
29.5200,1.900
29.5600,1.899
29.6000,1.946
29.6400,1.928
29.6800,1.905
29.7200,1.988
29.7600,1.830
29.8000,1.882
29.8400,1.934
29.8800,1.876
29.9200,1.831
29.9600,2.005
30.0000,1.847
30.0400,1.755
30.0800,1.877
30.1200,1.863
30.1600,1.861
30.2000,1.838
30.2400,1.772
30.2800,2.019
30.3200,1.922
30.3600,1.882
30.4000,1.781
30.4400,1.925
30.4800,1.703
30.5200,1.807
30.5600,1.910
30.6000,1.862
30.6400,1.846
30.6800,1.824
30.7200,1.885
30.7600,1.798
30.8000,1.848
30.8400,1.808
30.8800,1.767
30.9200,1.735
30.9600,1.844
31.0000,1.749
31.0400,1.867
31.0800,1.735
31.1200,1.938
31.1600,1.802
31.2000,1.919
31.2400,1.815
31.2800,1.729
31.3200,1.713
31.3600,1.734
31.4000,1.845
31.4400,1.766
31.4800,1.762
31.5200,1.819
31.5600,1.826
31.6000,1.731
31.6400,1.772
31.6800,1.895
31.7200,1.783
31.7600,1.899
31.8000,1.732
31.8400,1.730
31.8800,1.725
31.9200,1.759
31.9600,1.766
32.0000,1.788
32.0400,1.712
32.0800,1.772
32.1200,1.809
32.1600,1.688
32.2000,1.720
32.2400,1.821
32.2800,1.872
32.3200,1.819
32.3600,1.820
32.4000,1.674
32.4400,1.673
32.4800,1.634
32.5200,1.686
32.5600,1.734
32.6000,1.722
32.6400,1.678
32.6800,1.714
32.7200,1.698
32.7600,1.827
32.8000,1.788
32.8400,1.687
32.8800,1.685
32.9200,1.691
32.9600,1.692
33.0000,1.729
33.0400,1.705
33.0800,1.535
33.1200,1.610
33.1600,1.611
33.2000,1.650
33.2400,1.659
33.2800,1.703
33.3200,1.673
33.3600,1.603
33.4000,1.676
33.4400,1.548
33.4800,1.688
33.5200,1.594
33.5600,1.655
33.6000,1.700
33.6400,1.719
33.6800,1.659
33.7200,1.606
33.7600,1.594
33.8000,1.723
33.8400,1.619
33.8800,1.658
33.9200,1.741
33.9600,1.624
34.0000,1.577
34.0400,1.599
34.0800,1.616
34.1200,1.637
34.1600,1.638
34.2000,1.644
34.2400,1.625
34.2800,1.621
34.3200,1.635
34.3600,1.608
34.4000,1.552
34.4400,1.579
34.4800,1.551
34.5200,1.575
34.5600,1.495
34.6000,1.575
34.6400,1.574
34.6800,1.646
34.7200,1.601
34.7600,1.572
34.8000,1.497
34.8400,1.537
34.8800,1.654
34.9200,1.623
34.9600,1.687
35.0000,1.541
35.0400,1.585
35.0800,1.592
35.1200,1.648
35.1600,1.574
35.2000,1.559
35.2400,1.516
35.2800,1.612
35.3200,1.607
35.3600,1.504
35.4000,1.536
35.4400,1.504
35.4800,1.564
35.5200,1.515
35.5600,1.365
35.6000,1.452
35.6400,1.578
35.6800,1.632
35.7200,1.504
35.7600,1.554
35.8000,1.570
35.8400,1.504
35.8800,1.472
35.9200,1.566
35.9600,1.694
36.0000,1.587
36.0400,1.683
36.0800,1.702
36.1200,1.659
36.1600,1.683
36.2000,1.641
36.2400,1.621
36.2800,1.654
36.3200,1.595
36.3600,1.704
36.4000,1.619
36.4400,1.621
36.4800,1.770
36.5200,1.572
36.5600,1.580
36.6000,1.580
36.6400,1.637
36.6800,1.600
36.7200,1.685
36.7600,1.656
36.8000,1.538
36.8400,1.703
36.8800,1.707
36.9200,1.736
36.9600,1.672
37.0000,1.643
37.0400,1.647
37.0800,1.783
37.1200,1.765
37.1600,1.875
37.2000,1.784
37.2400,1.805
37.2800,1.842
37.3200,1.900
37.3600,1.855
37.4000,1.816
37.4400,2.042
37.4800,1.970
37.5200,2.142
37.5600,2.322
37.6000,2.286
37.6400,2.542
37.6800,2.608
37.7200,2.634
37.7600,3.016
37.8000,3.307
37.8400,3.564
37.8800,4.290
37.9200,5.002
37.9600,6.198
38.0000,7.968
38.0400,10.631
38.0800,15.664
38.1200,22.376
38.1600,30.218
38.2000,35.750
38.2400,36.072
38.2800,32.114
38.3200,25.893
38.3600,19.204
38.4000,13.355
38.4400,9.994
38.4800,7.400
38.5200,5.745
38.5600,4.725
38.6000,3.984
38.6400,3.536
38.6800,3.278
38.7200,2.996
38.7600,2.724
38.8000,2.539
38.8400,2.464
38.8800,2.228
38.9200,2.189
38.9600,2.050
39.0000,1.950
39.0400,1.960
39.0800,1.911
39.1200,1.833
39.1600,1.722
39.2000,1.713
39.2400,1.714
39.2800,1.802
39.3200,1.655
39.3600,1.682
39.4000,1.629
39.4400,1.586
39.4800,1.571
39.5200,1.558
39.5600,1.551
39.6000,1.534
39.6400,1.613
39.6800,1.492
39.7200,1.604
39.7600,1.504
39.8000,1.383
39.8400,1.433
39.8800,1.323
39.9200,1.324
39.9600,1.565
40.0000,1.450
40.0400,1.338
40.0800,1.293
40.1200,1.392
40.1600,1.515
40.2000,1.358
40.2400,1.434
40.2800,1.409
40.3200,1.306
40.3600,1.406
40.4000,1.422
40.4400,1.326
40.4800,1.416
40.5200,1.302
40.5600,1.353
40.6000,1.378
40.6400,1.360
40.6800,1.465
40.7200,1.335
40.7600,1.422
40.8000,1.387
40.8400,1.352
40.8800,1.337
40.9200,1.293
40.9600,1.332
41.0000,1.263
41.0400,1.217
41.0800,1.309
41.1200,1.306
41.1600,1.234
41.2000,1.203
41.2400,1.262
41.2800,1.245
41.3200,1.190
41.3600,1.205
41.4000,1.196
41.4400,1.338
41.4800,1.307
41.5200,1.256
41.5600,1.265
41.6000,1.229
41.6400,1.289
41.6800,1.175
41.7200,1.183
41.7600,1.291
41.8000,1.263
41.8400,1.328
41.8800,1.296
41.9200,1.157
41.9600,1.225
42.0000,1.171
42.0400,1.180
42.0800,1.238
42.1200,1.213
42.1600,1.212
42.2000,1.214
42.2400,1.221
42.2800,1.307
42.3200,1.259
42.3600,1.266
42.4000,1.263
42.4400,1.134
42.4800,1.184
42.5200,1.269
42.5600,1.221
42.6000,1.193
42.6400,1.179
42.6800,1.177
42.7200,1.166
42.7600,1.240
42.8000,1.265
42.8400,1.320
42.8800,1.177
42.9200,1.251
42.9600,1.186
43.0000,1.221
43.0400,1.281
43.0800,1.327
43.1200,1.313
43.1600,1.337
43.2000,1.234
43.2400,1.307
43.2800,1.275
43.3200,1.330
43.3600,1.366
43.4000,1.320
43.4400,1.341
43.4800,1.421
43.5200,1.394
43.5600,1.410
43.6000,1.485
43.6400,1.478
43.6800,1.480
43.7200,1.557
43.7600,1.418
43.8000,1.468
43.8400,1.567
43.8800,1.764
43.9200,1.851
43.9600,1.994
44.0000,2.081
44.0400,2.258
44.0800,2.470
44.1200,2.601
44.1600,3.060
44.2000,3.533
44.2400,3.828
44.2800,4.589
44.3200,5.351
44.3600,6.281
44.4000,6.982
44.4400,7.435
44.4800,7.213
44.5200,7.023
44.5600,6.224
44.6000,5.488
44.6400,4.768
44.6800,3.765
44.7200,3.400
44.7600,2.942
44.8000,2.509
44.8400,2.356
44.8800,2.254
44.9200,1.920
44.9600,1.795
45.0000,1.740
45.0400,1.656
45.0800,1.512
45.1200,1.467
45.1600,1.394
45.2000,1.320
45.2400,1.308
45.2800,1.403
45.3200,1.410
45.3600,1.316
45.4000,1.202
45.4400,1.213
45.4800,1.109
45.5200,1.143
45.5600,1.192
45.6000,1.093
45.6400,1.160
45.6800,1.095
45.7200,1.120
45.7600,1.111
45.8000,1.070
45.8400,1.050
45.8800,1.140
45.9200,1.057
45.9600,1.032
46.0000,1.126
46.0400,1.049
46.0800,0.983
46.1200,1.108
46.1600,0.983
46.2000,1.054
46.2400,1.041
46.2800,1.005
46.3200,1.053
46.3600,1.043
46.4000,1.033
46.4400,1.047
46.4800,1.081
46.5200,1.035
46.5600,0.963
46.6000,0.957
46.6400,0.970
46.6800,0.948
46.7200,0.960
46.7600,0.995
46.8000,0.976
46.8400,0.904
46.8800,0.948
46.9200,1.080
46.9600,0.906
47.0000,0.978
47.0400,1.029
47.0800,0.855
47.1200,0.888
47.1600,1.008
47.2000,0.962
47.2400,0.979
47.2800,0.933
47.3200,0.966
47.3600,0.962
47.4000,0.950
47.4400,0.973
47.4800,0.893
47.5200,0.889
47.5600,0.944
47.6000,0.903
47.6400,0.972
47.6800,0.912
47.7200,0.893
47.7600,0.811
47.8000,0.939
47.8400,0.903
47.8800,0.880
47.9200,0.902
47.9600,0.984
48.0000,0.898
48.0400,0.863
48.0800,0.830
48.1200,0.931
48.1600,0.904
48.2000,0.948
48.2400,0.873
48.2800,0.858
48.3200,0.860
48.3600,0.875
48.4000,0.913
48.4400,0.902
48.4800,0.907
48.5200,0.956
48.5600,0.812
48.6000,0.900
48.6400,0.907
48.6800,0.902
48.7200,0.903
48.7600,0.891
48.8000,0.928
48.8400,0.910
48.8800,0.809
48.9200,0.907
48.9600,0.864
49.0000,0.812
49.0400,0.809
49.0800,0.857
49.1200,0.839
49.1600,0.874
49.2000,0.860
49.2400,0.939
49.2800,0.858
49.3200,0.919
49.3600,0.864
49.4000,0.910
49.4400,0.889
49.4800,0.815
49.5200,0.834
49.5600,0.795
49.6000,0.748
49.6400,0.901
49.6800,0.936
49.7200,0.855
49.7600,0.891
49.8000,0.826
49.8400,0.792
49.8800,0.792
49.9200,0.810
49.9600,0.798
50.0000,0.821
50.0400,0.883
50.0800,0.854
50.1200,0.867
50.1600,0.794
50.2000,0.815
50.2400,0.912
50.2800,0.830
50.3200,0.863
50.3600,0.759
50.4000,0.868
50.4400,0.906
50.4800,0.822
50.5200,0.815
50.5600,0.817
50.6000,0.830
50.6400,0.872
50.6800,0.865
50.7200,0.808
50.7600,0.828
50.8000,0.801
50.8400,0.787
50.8800,0.885
50.9200,0.877
50.9600,0.807
51.0000,0.734
51.0400,0.786
51.0800,0.802
51.1200,0.809
51.1600,0.825
51.2000,0.820
51.2400,0.728
51.2800,0.818
51.3200,0.793
51.3600,0.810
51.4000,0.869
51.4400,0.775
51.4800,0.803
51.5200,0.684
51.5600,0.810
51.6000,0.806
51.6400,0.780
51.6800,0.827
51.7200,0.769
51.7600,0.741
51.8000,0.760
51.8400,0.743
51.8800,0.755
51.9200,0.829
51.9600,0.777
52.0000,0.748
52.0400,0.807
52.0800,0.741
52.1200,0.822
52.1600,0.734
52.2000,0.788
52.2400,0.838
52.2800,0.778
52.3200,0.807
52.3600,0.803
52.4000,0.736
52.4400,0.736
52.4800,0.858
52.5200,0.833
52.5600,0.781
52.6000,0.886
52.6400,0.793
52.6800,0.722
52.7200,0.772
52.7600,0.799
52.8000,0.773
52.8400,0.776
52.8800,0.804
52.9200,0.829
52.9600,0.783
53.0000,0.699
53.0400,0.768
53.0800,0.773
53.1200,0.781
53.1600,0.729
53.2000,0.793
53.2400,0.748
53.2800,0.763
53.3200,0.767
53.3600,0.730
53.4000,0.746
53.4400,0.731
53.4800,0.735
53.5200,0.690
53.5600,0.697
53.6000,0.702
53.6400,0.670
53.6800,0.741
53.7200,0.727
53.7600,0.731
53.8000,0.798
53.8400,0.705
53.8800,0.736
53.9200,0.643
53.9600,0.704
54.0000,0.652
54.0400,0.701
54.0800,0.696
54.1200,0.755
54.1600,0.728
54.2000,0.736
54.2400,0.679
54.2800,0.773
54.3200,0.639
54.3600,0.692
54.4000,0.702
54.4400,0.718
54.4800,0.623
54.5200,0.827
54.5600,0.811
54.6000,0.672
54.6400,0.687
54.6800,0.660
54.7200,0.689
54.7600,0.659
54.8000,0.619
54.8400,0.668
54.8800,0.701
54.9200,0.685
54.9600,0.721
55.0000,0.689
55.0400,0.704
55.0800,0.714
55.1200,0.697
55.1600,0.716
55.2000,0.774
55.2400,0.715
55.2800,0.671
55.3200,0.641
55.3600,0.670
55.4000,0.707
55.4400,0.694
55.4800,0.756
55.5200,0.711
55.5600,0.764
55.6000,0.711
55.6400,0.713
55.6800,0.672
55.7200,0.720
55.7600,0.682
55.8000,0.731
55.8400,0.662
55.8800,0.684
55.9200,0.689
55.9600,0.718
56.0000,0.750
56.0400,0.723
56.0800,0.698
56.1200,0.740
56.1600,0.659
56.2000,0.609
56.2400,0.708
56.2800,0.710
56.3200,0.754
56.3600,0.679
56.4000,0.669
56.4400,0.688
56.4800,0.708
56.5200,0.659
56.5600,0.671
56.6000,0.716
56.6400,0.639
56.6800,0.695
56.7200,0.660
56.7600,0.711
56.8000,0.685
56.8400,0.688
56.8800,0.625
56.9200,0.660
56.9600,0.590
57.0000,0.659
57.0400,0.765
57.0800,0.680
57.1200,0.736
57.1600,0.693
57.2000,0.687
57.2400,0.662
57.2800,0.731
57.3200,0.662
57.3600,0.588
57.4000,0.654
57.4400,0.632
57.4800,0.636
57.5200,0.668
57.5600,0.654
57.6000,0.642
57.6400,0.729
57.6800,0.693
57.7200,0.648
57.7600,0.698
57.8000,0.757
57.8400,0.680
57.8800,0.689
57.9200,0.590
57.9600,0.590
58.0000,0.683
58.0400,0.591
58.0800,0.712
58.1200,0.647
58.1600,0.715
58.2000,0.689
58.2400,0.682
58.2800,0.634
58.3200,0.586
58.3600,0.602
58.4000,0.600
58.4400,0.666
58.4800,0.698
58.5200,0.702
58.5600,0.592
58.6000,0.616
58.6400,0.641
58.6800,0.585
58.7200,0.653
58.7600,0.676
58.8000,0.593
58.8400,0.661
58.8800,0.643
58.9200,0.689
58.9600,0.652
59.0000,0.704
59.0400,0.672
59.0800,0.620
59.1200,0.612
59.1600,0.718
59.2000,0.633
59.2400,0.646
59.2800,0.632
59.3200,0.631
59.3600,0.614
59.4000,0.633
59.4400,0.632
59.4800,0.616
59.5200,0.687
59.5600,0.723
59.6000,0.599
59.6400,0.616
59.6800,0.648
59.7200,0.611
59.7600,0.692
59.8000,0.663
59.8400,0.699
59.8800,0.624
59.9200,0.684
59.9600,0.630
60.0000,0.665
60.0400,0.625
60.0800,0.589
60.1200,0.667
60.1600,0.612
60.2000,0.595
60.2400,0.652
60.2800,0.623
60.3200,0.666
60.3600,0.603
60.4000,0.581
60.4400,0.644
60.4800,0.587
60.5200,0.646
60.5600,0.606
60.6000,0.588
60.6400,0.626
60.6800,0.595
60.7200,0.650
60.7600,0.626
60.8000,0.648
60.8400,0.645
60.8800,0.586
60.9200,0.614
60.9600,0.608
61.0000,0.578
61.0400,0.545
61.0800,0.629
61.1200,0.661
61.1600,0.634
61.2000,0.504
61.2400,0.571
61.2800,0.650
61.3200,0.677
61.3600,0.611
61.4000,0.630
61.4400,0.582
61.4800,0.640
61.5200,0.574
61.5600,0.613
61.6000,0.608
61.6400,0.661
61.6800,0.694
61.7200,0.593
61.7600,0.600
61.8000,0.564
61.8400,0.543
61.8800,0.629
61.9200,0.590
61.9600,0.564
62.0000,0.562
62.0400,0.600
62.0800,0.658
62.1200,0.634
62.1600,0.639
62.2000,0.659
62.2400,0.589
62.2800,0.622
62.3200,0.573
62.3600,0.538
62.4000,0.575
62.4400,0.560
62.4800,0.626
62.5200,0.586
62.5600,0.648
62.6000,0.626
62.6400,0.650
62.6800,0.653
62.7200,0.617
62.7600,0.638
62.8000,0.663
62.8400,0.648
62.8800,0.601
62.9200,0.566
62.9600,0.662
63.0000,0.657
63.0400,0.630
63.0800,0.640
63.1200,0.613
63.1600,0.627
63.2000,0.632
63.2400,0.582
63.2800,0.715
63.3200,0.667
63.3600,0.708
63.4000,0.686
63.4400,0.629
63.4800,0.687
63.5200,0.680
63.5600,0.709
63.6000,0.654
63.6400,0.705
63.6800,0.748
63.7200,0.769
63.7600,0.703
63.8000,0.718
63.8400,0.709
63.8800,0.787
63.9200,0.872
63.9600,0.791
64.0000,0.861
64.0400,0.827
64.0800,0.917
64.1200,0.915
64.1600,1.036
64.2000,1.035
64.2400,1.251
64.2800,1.205
64.3200,1.429
64.3600,1.587
64.4000,1.908
64.4400,2.095
64.4800,2.601
64.5200,3.228
64.5600,3.902
64.6000,4.298
64.6400,4.682
64.6800,4.379
64.7200,4.305
64.7600,3.825
64.8000,3.696
64.8400,3.334
64.8800,2.842
64.9200,2.373
64.9600,2.032
65.0000,1.670
65.0400,1.412
65.0800,1.376
65.1200,1.166
65.1600,1.179
65.2000,1.025
65.2400,0.993
65.2800,0.894
65.3200,0.968
65.3600,0.976
65.4000,0.884
65.4400,0.831
65.4800,0.832
65.5200,0.795
65.5600,0.875
65.6000,0.825
65.6400,0.823
65.6800,0.762
65.7200,0.749
65.7600,0.820
65.8000,0.829
65.8400,0.754
65.8800,0.812
65.9200,0.812
65.9600,0.812
66.0000,0.859
66.0400,0.751
66.0800,0.784
66.1200,0.731
66.1600,0.833
66.2000,0.798
66.2400,0.762
66.2800,0.801
66.3200,0.807
66.3600,0.856
66.4000,0.848
66.4400,0.744
66.4800,0.876
66.5200,0.819
66.5600,0.864
66.6000,0.872
66.6400,0.850
66.6800,0.775
66.7200,0.918
66.7600,0.858
66.8000,0.914
66.8400,0.827
66.8800,0.907
66.9200,0.967
66.9600,0.980
67.0000,1.002
67.0400,1.028
67.0800,0.999
67.1200,1.076
67.1600,1.015
67.2000,1.057
67.2400,1.098
67.2800,0.965
67.3200,1.036
67.3600,1.061
67.4000,1.089
67.4400,1.106
67.4800,1.206
67.5200,1.188
67.5600,1.180
67.6000,1.196
67.6400,1.193
67.6800,1.273
67.7200,1.308
67.7600,1.253
67.8000,1.330
67.8400,1.343
67.8800,1.345
67.9200,1.445
67.9600,1.463
68.0000,1.502
68.0400,1.488
68.0800,1.658
68.1200,1.635
68.1600,1.636
68.2000,1.734
68.2400,1.777
68.2800,1.791
68.3200,1.826
68.3600,1.784
68.4000,1.908
68.4400,1.951
68.4800,2.256
68.5200,2.296
68.5600,2.367
68.6000,2.531
68.6400,2.852
68.6800,3.461
68.7200,4.261
68.7600,5.362
68.8000,6.301
68.8400,6.339
68.8800,6.398
68.9200,7.632
68.9600,10.961
69.0000,18.423
69.0400,42.115
69.0800,195.839
69.1200,424.055
69.1600,287.824
69.2000,76.268
69.2400,43.862
69.2800,118.469
69.3200,218.294
69.3600,141.141
69.4000,37.967
69.4400,14.345
69.4800,8.851
69.5200,6.663
69.5600,5.355
69.6000,4.550
69.6400,4.044
69.6800,3.558
69.7200,3.177
69.7600,2.937
69.8000,2.923
69.8400,2.588
69.8800,2.337
69.9200,2.410
69.9600,2.207
70.0000,2.059
70.0400,2.131
70.0800,1.881
70.1200,1.830
70.1600,1.771
70.2000,1.813
70.2400,1.764
70.2800,1.659
70.3200,1.642
70.3600,1.694
70.4000,1.420
70.4400,1.521
70.4800,1.379
70.5200,1.361
70.5600,1.364
70.6000,1.425
70.6400,1.223
70.6800,1.283
70.7200,1.288
70.7600,1.301
70.8000,1.210
70.8400,1.144
70.8800,1.100
70.9200,1.151
70.9600,1.078
71.0000,1.025
71.0400,1.043
71.0800,0.980
71.1200,0.950
71.1600,0.985
71.2000,0.923
71.2400,0.897
71.2800,0.932
71.3200,0.840
71.3600,0.929
71.4000,0.781
71.4400,0.825
71.4800,0.787
71.5200,0.802
71.5600,0.819
71.6000,0.772
71.6400,0.838
71.6800,0.753
71.7200,0.894
71.7600,0.767
71.8000,0.722
71.8400,0.693
71.8800,0.808
71.9200,0.691
71.9600,0.768
72.0000,0.696
72.0400,0.729
72.0800,0.759
72.1200,0.670
72.1600,0.667
72.2000,0.676
72.2400,0.621
72.2800,0.655
72.3200,0.632
72.3600,0.648
72.4000,0.646
72.4400,0.637
72.4800,0.608
72.5200,0.640
72.5600,0.521
72.6000,0.581
72.6400,0.604
72.6800,0.607
72.7200,0.526
72.7600,0.610
72.8000,0.597
72.8400,0.542
72.8800,0.551
72.9200,0.617
72.9600,0.558
73.0000,0.557
73.0400,0.539
73.0800,0.555
73.1200,0.557
73.1600,0.553
73.2000,0.491
73.2400,0.479
73.2800,0.515
73.3200,0.517
73.3600,0.539
73.4000,0.557
73.4400,0.528
73.4800,0.544
73.5200,0.452
73.5600,0.521
73.6000,0.506
73.6400,0.468
73.6800,0.441
73.7200,0.551
73.7600,0.473
73.8000,0.464
73.8400,0.509
73.8800,0.456
73.9200,0.468
73.9600,0.503
74.0000,0.484
74.0400,0.470
74.0800,0.468
74.1200,0.508
74.1600,0.524
74.2000,0.472
74.2400,0.442
74.2800,0.469
74.3200,0.397
74.3600,0.449
74.4000,0.433
74.4400,0.478
74.4800,0.463
74.5200,0.469
74.5600,0.505
74.6000,0.470
74.6400,0.474
74.6800,0.489
74.7200,0.422
74.7600,0.451
74.8000,0.456
74.8400,0.434
74.8800,0.424
74.9200,0.489
74.9600,0.485
75.0000,0.521
75.0400,0.478
75.0800,0.529
75.1200,0.486
75.1600,0.506
75.2000,0.459
75.2400,0.425
75.2800,0.463
75.3200,0.508
75.3600,0.455
75.4000,0.402
75.4400,0.487
75.4800,0.428
75.5200,0.476
75.5600,0.475
75.6000,0.408
75.6400,0.399
75.6800,0.416
75.7200,0.446
75.7600,0.481
75.8000,0.501
75.8400,0.403
75.8800,0.423
75.9200,0.439
75.9600,0.417
76.0000,0.451
76.0400,0.381
76.0800,0.449
76.1200,0.420
76.1600,0.419
76.2000,0.465
76.2400,0.465
76.2800,0.481
76.3200,0.443
76.3600,0.541
76.4000,0.467
76.4400,0.411
76.4800,0.488
76.5200,0.482
76.5600,0.500
76.6000,0.503
76.6400,0.596
76.6800,0.562
76.7200,0.567
76.7600,0.565
76.8000,0.583
76.8400,0.588
76.8800,0.568
76.9200,0.624
76.9600,0.604
77.0000,0.671
77.0400,0.713
77.0800,0.743
77.1200,0.729
77.1600,0.763
77.2000,0.948
77.2400,0.973
77.2800,1.072
77.3200,1.115
77.3600,1.339
77.4000,1.604
77.4400,1.760
77.4800,2.208
77.5200,2.623
77.5600,3.040
77.6000,3.233
77.6400,3.393
77.6800,3.308
77.7200,3.235
77.7600,3.244
77.8000,3.074
77.8400,2.826
77.8800,2.529
77.9200,2.259
77.9600,2.049
78.0000,1.741
78.0400,1.541
78.0800,1.299
78.1200,1.074
78.1600,0.958
78.2000,0.877
78.2400,0.768
78.2800,0.720
78.3200,0.712
78.3600,0.662
78.4000,0.629
78.4400,0.684
78.4800,0.579
78.5200,0.518
78.5600,0.534
78.6000,0.469
78.6400,0.477
78.6800,0.527
78.7200,0.482
78.7600,0.482
78.8000,0.483
78.8400,0.464
78.8800,0.486
78.9200,0.438
78.9600,0.418
79.0000,0.445
79.0400,0.443
79.0800,0.460
79.1200,0.489
79.1600,0.451
79.2000,0.403
79.2400,0.461
79.2800,0.370
79.3200,0.377
79.3600,0.404
79.4000,0.420
79.4400,0.400
79.4800,0.388
79.5200,0.383
79.5600,0.436
79.6000,0.418
79.6400,0.375
79.6800,0.410
79.7200,0.368
79.7600,0.385
79.8000,0.395
79.8400,0.387
79.8800,0.410
79.9200,0.426
79.9600,0.402
80.0000,0.381
80.0400,0.446
80.0800,0.382
80.1200,0.359
80.1600,0.371
80.2000,0.357
80.2400,0.374
80.2800,0.460
80.3200,0.325
80.3600,0.377
80.4000,0.365
80.4400,0.440
80.4800,0.407
80.5200,0.370
80.5600,0.358
80.6000,0.373
80.6400,0.395
80.6800,0.347
80.7200,0.387
80.7600,0.434
80.8000,0.397
80.8400,0.371
80.8800,0.394
80.9200,0.432
80.9600,0.415
81.0000,0.406
81.0400,0.365
81.0800,0.424
81.1200,0.465
81.1600,0.430
81.2000,0.473
81.2400,0.448
81.2800,0.475
81.3200,0.495
81.3600,0.482
81.4000,0.500
81.4400,0.574
81.4800,0.641
81.5200,0.708
81.5600,0.792
81.6000,0.956
81.6400,1.200
81.6800,1.360
81.7200,1.514
81.7600,1.661
81.8000,1.542
81.8400,1.403
81.8800,1.309
81.9200,1.197
81.9600,1.364
82.0000,1.174
82.0400,1.056
82.0800,0.879
82.1200,0.853
82.1600,0.658
82.2000,0.629
82.2400,0.613
82.2800,0.479
82.3200,0.510
82.3600,0.448
82.4000,0.464
82.4400,0.413
82.4800,0.431
82.5200,0.385
82.5600,0.413
82.6000,0.432
82.6400,0.383
82.6800,0.373
82.7200,0.421
82.7600,0.425
82.8000,0.355
82.8400,0.320
82.8800,0.350
82.9200,0.291
82.9600,0.319
83.0000,0.311
83.0400,0.372
83.0800,0.321
83.1200,0.380
83.1600,0.329
83.2000,0.336
83.2400,0.368
83.2800,0.321
83.3200,0.314
83.3600,0.332
83.4000,0.352
83.4400,0.350
83.4800,0.323
83.5200,0.306
83.5600,0.322
83.6000,0.317
83.6400,0.332
83.6800,0.307
83.7200,0.424
83.7600,0.318
83.8000,0.339
83.8400,0.343
83.8800,0.339
83.9200,0.329
83.9600,0.338
84.0000,0.298
84.0400,0.332
84.0800,0.295
84.1200,0.289
84.1600,0.323
84.2000,0.295
84.2400,0.313
84.2800,0.306
84.3200,0.274
84.3600,0.270
84.4000,0.323
84.4400,0.336
84.4800,0.307
84.5200,0.286
84.5600,0.294
84.6000,0.343
84.6400,0.294
84.6800,0.305
84.7200,0.258
84.7600,0.303
84.8000,0.298
84.8400,0.318
84.8800,0.311
84.9200,0.282
84.9600,0.272
85.0000,0.295
85.0400,0.237
85.0800,0.273
85.1200,0.324
85.1600,0.314
85.2000,0.331
85.2400,0.295
85.2800,0.298
85.3200,0.300
85.3600,0.286
85.4000,0.324
85.4400,0.298
85.4800,0.301
85.5200,0.273
85.5600,0.304
85.6000,0.297
85.6400,0.341
85.6800,0.296
85.7200,0.303
85.7600,0.309
85.8000,0.297
85.8400,0.284
85.8800,0.271
85.9200,0.275
85.9600,0.309
86.0000,0.308
86.0400,0.274
86.0800,0.283
86.1200,0.290
86.1600,0.329
86.2000,0.348
86.2400,0.276
86.2800,0.261
86.3200,0.317
86.3600,0.289
86.4000,0.278
86.4400,0.329
86.4800,0.273
86.5200,0.282
86.5600,0.333
86.6000,0.259
86.6400,0.278
86.6800,0.237
86.7200,0.321
86.7600,0.261
86.8000,0.329
86.8400,0.325
86.8800,0.307
86.9200,0.265
86.9600,0.306
87.0000,0.265
87.0400,0.289
87.0800,0.258
87.1200,0.329
87.1600,0.305
87.2000,0.271
87.2400,0.260
87.2800,0.295
87.3200,0.299
87.3600,0.256
87.4000,0.261
87.4400,0.316
87.4800,0.303
87.5200,0.293
87.5600,0.261
87.6000,0.263
87.6400,0.289
87.6800,0.323
87.7200,0.275
87.7600,0.270
87.8000,0.265
87.8400,0.282
87.8800,0.275
87.9200,0.303
87.9600,0.277
88.0000,0.266
88.0400,0.274
88.0800,0.282
88.1200,0.230
88.1600,0.268
88.2000,0.235
88.2400,0.280
88.2800,0.303
88.3200,0.271
88.3600,0.260
88.4000,0.295
88.4400,0.208
88.4800,0.256
88.5200,0.246
88.5600,0.291
88.6000,0.311
88.6400,0.280
88.6800,0.293
88.7200,0.261
88.7600,0.309
88.8000,0.269
88.8400,0.257
88.8800,0.303
88.9200,0.298
88.9600,0.274
89.0000,0.247
89.0400,0.237
89.0800,0.295
89.1200,0.249
89.1600,0.246
89.2000,0.295
89.2400,0.239
89.2800,0.257
89.3200,0.261
89.3600,0.285
89.4000,0.267
89.4400,0.252
89.4800,0.263
89.5200,0.302
89.5600,0.265
89.6000,0.242
89.6400,0.271
89.6800,0.270
89.7200,0.301
89.7600,0.263
89.8000,0.301
89.8400,0.302
89.8800,0.287
89.9200,0.247
89.9600,0.294
90.0000,0.231
