5.0400,6.354
5.0800,6.225
5.1200,6.408
5.1600,6.235
5.2000,6.215
5.2400,6.243
5.2800,6.066
5.3200,6.034
5.3600,5.699
5.4000,6.242
5.4400,5.902
5.4800,5.666
5.5200,5.653
5.5600,5.449
5.6000,5.466
5.6400,5.481
5.6800,5.447
5.7200,5.354
5.7600,5.387
5.8000,5.065
5.8400,5.099
5.8800,4.917
5.9200,4.862
5.9600,4.890
6.0000,4.758
6.0400,4.788
6.0800,4.892
6.1200,4.758
6.1600,4.774
6.2000,4.567
6.2400,4.684
6.2800,4.738
6.3200,4.807
6.3600,4.559
6.4000,4.594
6.4400,4.497
6.4800,4.605
6.5200,4.515
6.5600,4.511
6.6000,4.593
6.6400,4.614
6.6800,4.639
6.7200,4.564
6.7600,4.415
6.8000,4.297
6.8400,4.386
6.8800,4.524
6.9200,4.596
6.9600,4.568
7.0000,4.379
7.0400,4.539
7.0800,4.433
7.1200,4.457
7.1600,4.486
7.2000,4.345
7.2400,4.328
7.2800,4.385
7.3200,4.462
7.3600,4.409
7.4000,4.194
7.4400,4.331
7.4800,4.539
7.5200,4.480
7.5600,4.325
7.6000,4.229
7.6400,4.373
7.6800,4.474
7.7200,4.404
7.7600,4.239
7.8000,4.205
7.8400,4.205
7.8800,4.081
7.9200,4.333
7.9600,4.138
8.0000,4.394
8.0400,4.191
8.0800,4.207
8.1200,4.185
8.1600,4.451
8.2000,4.231
8.2400,4.090
8.2800,4.313
8.3200,4.206
8.3600,4.164
8.4000,4.226
8.4400,4.209
8.4800,4.156
8.5200,4.134
8.5600,4.244
8.6000,3.971
8.6400,4.208
8.6800,4.081
8.7200,4.169
8.7600,4.356
8.8000,4.231
8.8400,4.215
8.8800,4.274
8.9200,4.281
8.9600,4.265
9.0000,4.246
9.0400,4.005
9.0800,3.998
9.1200,4.122
9.1600,3.964
9.2000,3.980
9.2400,4.104
9.2800,3.965
9.3200,4.195
9.3600,4.045
9.4000,4.108
9.4400,4.172
9.4800,4.138
9.5200,4.148
9.5600,3.985
9.6000,4.034
9.6400,3.962
9.6800,3.905
9.7200,3.953
9.7600,4.041
9.8000,3.927
9.8400,3.833
9.8800,3.981
9.9200,3.998
9.9600,3.908
10.0000,3.962
10.0400,3.939
10.0800,3.797
10.1200,3.896
10.1600,3.901
10.2000,3.747
10.2400,3.624
10.2800,3.865
10.3200,3.908
10.3600,3.856
10.4000,3.754
10.4400,3.893
10.4800,3.919
10.5200,3.792
10.5600,3.665
10.6000,3.954
10.6400,3.798
10.6800,3.786
10.7200,3.777
10.7600,3.706
10.8000,3.869
10.8400,3.684
10.8800,3.947
10.9200,3.837
10.9600,3.676
11.0000,3.812
11.0400,3.792
11.0800,3.706
11.1200,3.621
11.1600,3.613
11.2000,3.738
11.2400,3.707
11.2800,3.761
11.3200,3.692
11.3600,3.721
11.4000,3.730
11.4400,3.698
11.4800,3.646
11.5200,3.697
11.5600,3.584
11.6000,3.893
11.6400,3.727
11.6800,3.584
11.7200,3.856
11.7600,3.656
11.8000,3.673
11.8400,3.636
11.8800,3.485
11.9200,3.552
11.9600,3.653
12.0000,3.621
12.0400,3.347
12.0800,3.532
12.1200,3.537
12.1600,3.647
12.2000,3.476
12.2400,3.627
12.2800,3.746
12.3200,3.511
12.3600,3.482
12.4000,3.320
12.4400,3.419
12.4800,3.701
12.5200,3.594
12.5600,3.526
12.6000,3.405
12.6400,3.338
12.6800,3.458
12.7200,3.519
12.7600,3.572
12.8000,3.467
12.8400,3.507
12.8800,3.467
12.9200,3.451
12.9600,3.521
13.0000,3.480
13.0400,3.490
13.0800,3.430
13.1200,3.436
13.1600,3.429
13.2000,3.405
13.2400,3.442
13.2800,3.490
13.3200,3.484
13.3600,3.293
13.4000,3.297
13.4400,3.541
13.4800,3.461
13.5200,3.369
13.5600,3.387
13.6000,3.305
13.6400,3.384
13.6800,3.284
13.7200,3.398
13.7600,3.336
13.8000,3.549
13.8400,3.364
13.8800,3.298
13.9200,3.351
13.9600,3.259
14.0000,3.466
14.0400,3.375
14.0800,3.423
14.1200,3.502
14.1600,3.269
14.2000,3.272
14.2400,3.308
14.2800,3.358
14.3200,3.277
14.3600,3.432
14.4000,3.388
14.4400,3.328
14.4800,3.182
14.5200,3.410
14.5600,3.285
14.6000,3.220
14.6400,3.279
14.6800,3.238
14.7200,3.237
14.7600,3.313
14.8000,3.415
14.8400,3.373
14.8800,3.300
14.9200,3.275
14.9600,3.226
15.0000,3.172
15.0400,3.163
15.0800,3.208
15.1200,3.498
15.1600,3.151
15.2000,3.304
15.2400,3.348
15.2800,3.235
15.3200,3.313
15.3600,3.223
15.4000,3.190
15.4400,3.129
15.4800,3.078
15.5200,3.144
15.5600,3.144
15.6000,3.249
15.6400,3.325
15.6800,3.135
15.7200,3.258
15.7600,3.150
15.8000,3.347
15.8400,3.173
15.8800,3.197
15.9200,3.100
15.9600,3.177
16.0000,3.164
16.0400,3.050
16.0800,3.138
16.1200,3.098
16.1600,3.094
16.2000,3.070
16.2400,3.056
16.2800,3.165
16.3200,3.055
16.3600,3.094
16.4000,3.003
16.4400,3.072
16.4800,2.970
16.5200,3.193
16.5600,3.152
16.6000,3.045
16.6400,3.042
16.6800,3.159
16.7200,3.085
16.7600,3.102
16.8000,3.258
16.8400,3.074
16.8800,3.113
16.9200,3.078
16.9600,3.063
17.0000,2.917
17.0400,3.021
17.0800,3.101
17.1200,2.963
17.1600,2.985
17.2000,3.056
17.2400,2.970
17.2800,3.018
17.3200,2.946
17.3600,3.013
17.4000,3.035
17.4400,2.997
17.4800,2.993
17.5200,3.080
17.5600,2.973
17.6000,2.953
17.6400,2.866
17.6800,3.038
17.7200,3.064
17.7600,3.015
17.8000,2.986
17.8400,2.927
17.8800,3.008
17.9200,3.082
17.9600,2.996
18.0000,2.928
18.0400,2.884
18.0800,2.755
18.1200,2.802
18.1600,2.984
18.2000,2.748
18.2400,2.827
18.2800,2.843
18.3200,3.167
18.3600,2.825
18.4000,2.835
18.4400,3.030
18.4800,2.856
18.5200,3.109
18.5600,2.951
18.6000,2.850
18.6400,2.901
18.6800,2.888
18.7200,2.823
18.7600,2.879
18.8000,2.668
18.8400,2.871
18.8800,2.933
18.9200,2.817
18.9600,2.722
19.0000,2.928
19.0400,2.871
19.0800,2.899
19.1200,2.911
19.1600,2.790
19.2000,2.867
19.2400,2.657
19.2800,2.700
19.3200,2.848
19.3600,2.998
19.4000,2.902
19.4400,2.767
19.4800,2.652
19.5200,2.720
19.5600,2.843
19.6000,2.898
19.6400,2.802
19.6800,2.741
19.7200,2.773
19.7600,2.787
19.8000,2.665
19.8400,2.676
19.8800,2.877
19.9200,2.736
19.9600,2.810
20.0000,2.786
20.0400,2.788
20.0800,2.782
20.1200,2.727
20.1600,2.710
20.2000,2.801
20.2400,2.746
20.2800,2.638
20.3200,2.598
20.3600,2.750
20.4000,2.724
20.4400,2.635
20.4800,2.641
20.5200,2.533
20.5600,2.762
20.6000,2.769
20.6400,2.702
20.6800,2.705
20.7200,2.695
20.7600,2.800
20.8000,2.828
20.8400,2.722
20.8800,2.625
20.9200,2.720
20.9600,2.706
21.0000,2.737
21.0400,2.730
21.0800,2.806
21.1200,2.723
21.1600,2.658
21.2000,2.702
21.2400,2.629
21.2800,2.671
21.3200,2.642
21.3600,2.670
21.4000,2.642
21.4400,2.732
21.4800,2.549
21.5200,2.667
21.5600,2.530
21.6000,2.628
21.6400,2.652
21.6800,2.664
21.7200,2.681
21.7600,2.681
21.8000,2.699
21.8400,2.648
21.8800,2.634
21.9200,2.753
21.9600,2.596
22.0000,2.722
22.0400,2.692
22.0800,2.575
22.1200,2.609
22.1600,2.529
22.2000,2.775
22.2400,2.608
22.2800,2.684
22.3200,2.519
22.3600,2.674
22.4000,2.469
22.4400,2.552
22.4800,2.555
22.5200,2.617
22.5600,2.710
22.6000,2.653
22.6400,2.635
22.6800,2.750
22.7200,2.591
22.7600,2.635
22.8000,2.621
22.8400,2.550
22.8800,2.555
22.9200,2.564
22.9600,2.670
23.0000,2.598
23.0400,2.468
23.0800,2.546
23.1200,2.732
23.1600,2.622
23.2000,2.614
23.2400,2.585
23.2800,2.634
23.3200,2.555
23.3600,2.635
23.4000,2.557
23.4400,2.621
23.4800,2.629
23.5200,2.542
23.5600,2.551
23.6000,2.593
23.6400,2.566
23.6800,2.496
23.7200,2.589
23.7600,2.519
23.8000,2.498
23.8400,2.356
23.8800,2.468
23.9200,2.488
23.9600,2.601
24.0000,2.482
24.0400,2.500
24.0800,2.451
24.1200,2.439
24.1600,2.513
24.2000,2.598
24.2400,2.575
24.2800,2.472
24.3200,2.433
24.3600,2.491
24.4000,2.507
24.4400,2.613
24.4800,2.606
24.5200,2.570
24.5600,2.443
24.6000,2.479
24.6400,2.482
24.6800,2.512
24.7200,2.550
24.7600,2.662
24.8000,2.588
24.8400,2.389
24.8800,2.363
24.9200,2.574
24.9600,2.484
25.0000,2.498
25.0400,2.489
25.0800,2.368
25.1200,2.490
25.1600,2.389
25.2000,2.414
25.2400,2.289
25.2800,2.374
25.3200,2.331
25.3600,2.403
25.4000,2.462
25.4400,2.411
25.4800,2.470
25.5200,2.446
25.5600,2.467
25.6000,2.390
25.6400,2.507
25.6800,2.373
25.7200,2.443
25.7600,2.615
25.8000,2.547
25.8400,2.433
25.8800,2.541
25.9200,2.500
25.9600,2.428
26.0000,2.588
26.0400,2.421
26.0800,2.328
26.1200,2.500
26.1600,2.367
26.2000,2.487
26.2400,2.304
26.2800,2.279
26.3200,2.377
26.3600,2.304
26.4000,2.428
26.4400,2.206
26.4800,2.264
26.5200,2.368
26.5600,2.383
26.6000,2.375
26.6400,2.197
26.6800,2.257
26.7200,2.403
26.7600,2.346
26.8000,2.509
26.8400,2.383
26.8800,2.313
26.9200,2.314
26.9600,2.349
27.0000,2.450
27.0400,2.347
27.0800,2.323
27.1200,2.427
27.1600,2.271
27.2000,2.304
27.2400,2.315
27.2800,2.252
27.3200,2.275
27.3600,2.292
27.4000,2.364
27.4400,2.264
27.4800,2.324
27.5200,2.378
27.5600,2.286
27.6000,2.086
27.6400,2.241
27.6800,2.223
27.7200,2.195
27.7600,2.142
27.8000,2.155
27.8400,2.125
27.8800,2.198
27.9200,2.182
27.9600,2.173
28.0000,2.317
28.0400,2.184
28.0800,2.188
28.1200,2.159
28.1600,1.999
28.2000,2.034
28.2400,2.068
28.2800,2.144
28.3200,2.305
28.3600,2.161
28.4000,2.146
28.4400,2.169
28.4800,2.158
28.5200,2.131
28.5600,2.082
28.6000,2.098
28.6400,2.128
28.6800,2.054
28.7200,1.999
28.7600,2.053
28.8000,2.055
28.8400,2.147
28.8800,2.158
28.9200,1.995
28.9600,2.156
29.0000,2.022
29.0400,2.034
29.0800,1.952
29.1200,2.049
29.1600,2.117
29.2000,2.037
29.2400,1.939
29.2800,2.037
29.3200,1.948
29.3600,2.085
29.4000,1.954
29.4400,2.057
29.4800,2.005
29.5200,1.977
29.5600,1.960
29.6000,1.996
29.6400,1.996
29.6800,1.884
29.7200,1.969
29.7600,2.062
29.8000,2.084
29.8400,2.020
29.8800,1.997
29.9200,2.019
29.9600,1.923
30.0000,2.047
30.0400,2.033
30.0800,1.980
30.1200,1.878
30.1600,2.065
30.2000,2.014
30.2400,2.020
30.2800,1.987
30.3200,1.914
30.3600,1.862
30.4000,1.959
30.4400,1.995
30.4800,1.963
30.5200,1.962
30.5600,1.973
30.6000,1.854
30.6400,1.849
30.6800,1.872
30.7200,1.885
30.7600,1.947
30.8000,1.892
30.8400,1.752
30.8800,1.907
30.9200,1.887
30.9600,1.839
31.0000,1.822
31.0400,1.982
31.0800,1.871
31.1200,1.925
31.1600,1.934
31.2000,1.880
31.2400,1.763
31.2800,1.857
31.3200,1.863
31.3600,1.915
31.4000,1.955
31.4400,1.895
31.4800,1.777
31.5200,1.918
31.5600,1.815
31.6000,1.849
31.6400,1.691
31.6800,1.793
31.7200,1.826
31.7600,1.790
31.8000,1.892
31.8400,1.970
31.8800,1.779
31.9200,1.741
31.9600,1.815
32.0000,1.784
32.0400,1.851
32.0800,1.707
32.1200,1.672
32.1600,1.795
32.2000,1.930
32.2400,1.766
32.2800,1.770
32.3200,1.655
32.3600,1.785
32.4000,1.715
32.4400,1.673
32.4800,1.649
32.5200,1.684
32.5600,1.839
32.6000,1.742
32.6400,1.690
32.6800,1.750
32.7200,1.730
32.7600,1.644
32.8000,1.697
32.8400,1.745
32.8800,1.736
32.9200,1.743
32.9600,1.724
33.0000,1.769
33.0400,1.885
33.0800,2.058
33.1200,1.879
33.1600,1.604
33.2000,1.606
33.2400,1.666
33.2800,1.680
33.3200,1.756
33.3600,1.704
33.4000,1.715
33.4400,1.672
33.4800,1.670
33.5200,1.750
33.5600,1.678
33.6000,1.550
33.6400,1.642
33.6800,1.658
33.7200,1.672
33.7600,1.684
33.8000,1.557
33.8400,1.542
33.8800,1.635
33.9200,1.638
33.9600,1.667
34.0000,1.652
34.0400,1.564
34.0800,1.509
34.1200,1.596
34.1600,1.575
34.2000,1.541
34.2400,1.581
34.2800,1.650
34.3200,1.584
34.3600,1.549
34.4000,1.611
34.4400,1.627
34.4800,1.719
34.5200,1.561
34.5600,1.587
34.6000,1.617
34.6400,1.550
34.6800,1.529
34.7200,1.494
34.7600,1.661
34.8000,1.418
34.8400,1.480
34.8800,1.589
34.9200,1.477
34.9600,1.524
35.0000,1.519
35.0400,1.493
35.0800,1.513
35.1200,1.469
35.1600,1.548
35.2000,1.517
35.2400,1.462
35.2800,1.527
35.3200,1.587
35.3600,1.508
35.4000,1.516
35.4400,1.449
35.4800,1.601
35.5200,1.506
35.5600,1.550
35.6000,1.457
35.6400,1.462
35.6800,1.451
35.7200,1.485
35.7600,1.390
35.8000,1.475
35.8400,1.487
35.8800,1.470
35.9200,1.465
35.9600,1.393
36.0000,1.415
36.0400,1.536
36.0800,1.498
36.1200,1.498
36.1600,1.433
36.2000,1.513
36.2400,1.449
36.2800,1.544
36.3200,1.421
36.3600,1.483
36.4000,1.401
36.4400,1.426
36.4800,1.468
36.5200,1.418
36.5600,1.445
36.6000,1.318
36.6400,1.417
36.6800,1.418
36.7200,1.491
36.7600,1.367
36.8000,1.421
36.8400,1.533
36.8800,1.442
36.9200,1.366
36.9600,1.444
37.0000,1.500
37.0400,1.282
37.0800,1.387
37.1200,1.374
37.1600,1.509
37.2000,1.383
37.2400,1.361
37.2800,1.456
37.3200,1.527
37.3600,1.339
37.4000,1.319
37.4400,1.365
37.4800,1.315
37.5200,1.342
37.5600,1.404
37.6000,1.349
37.6400,1.335
37.6800,1.379
37.7200,1.280
37.7600,1.278
37.8000,1.337
37.8400,1.337
37.8800,1.274
37.9200,1.218
37.9600,1.218
38.0000,1.362
38.0400,1.210
38.0800,1.318
38.1200,1.322
38.1600,1.342
38.2000,1.325
38.2400,1.269
38.2800,1.367
38.3200,1.341
38.3600,1.330
38.4000,1.324
38.4400,1.299
38.4800,1.280
38.5200,1.321
38.5600,1.257
38.6000,1.280
38.6400,1.263
38.6800,1.218
38.7200,1.337
38.7600,1.328
38.8000,1.370
38.8400,1.216
38.8800,1.194
38.9200,1.170
38.9600,1.206
39.0000,1.222
39.0400,1.239
39.0800,1.284
39.1200,1.234
39.1600,1.272
39.2000,1.289
39.2400,1.321
39.2800,1.265
39.3200,1.198
39.3600,1.319
39.4000,1.248
39.4400,1.226
39.4800,1.311
39.5200,1.220
39.5600,1.166
39.6000,1.197
39.6400,1.223
39.6800,1.291
39.7200,1.230
39.7600,1.198
39.8000,1.342
39.8400,1.248
39.8800,1.144
39.9200,1.291
39.9600,1.262
40.0000,1.110
40.0400,1.272
40.0800,1.270
40.1200,1.196
40.1600,1.235
40.2000,1.193
40.2400,1.227
40.2800,1.338
40.3200,1.264
40.3600,1.220
40.4000,1.278
40.4400,1.274
40.4800,1.282
40.5200,1.323
40.5600,1.273
40.6000,1.253
40.6400,1.190
40.6800,1.176
40.7200,1.142
40.7600,1.241
40.8000,1.234
40.8400,1.150
40.8800,1.172
40.9200,1.108
40.9600,1.194
41.0000,1.143
41.0400,1.106
41.0800,1.177
41.1200,1.202
41.1600,1.126
41.2000,1.082
41.2400,1.155
41.2800,1.137
41.3200,1.217
41.3600,1.099
41.4000,1.123
41.4400,1.159
41.4800,1.144
41.5200,1.150
41.5600,1.121
41.6000,1.077
41.6400,1.142
41.6800,1.014
41.7200,1.087
41.7600,1.108
41.8000,1.128
41.8400,1.124
41.8800,1.056
41.9200,1.102
41.9600,1.079
42.0000,1.095
42.0400,1.148
42.0800,1.088
42.1200,1.045
42.1600,1.140
42.2000,1.063
42.2400,1.060
42.2800,1.035
42.3200,1.076
42.3600,1.068
42.4000,1.061
42.4400,1.096
42.4800,1.047
42.5200,1.114
42.5600,1.135
42.6000,1.028
42.6400,1.043
42.6800,1.124
42.7200,1.116
42.7600,1.119
42.8000,1.106
42.8400,1.097
42.8800,0.987
42.9200,0.973
42.9600,1.046
43.0000,1.110
43.0400,1.061
43.0800,1.025
43.1200,1.044
43.1600,1.115
43.2000,1.063
43.2400,1.037
43.2800,1.083
43.3200,1.050
43.3600,1.079
43.4000,0.994
43.4400,1.056
43.4800,1.126
43.5200,0.947
43.5600,1.087
43.6000,1.077
43.6400,1.023
43.6800,1.008
43.7200,1.023
43.7600,0.975
43.8000,1.070
43.8400,1.096
43.8800,0.959
43.9200,1.075
43.9600,1.131
44.0000,1.053
44.0400,1.026
44.0800,0.976
44.1200,1.024
44.1600,1.113
44.2000,0.951
44.2400,1.065
44.2800,0.930
44.3200,1.062
44.3600,0.978
44.4000,0.985
44.4400,1.077
44.4800,0.995
44.5200,1.019
44.5600,0.957
44.6000,1.041
44.6400,1.010
44.6800,1.012
44.7200,0.996
44.7600,0.957
44.8000,0.973
44.8400,0.992
44.8800,0.996
44.9200,0.842
44.9600,0.965
45.0000,0.968
45.0400,1.011
45.0800,1.017
45.1200,0.925
45.1600,0.956
45.2000,0.994
45.2400,0.947
45.2800,0.921
45.3200,0.962
45.3600,0.934
45.4000,1.035
45.4400,1.011
45.4800,0.975
45.5200,1.003
45.5600,0.944
45.6000,0.997
45.6400,0.950
45.6800,0.932
45.7200,0.951
45.7600,0.944
45.8000,0.949
45.8400,1.008
45.8800,0.918
45.9200,0.927
45.9600,0.900
46.0000,0.883
46.0400,0.932
46.0800,0.943
46.1200,0.951
46.1600,0.924
46.2000,0.952
46.2400,0.991
46.2800,0.957
46.3200,0.984
46.3600,0.933
46.4000,0.968
46.4400,0.935
46.4800,0.926
46.5200,0.937
46.5600,0.958
46.6000,0.864
46.6400,0.921
46.6800,0.897
46.7200,0.891
46.7600,0.976
46.8000,0.866
46.8400,0.950
46.8800,1.004
46.9200,0.914
46.9600,0.906
47.0000,0.964
47.0400,0.884
47.0800,0.906
47.1200,0.908
47.1600,0.860
47.2000,0.910
47.2400,0.920
47.2800,0.984
47.3200,0.908
47.3600,0.887
47.4000,0.933
47.4400,0.915
47.4800,0.790
47.5200,0.898
47.5600,0.828
47.6000,0.913
47.6400,0.918
47.6800,0.911
47.7200,0.857
47.7600,0.967
47.8000,0.937
47.8400,0.874
47.8800,0.902
47.9200,0.889
47.9600,0.889
48.0000,0.935
48.0400,0.875
48.0800,0.912
48.1200,0.893
48.1600,0.874
48.2000,0.909
48.2400,0.861
48.2800,0.860
48.3200,0.919
48.3600,0.827
48.4000,0.780
48.4400,0.917
48.4800,0.903
48.5200,0.863
48.5600,0.784
48.6000,0.920
48.6400,0.855
48.6800,0.801
48.7200,0.834
48.7600,0.877
48.8000,0.838
48.8400,0.816
48.8800,0.837
48.9200,0.828
48.9600,0.825
49.0000,0.816
49.0400,0.845
49.0800,0.895
49.1200,0.830
49.1600,0.847
49.2000,0.832
49.2400,0.884
49.2800,0.925
49.3200,0.790
49.3600,0.839
49.4000,0.821
49.4400,0.876
49.4800,0.935
49.5200,0.830
49.5600,0.815
49.6000,0.840
49.6400,0.866
49.6800,0.767
49.7200,0.877
49.7600,0.858
49.8000,0.841
49.8400,0.864
49.8800,0.876
49.9200,0.823
49.9600,0.843
50.0000,0.861
50.0400,0.766
50.0800,0.914
50.1200,0.825
50.1600,0.901
50.2000,0.776
50.2400,0.815
50.2800,0.844
50.3200,0.750
50.3600,0.798
50.4000,0.775
50.4400,0.769
50.4800,0.842
50.5200,0.796
50.5600,0.791
50.6000,0.862
50.6400,0.800
50.6800,0.763
50.7200,0.859
50.7600,0.850
50.8000,0.800
50.8400,0.751
50.8800,0.815
50.9200,0.831
50.9600,0.721
51.0000,0.794
51.0400,0.800
51.0800,0.827
51.1200,0.832
51.1600,0.811
51.2000,0.767
51.2400,0.886
51.2800,0.833
51.3200,0.818
51.3600,0.799
51.4000,0.816
51.4400,0.829
51.4800,0.813
51.5200,0.781
51.5600,0.743
51.6000,0.803
51.6400,0.832
51.6800,0.814
51.7200,0.738
51.7600,0.733
51.8000,0.777
51.8400,0.811
51.8800,0.786
51.9200,0.679
51.9600,0.776
52.0000,0.823
52.0400,0.778
52.0800,0.750
52.1200,0.757
52.1600,0.734
52.2000,0.858
52.2400,0.731
52.2800,0.767
52.3200,0.739
52.3600,0.769
52.4000,0.758
52.4400,0.721
52.4800,0.728
52.5200,0.810
52.5600,0.744
52.6000,0.790
52.6400,0.758
52.6800,0.823
52.7200,0.729
52.7600,0.734
52.8000,0.798
52.8400,0.778
52.8800,0.814
52.9200,0.742
52.9600,0.757
53.0000,0.732
53.0400,0.757
53.0800,0.775
53.1200,0.781
53.1600,0.789
53.2000,0.779
53.2400,0.738
53.2800,0.772
53.3200,0.749
53.3600,0.716
53.4000,0.733
53.4400,0.725
53.4800,0.799
53.5200,0.771
53.5600,0.767
53.6000,0.685
53.6400,0.727
53.6800,0.758
53.7200,0.727
53.7600,0.737
53.8000,0.774
53.8400,0.742
53.8800,0.716
53.9200,0.699
53.9600,0.702
54.0000,0.732
54.0400,0.792
54.0800,0.666
54.1200,0.757
54.1600,0.737
54.2000,0.666
54.2400,0.697
54.2800,0.726
54.3200,0.750
54.3600,0.762
54.4000,0.696
54.4400,0.780
54.4800,0.761
54.5200,0.739
54.5600,0.680
54.6000,0.716
54.6400,0.766
54.6800,0.668
54.7200,0.707
54.7600,0.645
54.8000,0.711
54.8400,0.749
54.8800,0.638
54.9200,0.739
54.9600,0.733
55.0000,0.739
55.0400,0.727
55.0800,0.749
55.1200,0.673
55.1600,0.740
55.2000,0.641
55.2400,0.704
55.2800,0.692
55.3200,0.686
55.3600,0.682
55.4000,0.783
55.4400,0.754
55.4800,0.774
55.5200,0.683
55.5600,0.693
55.6000,0.682
55.6400,0.697
55.6800,0.648
55.7200,0.749
55.7600,0.700
55.8000,0.736
55.8400,0.759
55.8800,0.670
55.9200,0.685
55.9600,0.711
56.0000,0.607
56.0400,0.682
56.0800,0.681
56.1200,0.673
56.1600,0.636
56.2000,0.715
56.2400,0.671
56.2800,0.710
56.3200,0.671
56.3600,0.603
56.4000,0.659
56.4400,0.664
56.4800,0.680
56.5200,0.629
56.5600,0.679
56.6000,0.718
56.6400,0.646
56.6800,0.708
56.7200,0.746
56.7600,0.634
56.8000,0.641
56.8400,0.652
56.8800,0.660
56.9200,0.695
56.9600,0.628
57.0000,0.667
57.0400,0.748
57.0800,0.649
57.1200,0.635
57.1600,0.707
57.2000,0.682
57.2400,0.626
57.2800,0.616
57.3200,0.608
57.3600,0.661
57.4000,0.601
57.4400,0.614
57.4800,0.574
57.5200,0.680
57.5600,0.682
57.6000,0.637
57.6400,0.600
57.6800,0.654
57.7200,0.664
57.7600,0.656
57.8000,0.627
57.8400,0.702
57.8800,0.602
57.9200,0.592
57.9600,0.649
58.0000,0.690
58.0400,0.614
58.0800,0.644
58.1200,0.643
58.1600,0.594
58.2000,0.624
58.2400,0.684
58.2800,0.615
58.3200,0.642
58.3600,0.639
58.4000,0.632
58.4400,0.672
58.4800,0.662
58.5200,0.685
58.5600,0.617
58.6000,0.646
58.6400,0.687
58.6800,0.640
58.7200,0.640
58.7600,0.652
58.8000,0.623
58.8400,0.624
58.8800,0.667
58.9200,0.640
58.9600,0.683
59.0000,0.618
59.0400,0.597
59.0800,0.652
59.1200,0.583
59.1600,0.565
59.2000,0.581
59.2400,0.637
59.2800,0.666
59.3200,0.545
59.3600,0.654
59.4000,0.583
59.4400,0.616
59.4800,0.663
59.5200,0.670
59.5600,0.652
59.6000,0.589
59.6400,0.663
59.6800,0.631
59.7200,0.530
59.7600,0.661
59.8000,0.632
59.8400,0.656
59.8800,0.578
59.9200,0.611
59.9600,0.564
60.0000,0.585
60.0400,0.590
60.0800,0.628
60.1200,0.659
60.1600,0.648
60.2000,0.615
60.2400,0.593
60.2800,0.582
60.3200,0.629
60.3600,0.628
60.4000,0.599
60.4400,0.602
60.4800,0.539
60.5200,0.575
60.5600,0.560
60.6000,0.585
60.6400,0.616
60.6800,0.628
60.7200,0.618
60.7600,0.599
60.8000,0.565
60.8400,0.590
60.8800,0.562
60.9200,0.610
60.9600,0.585
61.0000,0.593
61.0400,0.585
61.0800,0.556
61.1200,0.575
61.1600,0.564
61.2000,0.573
61.2400,0.629
61.2800,0.572
61.3200,0.570
61.3600,0.563
61.4000,0.568
61.4400,0.539
61.4800,0.560
61.5200,0.558
61.5600,0.633
61.6000,0.587
61.6400,0.640
61.6800,0.674
61.7200,0.612
61.7600,0.575
61.8000,0.542
61.8400,0.541
61.8800,0.586
61.9200,0.564
61.9600,0.591
62.0000,0.544
62.0400,0.540
62.0800,0.487
62.1200,0.517
62.1600,0.548
62.2000,0.554
62.2400,0.527
62.2800,0.549
62.3200,0.565
62.3600,0.502
62.4000,0.538
62.4400,0.539
62.4800,0.602
62.5200,0.578
62.5600,0.594
62.6000,0.562
62.6400,0.568
62.6800,0.515
62.7200,0.532
62.7600,0.562
62.8000,0.581
62.8400,0.619
62.8800,0.554
62.9200,0.563
62.9600,0.547
63.0000,0.514
63.0400,0.506
63.0800,0.660
63.1200,0.543
63.1600,0.558
63.2000,0.554
63.2400,0.530
63.2800,0.605
63.3200,0.527
63.3600,0.599
63.4000,0.626
63.4400,0.564
63.4800,0.574
63.5200,0.557
63.5600,0.603
63.6000,0.570
63.6400,0.564
63.6800,0.642
63.7200,0.603
63.7600,0.538
63.8000,0.594
63.8400,0.604
63.8800,0.595
63.9200,0.567
63.9600,0.547
64.0000,0.554
64.0400,0.539
64.0800,0.574
64.1200,0.529
64.1600,0.569
64.2000,0.594
64.2400,0.599
64.2800,0.615
64.3200,0.588
64.3600,0.606
64.4000,0.581
64.4400,0.562
64.4800,0.643
64.5200,0.561
64.5600,0.587
64.6000,0.619
64.6400,0.542
64.6800,0.585
64.7200,0.587
64.7600,0.652
64.8000,0.525
64.8400,0.618
64.8800,0.592
64.9200,0.541
64.9600,0.584
65.0000,0.612
65.0400,0.631
65.0800,0.627
65.1200,0.575
65.1600,0.581
65.2000,0.630
65.2400,0.661
65.2800,0.613
65.3200,0.650
65.3600,0.644
65.4000,0.698
65.4400,0.660
65.4800,0.742
65.5200,0.643
65.5600,0.644
65.6000,0.701
65.6400,0.739
65.6800,0.609
65.7200,0.762
65.7600,0.710
65.8000,0.754
65.8400,0.718
65.8800,0.746
65.9200,0.779
65.9600,0.756
66.0000,0.759
66.0400,0.748
66.0800,0.792
66.1200,0.820
66.1600,0.739
66.2000,0.778
66.2400,0.868
66.2800,0.886
66.3200,0.826
66.3600,0.798
66.4000,0.794
66.4400,0.876
66.4800,0.907
66.5200,0.831
66.5600,0.845
66.6000,0.867
66.6400,1.034
66.6800,0.971
66.7200,0.877
66.7600,0.954
66.8000,0.924
66.8400,0.974
66.8800,1.022
66.9200,1.016
66.9600,1.071
67.0000,0.990
67.0400,1.109
67.0800,1.194
67.1200,1.057
67.1600,1.072
67.2000,1.141
67.2400,1.177
67.2800,1.132
67.3200,1.208
67.3600,1.272
67.4000,1.302
67.4400,1.294
67.4800,1.308
67.5200,1.243
67.5600,1.459
67.6000,1.447
67.6400,1.450
67.6800,1.442
67.7200,1.483
67.7600,1.569
67.8000,1.650
67.8400,1.555
67.8800,1.567
67.9200,1.717
67.9600,1.795
68.0000,1.678
68.0400,1.889
68.0800,1.860
68.1200,1.924
68.1600,1.945
68.2000,2.075
68.2400,2.171
68.2800,2.272
68.3200,2.284
68.3600,2.433
68.4000,2.512
68.4400,2.661
68.4800,2.655
68.5200,2.801
68.5600,3.108
68.6000,3.220
68.6400,3.542
68.6800,3.965
68.7200,5.112
68.7600,6.427
68.8000,7.955
68.8400,8.384
68.8800,8.421
68.9200,9.091
68.9600,11.531
69.0000,17.671
69.0400,34.743
69.0800,138.149
69.1200,495.349
69.1600,533.883
69.2000,185.015
69.2400,55.894
69.2800,95.049
69.3200,262.944
69.3600,260.980
69.4000,90.459
69.4400,24.827
69.4800,13.312
69.5200,9.492
69.5600,7.572
69.6000,6.293
69.6400,5.276
69.6800,4.659
69.7200,4.418
69.7600,3.913
69.8000,3.603
69.8400,3.275
69.8800,3.157
69.9200,3.044
69.9600,2.897
70.0000,2.804
70.0400,2.695
70.0800,2.596
70.1200,2.351
70.1600,2.269
70.2000,2.199
70.2400,2.176
70.2800,2.114
70.3200,2.137
70.3600,1.873
70.4000,1.793
70.4400,1.871
70.4800,1.763
70.5200,1.757
70.5600,1.628
70.6000,1.673
70.6400,1.573
70.6800,1.508
70.7200,1.401
70.7600,1.461
70.8000,1.413
70.8400,1.347
70.8800,1.306
70.9200,1.359
70.9600,1.226
71.0000,1.285
71.0400,1.213
71.0800,1.180
71.1200,1.104
71.1600,1.193
71.2000,1.139
71.2400,1.095
71.2800,0.976
71.3200,0.990
71.3600,0.984
71.4000,0.951
71.4400,0.928
71.4800,0.992
71.5200,0.881
71.5600,0.927
71.6000,0.938
71.6400,0.837
71.6800,0.787
71.7200,0.915
71.7600,0.885
71.8000,0.789
71.8400,0.848
71.8800,0.746
71.9200,0.728
71.9600,0.781
72.0000,0.671
72.0400,0.752
72.0800,0.691
72.1200,0.712
72.1600,0.724
72.2000,0.746
72.2400,0.669
72.2800,0.692
72.3200,0.698
72.3600,0.638
72.4000,0.644
72.4400,0.624
72.4800,0.599
72.5200,0.663
72.5600,0.589
72.6000,0.588
72.6400,0.568
72.6800,0.604
72.7200,0.586
72.7600,0.552
72.8000,0.528
72.8400,0.598
72.8800,0.560
72.9200,0.544
72.9600,0.536
73.0000,0.484
73.0400,0.566
73.0800,0.559
73.1200,0.514
73.1600,0.478
73.2000,0.509
73.2400,0.572
73.2800,0.492
73.3200,0.521
73.3600,0.511
73.4000,0.488
73.4400,0.440
73.4800,0.484
73.5200,0.494
73.5600,0.480
73.6000,0.527
73.6400,0.472
73.6800,0.535
73.7200,0.480
73.7600,0.516
73.8000,0.455
73.8400,0.525
73.8800,0.443
73.9200,0.512
73.9600,0.435
74.0000,0.498
74.0400,0.425
74.0800,0.412
74.1200,0.438
74.1600,0.468
74.2000,0.506
74.2400,0.429
74.2800,0.399
74.3200,0.447
74.3600,0.424
74.4000,0.354
74.4400,0.382
74.4800,0.433
74.5200,0.442
74.5600,0.428
74.6000,0.387
74.6400,0.468
74.6800,0.436
74.7200,0.416
74.7600,0.425
74.8000,0.383
74.8400,0.374
74.8800,0.370
74.9200,0.379
74.9600,0.394
75.0000,0.372
75.0400,0.398
75.0800,0.401
75.1200,0.454
75.1600,0.412
75.2000,0.361
75.2400,0.387
75.2800,0.413
75.3200,0.379
75.3600,0.369
75.4000,0.370
75.4400,0.366
75.4800,0.344
75.5200,0.346
75.5600,0.359
75.6000,0.355
75.6400,0.360
75.6800,0.395
75.7200,0.353
75.7600,0.409
75.8000,0.357
75.8400,0.449
75.8800,0.433
75.9200,0.373
75.9600,0.328
76.0000,0.355
76.0400,0.344
76.0800,0.356
76.1200,0.353
76.1600,0.395
76.2000,0.348
76.2400,0.372
76.2800,0.388
76.3200,0.352
76.3600,0.316
76.4000,0.327
76.4400,0.325
76.4800,0.376
76.5200,0.388
76.5600,0.364
76.6000,0.386
76.6400,0.339
76.6800,0.372
76.7200,0.329
76.7600,0.333
76.8000,0.348
76.8400,0.382
76.8800,0.325
76.9200,0.367
76.9600,0.354
77.0000,0.348
77.0400,0.344
77.0800,0.366
77.1200,0.327
77.1600,0.358
77.2000,0.330
77.2400,0.325
77.2800,0.353
77.3200,0.344
77.3600,0.327
77.4000,0.315
77.4400,0.305
77.4800,0.295
77.5200,0.343
77.5600,0.316
77.6000,0.366
77.6400,0.279
77.6800,0.313
77.7200,0.308
77.7600,0.304
77.8000,0.291
77.8400,0.308
77.8800,0.335
77.9200,0.358
77.9600,0.275
78.0000,0.328
78.0400,0.354
78.0800,0.292
78.1200,0.294
78.1600,0.357
78.2000,0.284
78.2400,0.323
78.2800,0.315
78.3200,0.368
78.3600,0.299
78.4000,0.321
78.4400,0.327
78.4800,0.323
78.5200,0.292
78.5600,0.354
78.6000,0.325
78.6400,0.355
78.6800,0.320
78.7200,0.330
78.7600,0.356
78.8000,0.329
78.8400,0.292
78.8800,0.306
78.9200,0.310
78.9600,0.350
79.0000,0.309
79.0400,0.285
79.0800,0.330
79.1200,0.292
79.1600,0.340
79.2000,0.331
79.2400,0.279
79.2800,0.306
79.3200,0.268
79.3600,0.341
79.4000,0.320
79.4400,0.296
79.4800,0.297
79.5200,0.263
79.5600,0.290
79.6000,0.309
79.6400,0.265
79.6800,0.317
79.7200,0.311
79.7600,0.291
79.8000,0.314
79.8400,0.344
79.8800,0.300
79.9200,0.318
79.9600,0.275
80.0000,0.324
80.0400,0.317
80.0800,0.304
80.1200,0.305
80.1600,0.262
80.2000,0.271
80.2400,0.294
80.2800,0.266
80.3200,0.317
80.3600,0.260
80.4000,0.302
80.4400,0.322
80.4800,0.313
80.5200,0.272
80.5600,0.259
80.6000,0.289
80.6400,0.261
80.6800,0.310
80.7200,0.301
80.7600,0.297
80.8000,0.304
80.8400,0.303
80.8800,0.261
80.9200,0.314
80.9600,0.265
81.0000,0.282
81.0400,0.333
81.0800,0.326
81.1200,0.286
81.1600,0.271
81.2000,0.269
81.2400,0.302
81.2800,0.303
81.3200,0.273
81.3600,0.318
81.4000,0.309
81.4400,0.302
81.4800,0.305
81.5200,0.266
81.5600,0.261
81.6000,0.240
81.6400,0.278
81.6800,0.270
81.7200,0.288
81.7600,0.270
81.8000,0.302
81.8400,0.259
81.8800,0.302
81.9200,0.293
81.9600,0.208
82.0000,0.297
82.0400,0.248
82.0800,0.262
82.1200,0.268
82.1600,0.340
82.2000,0.348
82.2400,0.328
82.2800,0.255
82.3200,0.239
82.3600,0.231
82.4000,0.230
82.4400,0.283
82.4800,0.281
82.5200,0.307
82.5600,0.244
82.6000,0.253
82.6400,0.306
82.6800,0.268
82.7200,0.309
82.7600,0.275
82.8000,0.293
82.8400,0.265
82.8800,0.268
82.9200,0.246
82.9600,0.271
83.0000,0.270
83.0400,0.265
83.0800,0.297
83.1200,0.294
83.1600,0.256
83.2000,0.312
83.2400,0.254
83.2800,0.295
83.3200,0.278
83.3600,0.256
83.4000,0.256
83.4400,0.294
83.4800,0.252
83.5200,0.248
83.5600,0.215
83.6000,0.282
83.6400,0.283
83.6800,0.271
83.7200,0.244
83.7600,0.256
83.8000,0.293
83.8400,0.255
83.8800,0.266
83.9200,0.204
83.9600,0.253
84.0000,0.294
84.0400,0.236
84.0800,0.273
84.1200,0.249
84.1600,0.276
84.2000,0.281
84.2400,0.236
84.2800,0.273
84.3200,0.249
84.3600,0.278
84.4000,0.269
84.4400,0.292
84.4800,0.251
84.5200,0.267
84.5600,0.300
84.6000,0.237
84.6400,0.311
84.6800,0.277
84.7200,0.271
84.7600,0.241
84.8000,0.276
84.8400,0.280
84.8800,0.265
84.9200,0.300
84.9600,0.259
85.0000,0.228
85.0400,0.282
85.0800,0.292
85.1200,0.236
85.1600,0.253
85.2000,0.307
85.2400,0.223
85.2800,0.275
85.3200,0.288
85.3600,0.243
85.4000,0.214
85.4400,0.286
85.4800,0.237
85.5200,0.262
85.5600,0.273
85.6000,0.304
85.6400,0.284
85.6800,0.291
85.7200,0.244
85.7600,0.283
85.8000,0.221
85.8400,0.241
85.8800,0.257
85.9200,0.275
85.9600,0.274
86.0000,0.276
86.0400,0.264
86.0800,0.234
86.1200,0.230
86.1600,0.266
86.2000,0.267
86.2400,0.216
86.2800,0.292
86.3200,0.237
86.3600,0.284
86.4000,0.231
86.4400,0.230
86.4800,0.230
86.5200,0.297
86.5600,0.261
86.6000,0.274
86.6400,0.264
86.6800,0.226
86.7200,0.234
86.7600,0.262
86.8000,0.275
86.8400,0.228
86.8800,0.270
86.9200,0.242
86.9600,0.252
87.0000,0.243
87.0400,0.255
87.0800,0.231
87.1200,0.252
87.1600,0.246
87.2000,0.263
87.2400,0.260
87.2800,0.251
87.3200,0.218
87.3600,0.284
87.4000,0.274
87.4400,0.265
87.4800,0.229
87.5200,0.244
87.5600,0.229
87.6000,0.241
87.6400,0.235
87.6800,0.261
87.7200,0.232
87.7600,0.233
87.8000,0.254
87.8400,0.301
87.8800,0.240
87.9200,0.225
87.9600,0.207
88.0000,0.220
88.0400,0.253
88.0800,0.240
88.1200,0.239
88.1600,0.244
88.2000,0.236
88.2400,0.220
88.2800,0.227
88.3200,0.236
88.3600,0.214
88.4000,0.236
88.4400,0.222
88.4800,0.252
88.5200,0.266
88.5600,0.248
88.6000,0.222
88.6400,0.205
88.6800,0.212
88.7200,0.246
88.7600,0.227
88.8000,0.205
88.8400,0.246
88.8800,0.180
88.9200,0.250
88.9600,0.234
89.0000,0.228
89.0400,0.284
89.0800,0.251
89.1200,0.260
89.1600,0.213
89.2000,0.295
89.2400,0.218
89.2800,0.196
89.3200,0.210
89.3600,0.255
89.4000,0.258
89.4400,0.241
89.4800,0.266
89.5200,0.269
89.5600,0.197
89.6000,0.206
89.6400,0.221
89.6800,0.223
89.7200,0.224
89.7600,0.276
89.8000,0.227
89.8400,0.224
89.8800,0.219
89.9200,0.225
89.9600,0.251
90.0000,0.259
